1533864499.00
64.000000
-0.00
-0.00
-0.00
-0.00
-0.00
-0.00
-0.00
-0.00
-0.00
-0.00
0.00
0.01
0.01
-0.00
-0.03
-0.05
-0.05
0.00
0.13
0.36
0.66
1.01
1.37
1.72
2.06
2.40
2.79
3.24
3.80
4.42
5.06
5.66
6.20
6.68
7.15
7.68
8.31
9.14
10.09
11.04
11.89
12.57
13.14
13.76
14.65
15.95
17.91
20.34
22.95
25.44
27.63
29.55
31.52
33.98
37.27
41.83
47.31
53.21
58.91
64.02
68.56
72.98
77.99
84.15
92.05
101.21
110.84
119.99
128.01
134.86
141.13
148.16
154.77
163.32
174.50
188.39
203.65
217.17
224.42
220.68
202.67
169.76
124.66
71.42
14.37
-43.55
-101.24
-158.85
-216.68
-274.24
-330.18
-382.42
-429.58
-470.96
-506.44
-535.89
-558.63
-573.20
-577.55
-569.82
-548.90
-515.36
-471.26
-419.69
-364.07
-307.48
-252.30
-200.27
-152.49
-109.08
-69.19
-30.73
8.95
51.91
98.43
146.43
192.04
231.05
260.55
279.77
289.93
293.22
291.69
286.59
278.60
268.29
256.49
244.17
231.96
219.80
206.90
192.12
174.61
154.45
132.74
111.40
92.46
77.29
66.14
58.04
51.17
43.64
34.22
22.80
10.41
-1.12
-10.07
-15.32
-16.73
-15.14
-11.99
-8.79
-6.62
-5.88
-6.27
-7.15
-7.86
-8.00
-7.56
-6.81
-6.03
-5.37
-4.78
-4.11
-3.26
-2.29
-1.42
-0.93
-0.96
-1.43
-2.10
-2.67
-2.98
-3.05
-3.03
-3.03
-3.03
-2.84
-2.23
-1.12
0.36
1.83
2.88
3.21
2.76
1.75
0.53
-0.57
-1.32
-1.69
-1.74
-1.60
-1.39
-1.21
-1.12
-1.13
-1.24
-1.43
-1.65
-1.87
-2.03
-2.11
-2.10
-1.99
-1.82
-1.68
-1.60
-1.60
-1.65
-1.67
-1.55
-1.29
-0.89
-0.46
-0.08
0.17
0.29
0.34
0.39
0.52
0.77
1.12
1.50
1.82
2.03
2.16
2.35
2.75
3.46
4.45
5.54
6.44
6.92
6.87
6.33
5.46
4.38
3.21
1.92
0.48
-1.08
-2.67
-4.14
-5.36
-6.26
-6.84
-7.15
-7.25
-7.21
-7.04
-6.78
-6.45
-6.08
-5.70
-5.32
-4.92
-4.52
-4.13
-3.73
-3.34
-2.96
-2.64
-2.41
-2.30
-2.34
-2.52
-2.76
-2.95
-2.98
-2.81
-2.47
-2.07
-1.70
-1.46
-1.39
-1.52
-1.84
-2.31
-2.85
-3.33
-3.59
-3.51
-3.10
-2.43
-1.64
-0.89
-0.27
0.20
0.48
0.56
0.41
0.05
-0.46
-1.01
-1.53
-1.99
-2.37
-2.70
-2.95
-3.08
-3.01
-2.74
-2.31
-1.81
-1.36
-1.08
-1.00
-1.12
-1.33
-1.56
-1.73
-1.78
-1.72
-1.53
-1.20
-0.73
-0.08
0.74
1.66
2.55
3.30
3.84
4.15
4.24
4.14
3.84
3.34
2.65
1.81
0.89
-0.01
-0.85
-1.60
-2.27
-2.84
-3.29
-3.55
-3.58
-3.36
-2.89
-2.19
-1.30
-0.27
0.82
1.84
2.69
3.28
3.56
3.59
3.43
3.18
2.91
2.68
2.52
2.49
2.60
2.81
3.05
3.22
3.25
3.13
2.92
2.70
2.55
2.45
2.35
2.21
2.01
1.78
1.55
1.32
1.10
0.86
0.61
0.36
0.09
-0.23
-0.64
-1.17
-1.76
-2.28
-2.59
-2.64
-2.48
-2.28
-2.22
-2.42
-2.89
-3.60
-4.47
-5.45
-6.48
-7.42
-8.07
-8.19
-7.62
-6.40
-4.74
-2.99
-1.45
-0.31
0.37
0.68
0.74
0.64
0.48
0.33
0.24
0.26
0.37
0.54
0.73
0.87
0.97
1.03
1.04
0.96
0.72
0.29
-0.29
-0.91
-1.46
-1.86
-2.06
-2.03
-1.80
-1.34
-0.68
0.15
1.08
1.99
2.79
3.44
3.97
4.44
4.85
5.17
5.29
5.11
4.61
3.87
3.04
2.19
1.38
0.59
-0.19
-0.93
-1.53
-1.92
-2.06
-1.98
-1.74
-1.37
-0.88
-0.23
0.55
1.41
2.21
2.82
3.17
3.23
3.08
2.81
2.56
2.44
2.53
2.87
3.39
3.95
4.36
4.53
4.44
4.17
3.82
3.46
3.07
2.64
2.15
1.67
1.35
1.28
1.43
1.67
1.79
1.61
1.12
0.45
-0.21
-0.75
-1.14
-1.45
-1.75
-2.09
-2.42
-2.67
-2.83
-2.95
-3.14
-3.51
-4.05
-4.65
-5.13
-5.30
-5.06
-4.42
-3.45
-2.28
-1.03
0.20
1.29
2.15
2.73
2.98
2.96
2.77
2.54
2.40
2.43
2.59
2.82
3.04
3.19
3.22
3.15
2.99
2.73
2.39
1.98
1.54
1.13
0.79
0.54
0.37
0.22
0.03
-0.24
-0.61
-1.04
-1.49
-1.92
-2.26
-2.47
-2.54
-2.45
-2.28
-2.18
-2.25
-2.60
-3.22
-4.00
-4.82
-5.54
-6.09
-6.48
-6.74
-6.88
-6.87
-6.64
-6.11
-5.31
-4.32
-3.32
-2.46
-1.84
-1.48
-1.30
-1.21
-1.14
-1.07
-1.03
-1.07
-1.19
-1.40
-1.64
-1.83
-1.88
-1.70
-1.21
-0.42
0.65
1.86
3.10
4.22
5.14
5.80
6.21
6.42
6.47
6.46
6.43
6.43
6.39
6.23
5.84
5.16
4.24
3.21
2.26
1.50
0.96
0.55
0.11
-0.52
-1.43
-2.55
-3.67
-4.55
-4.97
-4.87
-4.30
-3.42
-2.42
-1.45
-0.57
0.21
0.89
1.44
1.84
2.06
2.10
2.09
2.14
2.36
2.77
3.28
3.76
4.08
4.17
4.06
3.83
3.60
3.45
3.41
3.49
3.65
3.88
4.10
4.26
4.27
4.05
3.58
2.91
2.17
1.52
1.06
0.84
0.75
0.66
0.44
0.02
-0.59
-1.36
-2.21
-3.09
-3.93
-4.62
-5.08
-5.21
-4.97
-4.35
-3.41
-2.23
-0.94
0.33
1.42
2.19
2.56
2.58
2.39
2.18
2.08
2.15
2.36
2.61
2.84
2.98
3.02
2.96
2.78
2.49
2.11
1.66
1.19
0.75
0.40
0.15
-0.01
-0.13
-0.33
-0.67
-1.19
-1.84
-2.48
-2.97
-3.22
-3.26
-3.21
-3.26
-3.51
-3.96
-4.48
-4.90
-5.08
-4.99
-4.68
-4.24
-3.72
-3.11
-2.37
-1.50
-0.55
0.39
1.22
1.87
2.35
2.70
2.94
3.08
3.11
3.02
2.85
2.68
2.55
2.49
2.48
2.47
2.43
2.35
2.23
2.09
1.93
1.72
1.46
1.16
0.86
0.59
0.38
0.22
0.08
-0.11
-0.40
-0.84
-1.42
-2.06
-2.68
-3.16
-3.49
-3.71
-3.92
-4.19
-4.51
-4.76
-4.78
-4.44
-3.75
-2.80
-1.76
-0.73
0.26
1.32
2.54
3.96
5.49
6.91
7.97
8.52
8.58
8.41
8.41
8.94
10.19
11.99
13.93
15.47
16.21
16.13
15.61
15.26
15.69
17.19
19.56
22.24
24.50
25.81
26.14
26.05
26.59
28.91
33.81
41.24
50.07
58.11
62.55
60.66
50.52
31.69
5.55
-24.65
-54.37
-78.78
-94.03
-98.41
-92.80
-80.32
-65.12
-50.97
-40.20
-33.39
-29.88
-28.50
-28.23
-28.35
-28.30
-27.46
-25.21
-21.18
-15.61
-9.40
-3.81
-0.04
1.27
0.29
-2.06
-4.55
-6.14
-6.35
-5.43
-4.09
-3.19
-3.31
-4.53
-6.54
-8.80
-10.87
-12.51
-13.74
-14.70
-15.48
-16.05
-16.29
-16.03
-15.18
-13.76
-11.94
-10.06
-8.53
-7.69
-7.73
-8.61
-10.11
-11.83
-13.42
-14.71
-15.73
-16.65
-17.62
-18.70
-19.83
-20.93
-21.76
-22.15
-22.10
-21.75
-21.24
-20.64
-19.96
-19.19
-18.29
-16.80
-14.25
-10.39
-5.31
0.71
7.32
14.15
20.82
26.92
32.83
38.94
45.39
51.92
58.06
63.51
68.28
72.54
76.55
81.37
87.74
95.63
104.29
112.63
119.92
125.98
130.89
129.25
117.62
96.07
68.71
41.23
17.85
0.50
-10.75
-17.01
-20.09
-21.12
-20.99
-20.84
-21.64
-24.05
-27.86
-32.20
-36.10
-38.94
-40.07
-39.64
-38.75
-38.36
-39.94
-44.41
-51.83
-61.42
-71.89
-81.32
-87.90
-90.40
-88.32
-82.09
-72.67
-61.38
-49.67
-38.80
-29.32
-21.24
-14.12
-7.40
-0.61
6.63
14.63
23.39
32.56
41.42
48.93
53.95
55.77
54.42
50.79
46.37
42.57
40.17
39.07
38.44
37.18
34.50
30.15
24.46
18.00
11.22
4.23
-3.06
-10.75
-18.58
-25.92
-31.92
-35.90
-37.65
-37.59
-36.58
-35.55
-35.09
-35.28
-35.70
-35.81
-35.25
-34.10
-32.76
-31.69
-31.10
-30.85
-30.58
-29.99
-29.04
-27.91
-26.76
-25.36
-23.09
-19.12
-12.93
-4.68
4.72
13.87
21.42
26.54
29.10
29.52
28.37
26.12
22.96
19.00
14.43
9.73
5.55
2.45
0.60
-0.48
-1.74
-4.25
-8.55
-14.37
-20.60
-25.82
-28.92
-29.54
-28.13
-25.49
-22.19
-18.26
-13.23
-6.62
1.59
10.63
19.14
25.64
29.15
29.49
27.30
23.63
19.50
15.59
12.15
9.28
7.19
6.36
7.45
10.86
16.40
23.12
29.61
34.56
37.30
38.04
37.66
37.22
37.38
38.14
38.93
38.95
37.60
34.79
30.86
26.44
22.09
18.14
14.63
11.37
8.19
5.00
1.91
-0.89
-3.26
-5.12
-6.56
-7.70
-8.62
-9.29
-9.59
-9.42
-8.76
-7.71
-6.47
-5.20
-4.00
-2.90
-1.88
-1.00
-0.32
0.11
0.33
0.56
1.10
2.26
4.19
6.77
9.66
12.38
14.49
15.69
15.88
15.16
13.68
11.59
9.03
6.13
3.05
-0.04
-2.96
-5.68
-8.27
-10.97
-14.03
-17.53
-21.36
-25.16
-28.51
-31.08
-32.72
-33.53
-33.74
-33.57
-33.19
-32.64
-31.88
-30.83
-29.42
-27.64
-25.50
-23.03
-20.29
-17.35
-14.29
-11.20
-8.15
-5.19
-2.39
0.20
2.48
4.37
5.75
6.59
6.96
6.99
6.89
6.84
6.88
6.93
6.75
6.06
4.62
2.30
-0.88
-4.82
-9.28
-13.93
-18.35
-22.11
-24.81
-26.28
-26.66
-26.34
-25.77
-25.31
-24.95
-24.40
-23.23
-21.11
-18.04
-14.31
-10.42
-6.79
-3.69
-1.07
1.32
3.84
6.75
10.21
14.15
18.44
22.82
27.03
30.79
33.78
35.66
36.09
34.85
32.04
28.11
23.65
19.13
14.76
10.46
6.05
1.53
-2.74
-6.00
-7.62
-7.65
-6.92
-6.64
-7.75
-10.31
-13.33
-15.25
-14.34
-9.83
-2.78
4.16
7.80
5.89
-1.82
-13.41
-25.69
-35.09
-39.27
-38.28
-34.00
-28.66
-23.73
-19.87
-17.45
-16.84
-17.46
-17.46
-14.09
-4.63
12.47
36.28
62.70
86.15
98.08
92.76
71.87
43.29
15.54
-6.25
-20.80
-29.25
-33.35
-34.51
-33.03
-28.81
-22.41
-15.24
-9.17
-5.56
-4.73
-6.09
-8.42
-9.96
-9.33
-6.38
-2.21
1.57
3.78
4.01
2.67
0.62
-0.93
-1.06
0.37
2.68
4.88
6.25
6.51
5.87
4.80
3.93
3.75
4.31
5.31
6.28
6.91
7.11
6.99
6.77
6.69
6.88
7.34
7.95
8.56
9.09
9.58
10.08
10.67
11.35
12.03
12.65
13.13
13.48
13.81
14.29
15.06
16.12
17.42
18.64
19.51
19.77
19.35
18.43
17.30
16.23
15.24
14.07
11.99
8.52
3.35
-3.34
-10.85
-18.15
-24.33
-28.94
-31.83
-34.15
-36.90
-40.74
-45.62
-50.75
-54.94
-57.34
-57.80
-56.71
-55.24
-54.50
-55.37
-58.39
-63.86
-71.51
-79.97
-86.33
-86.63
-77.42
-57.42
-29.00
2.39
30.18
49.42
58.61
59.78
56.76
52.87
49.66
46.83
43.46
39.24
34.91
31.74
30.55
31.10
32.18
32.44
30.80
27.30
22.82
18.64
15.85
14.83
15.19
15.97
16.14
15.04
12.71
9.71
6.87
4.88
3.98
3.94
4.19
4.14
3.41
2.01
0.27
-1.37
-2.54
-3.15
-3.34
-3.43
-3.72
-4.40
-5.42
-6.56
-7.59
-8.33
-8.79
-9.10
-9.50
-10.18
-11.20
-12.42
-13.59
-14.48
-14.94
-15.03
-14.93
-14.89
-15.01
-15.15
-14.93
-13.76
-11.16
-6.86
-1.25
4.85
10.44
14.68
17.34
18.87
20.28
22.56
26.17
30.67
34.74
36.78
35.71
31.66
26.21
21.78
20.60
23.55
29.65
36.17
39.87
38.70
32.90
25.08
19.11
18.15
23.37
33.39
45.04
54.66
59.42
57.57
48.76
33.93
15.34
-3.28
-17.64
-24.68
-24.09
-18.82
-14.47
-16.73
-28.31
-47.26
-67.11
-77.72
-71.34
-47.11
-12.15
21.48
42.63
47.24
38.59
24.96
14.79
11.15
10.01
2.82
-18.01
-53.87
-98.22
-138.90
-162.93
-162.09
-136.07
-91.81
-40.23
7.40
42.39
59.23
56.04
34.64
-0.46
-43.23
-87.02
-125.37
-152.73
-162.41
-150.60
-117.03
-65.01
-1.36
64.18
120.33
157.10
168.69
155.46
123.24
81.38
39.40
3.43
-25.34
-49.77
-74.04
-100.20
-126.08
-145.79
-151.81
-138.36
-104.69
-56.00
-1.94
46.90
82.73
102.83
109.11
106.08
98.04
87.16
73.41
56.09
35.59
14.25
-4.16
-16.02
-19.39
-14.66
-4.17
9.04
22.50
35.06
46.81
58.36
69.94
80.96
90.23
96.49
99.14
98.63
96.33
93.96
92.78
93.05
93.93
94.01
91.90
86.89
79.14
69.54
59.23
49.22
40.04
31.66
23.49
14.48
3.27
-11.27
-29.64
-51.02
-73.06
-92.32
-105.31
-109.61
-104.66
-91.77
-73.56
-53.07
-32.96
-15.22
-1.15
8.40
12.97
12.62
8.13
1.09
-6.41
-12.29
-15.17
-14.72
-11.63
-7.21
-2.80
0.68
2.82
3.45
2.28
-1.19
-7.36
-15.76
-24.60
-30.95
-31.82
-25.59
-13.06
2.59
16.88
25.74
26.93
20.74
9.76
-2.20
-11.55
-16.00
-15.06
-9.94
-2.83
3.69
7.79
8.89
7.72
5.63
3.93
3.38
4.15
6.03
8.37
10.76
13.21
15.98
18.93
21.34
22.29
21.26
18.55
14.54
10.38
8.04
9.49
15.50
25.07
35.91
45.25
50.80
50.15
42.92
31.49
20.07
12.17
8.47
6.59
2.20
-9.27
-32.73
-70.13
-119.02
-173.03
-224.24
-265.08
-289.44
-293.65
-266.93
-208.73
-132.33
-59.31
-6.28
22.17
30.86
28.08
21.14
14.73
9.45
4.98
1.64
1.01
3.77
8.78
13.95
17.32
17.95
14.74
7.97
-0.17
-6.16
-6.96
-2.05
7.34
18.68
29.16
35.91
37.80
36.16
34.14
34.85
39.81
48.54
58.88
68.04
73.31
73.37
68.73
61.36
53.67
47.74
45.07
46.43
51.89
60.57
70.88
80.77
88.40
92.62
93.48
92.11
90.18
89.13
89.75
92.01
94.95
97.46
98.77
99.04
99.23
100.32
102.51
104.77
104.90
99.56
86.48
66.05
41.95
19.89
5.16
0.41
5.07
15.75
25.86
28.08
16.23
-12.28
-55.52
-107.43
-159.20
-201.48
-227.12
-235.18
-229.82
-218.26
-207.32
-201.89
-205.29
-219.71
-245.54
-268.98
-273.15
-244.61
-183.30
-102.61
-21.85
41.60
77.69
85.96
74.12
51.52
25.98
2.00
-17.09
-26.86
-21.47
4.09
50.14
109.85
168.35
208.42
217.61
193.94
146.48
90.58
41.50
8.67
-6.11
-8.04
-4.83
-2.55
-3.19
-5.26
-6.20
-4.60
-1.28
1.92
3.03
1.42
-1.97
-5.23
-6.39
-4.83
-1.36
2.33
4.68
4.92
3.34
1.12
-0.27
0.16
2.45
5.76
8.84
10.73
11.17
10.55
9.76
9.59
10.36
11.82
13.22
13.77
12.79
10.42
7.01
3.16
-0.68
-4.34
-7.82
-11.26
-14.66
-17.79
-20.14
-21.28
-20.81
-18.67
-15.26
-11.05
-6.57
-2.11
2.30
7.33
12.67
18.12
23.15
26.42
27.34
25.38
20.62
13.93
6.66
0.12
-4.96
-7.76
-9.46
-11.07
-13.45
-17.20
-22.39
-28.49
-34.16
-37.21
-35.43
-27.60
-14.75
-0.27
10.92
14.52
8.75
-4.68
-21.25
-34.88
-40.66
-36.33
-23.04
-5.17
11.10
19.92
18.36
7.06
-9.74
-25.74
-34.74
-32.96
-20.81
-2.16
16.69
29.25
31.03
20.63
0.13
-25.26
-48.53
-62.69
-62.53
-45.93
-15.16
23.45
60.75
87.05
95.26
83.27
54.55
17.32
-18.89
-46.75
-63.01
-67.66
-63.18
-52.55
-38.31
-22.59
-7.36
5.33
14.05
17.88
18.02
16.74
16.40
17.97
20.50
21.79
19.04
10.10
-5.72
-27.07
-50.75
-71.90
-84.73
-85.38
-72.77
-49.71
-22.20
2.82
20.40
29.18
31.41
30.86
30.38
30.45
29.45
25.43
18.07
9.32
2.50
0.37
3.42
9.48
14.86
16.20
11.98
3.51
-5.85
-12.31
-12.95
-6.74
5.59
21.87
38.54
50.70
52.91
41.03
14.90
-19.76
-52.71
-72.65
-72.44
-52.70
-21.20
11.41
36.37
50.44
55.10
53.47
47.74
38.45
25.98
12.18
0.14
-7.36
-9.68
-8.57
-7.10
-7.49
-9.97
-13.42
-16.66
-19.27
-21.86
-24.85
-27.60
-28.80
-27.52
-24.16
-20.25
-16.59
-13.28
-8.73
-0.61
12.41
29.62
48.56
65.83
77.73
83.79
85.28
84.69
84.75
87.63
94.10
103.13
111.78
115.48
109.28
89.67
57.15
17.22
-21.20
-49.31
-62.73
-63.84
-59.64
-58.32
-65.65
-82.21
-103.55
-122.49
-131.98
-127.80
-109.49
-79.92
-44.34
-8.75
21.48
43.50
57.09
64.60
69.10
73.38
79.36
87.97
98.76
109.73
117.31
115.61
101.98
76.64
43.68
9.98
-17.61
-34.95
-41.78
-40.80
-35.70
-28.98
-21.99
-15.26
-9.35
-5.31
-4.19
-6.25
-10.48
-15.38
-19.13
-20.95
-21.34
-21.63
-23.27
-27.21
-33.40
-40.62
-47.06
-51.06
-51.79
-49.35
-44.69
-39.23
-34.32
-30.86
-28.81
-27.80
-27.76
-28.78
-31.10
-35.06
-41.02
-49.17
-59.47
-70.60
-81.36
-91.72
-101.83
-111.85
-121.80
-131.65
-141.55
-152.19
-162.55
-172.38
-183.22
-196.16
-210.93
-225.56
-237.01
-242.01
-238.56
-223.03
-190.37
-143.44
-88.37
-31.75
21.61
69.56
112.62
151.92
192.87
238.59
286.32
331.31
368.91
395.89
411.01
414.99
385.27
315.16
216.61
110.06
13.17
-66.50
-129.15
-177.27
-209.52
-229.79
-236.53
-227.83
-207.49
-180.35
-150.72
-120.23
-97.85
-88.35
-94.73
-112.38
-120.61
-115.35
-98.83
-74.69
-53.55
-38.72
-28.81
-22.63
-15.68
-0.03
26.11
60.59
97.95
132.76
163.82
193.37
221.93
251.88
290.44
339.48
396.46
454.90
508.53
556.00
600.23
641.87
638.01
565.27
431.25
271.19
120.03
-4.63
-98.70
-152.78
-180.16
-191.87
-189.95
-175.94
-152.07
-121.38
-92.99
-68.70
-44.14
-17.16
13.83
52.43
98.58
147.14
187.98
210.08
187.79
115.06
8.10
-102.35
-189.66
-243.94
-269.09
-275.45
-272.17
-263.81
-249.11
-229.09
-207.68
-190.11
-180.82
-180.95
-187.67
-194.37
-193.78
-176.99
-141.85
-93.68
-42.64
0.79
30.32
43.13
42.98
37.40
34.54
38.09
46.69
55.28
57.83
49.40
27.39
-6.76
-47.29
-84.01
-106.21
-107.17
-87.20
-53.13
-15.28
17.07
39.44
52.38
59.48
63.80
65.61
62.93
54.32
41.50
29.86
26.05
33.83
50.44
67.57
74.79
64.55
36.62
-1.65
-38.57
-63.25
-71.54
-66.72
-56.31
-47.42
-43.23
-42.48
-41.84
-38.57
-32.44
-25.88
-21.90
-22.18
-26.27
-32.03
-36.61
-38.61
-37.67
-35.46
-34.54
-37.04
-43.90
-54.84
-68.71
-82.99
-95.30
-102.09
-99.83
-86.36
-62.23
-31.17
0.83
27.69
45.53
53.79
55.03
52.82
50.00
47.79
46.09
44.32
42.28
40.32
38.81
38.03
37.74
37.80
38.05
38.65
39.90
41.81
44.22
46.37
47.78
48.06
47.41
46.47
46.33
48.28
53.09
60.13
66.24
67.60
59.06
37.69
4.47
-35.46
-74.18
-104.28
-121.59
-126.51
-123.14
-117.43
-114.44
-116.63
-123.01
-129.55
-130.57
-120.83
-97.80
-63.14
-22.74
15.68
45.14
62.15
67.48
65.08
59.88
55.81
55.14
58.34
64.60
71.24
73.58
65.72
42.53
2.38
-50.72
-107.41
-155.31
-182.66
-183.15
-157.95
-114.84
-65.07
-19.30
15.43
36.86
46.64
49.32
49.52
50.66
54.49
61.09
69.64
78.70
87.09
89.17
82.99
69.10
50.28
30.56
13.81
2.46
-3.14
-4.34
-3.32
-1.35
0.82
3.20
6.42
11.39
18.98
29.54
42.59
56.81
70.83
83.07
92.57
99.48
104.98
110.54
116.77
122.85
126.60
125.84
119.08
106.49
90.21
73.48
59.72
51.24
48.38
49.27
50.22
46.13
31.67
2.94
-40.78
-95.72
-153.52
-202.61
-231.22
-231.04
-200.47
-145.33
-76.85
-7.99
50.59
92.75
117.68
128.55
130.32
127.12
121.58
114.76
106.14
93.83
74.72
46.68
10.39
-29.98
-68.78
-100.02
-119.20
-124.75
-118.45
-105.31
-90.45
-77.28
-66.98
-61.05
-60.75
-66.21
-76.17
-88.54
-102.54
-117.84
-134.08
-149.84
-164.41
-175.67
-179.61
-171.97
-143.34
-93.87
-34.81
14.24
48.60
69.96
81.05
84.15
81.26
73.91
62.36
47.85
33.27
22.70
17.62
17.56
21.22
27.09
33.84
39.70
43.94
47.25
51.34
56.13
60.46
62.90
62.26
57.86
49.13
36.64
22.31
9.01
-1.58
-8.84
-13.09
-15.43
-17.46
-20.78
-25.67
-30.46
-31.98
-27.53
-16.18
0.49
18.65
33.63
41.71
41.73
35.36
26.02
17.04
10.39
6.46
4.51
3.66
3.46
3.95
5.29
7.18
8.77
8.87
6.51
1.52
-5.42
-13.26
-21.36
-29.89
-39.68
-51.33
-64.17
-75.85
-82.98
-82.61
-73.79
-58.25
-39.71
-22.23
-8.60
0.54
6.29
10.37
14.01
17.48
20.39
22.40
23.70
24.95
26.80
29.37
32.09
33.89
33.80
31.43
27.15
21.91
16.85
12.87
10.34
9.11
8.63
8.32
7.72
6.69
5.34
3.95
2.79
2.01
1.61
1.49
1.52
1.66
1.89
2.23
2.64
2.98
3.09
2.77
1.95
0.70
-0.80
-2.31
-3.68
-4.99
-6.47
-8.37
-10.73
-13.25
-15.35
-16.36
-15.87
-13.88
-10.86
-7.48
-4.33
-1.69
0.48
2.41
4.28
6.13
7.85
9.27
10.28
10.88
11.13
11.08
10.76
10.14
9.21
7.95
6.41
4.67
2.81
0.97
-0.74
-2.17
-3.22
-3.86
-4.15
-4.22
-4.27
-4.47
-4.91
-5.58
-6.37
-7.12
-7.68
-7.96
-7.95
-7.67
-7.17
-6.52
-5.79
-5.07
-4.48
-4.17
-4.23
-4.65
-5.28
-5.83
-5.98
-5.56
-4.56
-3.15
-1.60
-0.14
1.11
2.17
3.11
3.94
4.62
5.00
4.98
4.56
3.89
3.24
2.90
3.10
3.90
5.22
6.87
8.59
10.17
11.45
12.34
12.78
12.75
12.28
11.45
10.37
9.22
8.12
7.16
6.30
5.45
4.51
3.41
2.18
0.92
-0.25
-1.22
-1.98
-2.55
-3.01
-3.46
-3.95
-4.51
-5.11
-5.69
-6.14
-6.40
-6.42
-6.25
-5.98
-5.76
-5.70
-5.81
-5.96
-5.97
-5.70
-5.07
-4.18
-3.23
-2.43
-1.88
-1.60
-1.48
-1.43
-1.36
-1.25
-1.09
-0.86
-0.52
-0.01
0.66
1.42
2.15
2.72
3.08
3.27
3.41
3.61
3.96
4.41
4.88
5.22
5.35
5.21
4.84
4.33
3.80
3.38
3.13
3.02
2.95
2.78
2.40
1.77
1.00
0.25
-0.35
-0.76
-1.06
-1.42
-1.95
-2.62
-3.27
-3.64
-3.59
-3.07
-2.23
-1.32
-0.51
0.07
0.44
0.61
0.60
0.38
-0.09
-0.79
-1.58
-2.27
-2.68
-2.72
-2.40
-1.86
-1.25
-0.72
-0.35
-0.14
-0.08
-0.12
-0.23
-0.41
-0.64
-0.89
-1.11
-1.25
-1.28
-1.23
-1.16
-1.13
-1.15
-1.10
-0.87
-0.36
0.40
1.25
1.93
2.23
2.03
1.36
0.43
-0.50
-1.17
-1.37
-1.00
-0.04
1.40
3.08
4.73
6.08
6.94
7.34
7.43
7.44
7.57
7.86
8.25
8.58
8.73
8.65
8.41
8.10
7.76
7.39
6.94
6.37
5.65
4.84
3.97
3.13
2.35
1.70
1.21
0.91
0.77
0.75
0.80
0.89
1.05
1.29
1.62
1.96
2.22
2.30
2.15
1.81
1.38
0.91
0.44
-0.06
-0.59
-1.12
-1.55
-1.78
-1.76
-1.50
-1.08
-0.61
-0.16
0.20
0.43
0.53
0.52
0.50
0.54
0.65
0.78
0.78
0.53
-0.02
-0.75
-1.45
-1.92
-2.11
-2.06
-1.93
-1.86
-1.91
-2.03
-2.16
-2.25
-2.33
-2.47
-2.68
-2.94
-3.17
-3.30
-3.35
-3.36
-3.46
-3.71
-4.15
-4.70
-5.27
-5.77
-6.18
-6.51
-6.80
-7.03
-7.14
-7.04
-6.67
-6.04
-5.26
-4.44
-3.69
-3.08
-2.55
-2.03
-1.45
-0.79
-0.09
0.54
0.99
1.21
1.22
1.12
1.06
1.17
1.47
1.84
2.11
2.14
1.87
1.37
0.77
0.22
-0.20
-0.50
-0.68
-0.80
-0.85
-0.84
-0.78
-0.69
-0.61
-0.56
-0.54
-0.57
-0.65
-0.82
-1.08
-1.40
-1.71
-1.96
-2.09
-2.10
-1.95
-1.64
-1.13
-0.41
0.48
1.41
2.18
2.62
2.60
2.15
1.41
0.63
0.02
-0.28
-0.27
-0.04
0.28
0.58
0.83
1.03
1.16
1.21
1.13
0.88
0.50
0.09
-0.20
-0.28
-0.12
0.19
0.45
0.49
0.20
-0.39
-1.12
-1.79
-2.22
-2.37
-2.32
-2.19
-2.09
-2.10
-2.19
-2.27
-2.27
-2.09
-1.69
-1.06
-0.27
0.59
1.37
1.91
2.09
1.89
1.40
0.79
0.27
0.03
0.14
0.54
1.08
1.55
1.78
1.67
1.26
0.69
0.16
-0.09
0.06
0.59
1.31
1.83
1.74
0.67
-1.47
-4.43
-7.71
-10.67
-12.74
-13.67
-13.49
-12.52
-11.14
-9.64
-8.12
-6.53
-4.78
-2.84
-0.80
1.09
2.64
3.64
4.02
3.79
3.04
1.88
0.52
-0.81
-1.86
-2.37
-2.20
-1.33
0.15
2.04
4.11
6.16
8.01
9.55
10.71
11.45
11.75
11.62
11.07
10.20
9.07
7.77
6.36
4.90
3.42
1.97
0.66
-0.46
-1.34
-2.00
-2.48
-2.87
-3.24
-3.62
-4.05
-4.53
-5.02
-5.44
-5.66
-5.53
-4.98
-4.02
-2.78
-1.43
-0.16
0.91
1.72
2.26
2.54
2.62
2.58
2.48
2.41
2.35
2.26
2.08
1.78
1.45
1.20
1.16
1.35
1.67
1.92
1.90
1.53
0.83
-0.00
-0.77
-1.28
-1.48
-1.39
-1.11
-0.75
-0.39
-0.05
0.23
0.42
0.44
0.23
-0.26
-0.94
-1.67
-2.27
-2.64
-2.71
-2.53
-2.13
-1.51
-0.62
0.60
2.10
3.74
5.26
6.44
7.19
7.53
7.59
7.48
7.25
6.84
6.23
5.44
4.57
3.77
3.13
2.65
2.23
1.78
1.25
0.67
0.13
-0.29
-0.59
-0.84
-1.09
-1.37
-1.61
-1.71
-1.61
-1.30
-0.92
-0.61
-0.51
-0.68
-1.11
-1.70
-2.38
-3.08
-3.78
-4.48
-5.17
-5.83
-6.41
-6.87
-7.17
-7.24
-7.03
-6.52
-5.72
-4.72
-3.64
-2.62
-1.74
-1.04
-0.52
-0.18
-0.02
-0.05
-0.27
-0.64
-1.06
-1.45
-1.75
-1.94
-2.05
-2.14
-2.29
-2.54
-2.96
-3.52
-4.19
-4.84
-5.34
-5.56
-5.39
-4.85
-3.98
-2.88
-1.64
-0.32
1.02
2.30
3.41
4.20
4.55
4.47
4.04
3.42
2.79
2.25
1.82
1.43
1.03
0.60
0.20
-0.07
-0.14
-0.02
0.26
0.64
1.07
1.53
2.02
2.52
2.94
3.21
3.28
3.14
2.84
2.44
2.06
1.79
1.71
1.86
2.25
2.79
3.34
3.75
3.92
3.84
3.55
3.13
2.61
2.00
1.32
0.66
0.13
-0.18
-0.25
-0.16
-0.03
0.04
0.04
0.01
-0.03
-0.07
-0.15
-0.33
-0.63
-1.05
-1.51
-2.00
-2.48
-2.93
-3.31
-3.57
-3.71
-3.73
-3.68
-3.58
-3.47
-3.31
-3.07
-2.74
-2.35
-1.94
-1.58
-1.28
-1.03
-0.79
-0.56
-0.35
-0.23
-0.22
-0.35
-0.62
-0.98
-1.38
-1.76
-2.09
-2.40
-2.74
-3.13
-3.56
-3.95
-4.17
-4.08
-3.64
-2.87
-1.90
-0.85
0.21
1.25
2.30
3.37
4.44
5.38
6.11
6.54
6.67
6.52
6.15
5.58
4.78
3.74
2.52
1.25
0.13
-0.72
-1.27
-1.66
-2.03
-2.48
-2.92
-3.09
-2.77
-1.85
-0.45
1.14
2.56
3.57
4.14
4.40
4.61
4.96
5.55
6.33
7.15
7.81
8.22
8.38
8.45
8.67
9.27
10.35
11.82
13.39
14.63
15.13
14.62
13.10
10.87
8.42
6.32
4.98
4.58
4.90
5.45
5.49
4.36
1.73
-2.17
-6.43
-9.74
-10.75
-8.57
-3.10
4.97
14.38
23.83
32.39
39.83
46.61
53.57
61.44
70.45
80.16
89.70
98.08
104.56
108.72
110.38
109.42
105.87
100.08
93.05
86.26
81.16
78.38
77.14
75.20
69.52
57.29
36.87
8.10
-27.80
-68.72
-111.96
-154.33
-192.23
-221.89
-240.08
-245.06
-237.17
-218.92
-194.22
-167.23
-141.20
-117.92
-97.76
-80.31
-64.99
-51.43
-39.43
-28.65
-18.48
-8.16
2.88
14.57
26.05
35.84
42.45
44.93
43.31
38.65
32.59
26.80
22.48
20.13
19.63
20.61
22.60
25.20
28.04
30.71
32.73
33.65
33.15
31.23
28.17
24.56
21.08
18.33
16.61
15.88
15.70
15.49
14.73
13.16
10.91
8.34
5.90
3.95
2.72
2.36
3.01
4.71
7.40
10.80
14.46
17.87
20.58
22.21
22.41
20.91
17.55
12.55
6.66
1.07
-2.98
-4.69
-4.05
-1.75
1.35
4.70
8.34
12.69
18.06
24.31
30.85
36.94
42.06
45.96
48.29
48.11
43.80
33.61
16.76
-5.78
-31.04
-54.97
-73.80
-85.42
-89.81
-88.73
-84.62
-79.58
-74.74
-70.37
-66.35
-62.64
-59.36
-56.66
-54.50
-52.77
-51.59
-51.72
-54.55
-61.73
-74.20
-91.23
-110.14
-127.02
-138.29
-142.14
-139.17
-131.78
-122.68
-113.31
-102.87
-88.63
-67.67
-38.82
-3.64
33.96
69.19
98.04
118.38
130.55
136.78
139.49
140.01
138.33
133.67
125.57
113.89
98.07
76.95
49.09
13.53
-29.02
-74.88
-117.52
-149.66
-166.70
-168.55
-158.42
-139.65
-113.71
-79.98
-37.03
15.73
76.43
140.51
198.57
237.92
251.02
241.64
221.83
202.97
189.86
180.12
166.22
139.85
96.96
40.16
-22.34
-80.86
-128.04
-160.25
-176.75
-178.00
-164.32
-135.81
-94.06
-44.36
3.90
40.28
58.16
57.83
45.92
31.79
23.36
24.36
34.01
47.64
59.73
66.28
65.56
57.83
44.63
28.19
11.09
-4.23
-15.03
-19.84
-18.75
-13.20
-5.73
0.88
4.61
4.74
2.25
-1.21
-3.78
-4.05
-1.59
2.85
7.60
10.76
10.87
7.59
1.70
-5.32
-11.84
-16.81
-19.89
-21.47
-22.28
-22.99
-23.98
-25.37
-27.12
-29.06
-31.07
-32.84
-33.98
-34.04
-32.73
-30.04
-26.30
-22.06
-17.43
-12.78
-8.31
-4.08
-0.13
3.44
6.43
8.65
10.03
10.65
10.63
10.16
9.38
8.38
7.21
5.95
4.73
3.71
2.99
2.53
2.24
2.02
1.79
1.55
1.32
1.16
1.09
1.10
1.11
1.06
0.94
0.77
0.60
0.50
0.53
0.74
1.14
1.68
2.30
2.88
3.29
3.44
3.31
2.93
2.38
1.73
1.06
0.40
-0.17
-0.62
-0.91
-1.04
-1.03
-0.95
-0.88
-0.90
-1.08
-1.46
-2.02
-2.67
-3.24
-3.51
-3.31
-2.62
-1.58
-0.43
0.58
1.31
1.73
1.94
2.02
2.04
1.99
1.84
1.62
1.38
1.21
1.18
1.27
1.39
1.44
1.36
1.17
0.98
0.89
0.92
0.96
0.89
0.60
0.13
-0.39
-0.71
-0.70
-0.35
0.16
0.57
0.66
0.35
-0.30
-1.11
-1.88
-2.46
-2.75
-2.75
-2.50
-2.06
-1.51
-0.94
-0.39
0.08
0.46
0.76
0.99
1.18
1.36
1.58
1.84
2.16
2.47
2.66
2.66
2.42
2.03
1.65
1.47
1.58
1.98
2.48
2.85
2.93
2.64
2.06
1.39
0.83
0.49
0.38
0.39
0.39
0.29
0.10
-0.10
-0.20
-0.16
-0.08
-0.10
-0.34
-0.80
-1.35
-1.77
-1.90
-1.70
-1.22
-0.61
0.00
0.51
0.88
1.13
1.31
1.46
1.64
1.84
2.01
2.07
1.99
1.78
1.54
1.40
1.45
1.67
1.95
2.14
2.17
2.05
1.87
1.73
1.67
1.66
1.67
1.62
1.52
1.40
1.26
1.13
0.98
0.76
0.48
0.14
-0.19
-0.45
-0.59
-0.63
-0.60
-0.54
-0.48
-0.38
-0.17
0.22
0.80
1.50
2.18
2.68
2.91
2.85
2.60
2.28
1.99
1.81
1.74
1.79
1.93
2.12
2.31
2.47
2.55
2.54
2.46
2.29
2.06
1.77
1.47
1.21
1.03
0.95
0.91
0.88
0.81
0.72
0.66
0.68
0.79
0.95
1.10
1.21
1.25
1.25
1.17
0.98
0.68
0.29
-0.07
-0.28
-0.29
-0.13
0.07
0.20
0.22
0.22
0.36
0.74
1.37
2.11
2.82
3.33
3.60
3.63
3.44
3.01
2.37
1.56
0.73
0.04
-0.35
-0.39
-0.16
0.15
0.36
0.35
0.12
-0.27
-0.70
-1.07
-1.32
-1.42
-1.38
-1.22
-1.00
-0.79
-0.65
-0.63
-0.76
-1.02
-1.39
-1.83
-2.26
-2.61
-2.80
-2.81
-2.65
-2.40
-2.15
-1.94
-1.74
-1.51
-1.16
-0.67
-0.07
0.57
1.17
1.67
2.07
2.38
2.60
2.74
2.79
2.75
2.60
2.38
2.11
1.85
1.62
1.46
1.36
1.30
1.24
1.17
1.07
0.95
0.83
0.70
0.55
0.37
0.15
-0.12
-0.45
-0.80
-1.11
-1.32
-1.40
-1.34
-1.21
-1.11
-1.12
-1.28
-1.54
-1.80
-1.96
-1.96
-1.83
-1.66
-1.57
-1.66
-1.89
-2.19
-2.41
-2.44
-2.20
-1.72
-1.06
-0.30
0.50
1.28
2.04
2.79
3.48
4.07
4.47
4.61
4.47
4.09
3.59
3.10
2.69
2.38
2.11
1.85
1.60
1.43
1.38
1.42
1.46
1.41
1.18
0.81
0.39
0.04
-0.17
-0.25
-0.27
-0.35
-0.53
-0.81
-1.10
-1.29
-1.30
-1.15
-0.90
-0.67
-0.56
-0.55
-0.56
-0.50
-0.33
-0.08
0.14
0.28
0.37
0.54
0.91
1.50
2.20
2.80
3.12
3.11
2.87
2.60
2.46
2.47
2.53
2.43
2.07
1.46
0.75
0.13
-0.23
-0.33
-0.26
-0.16
-0.15
-0.25
-0.40
-0.50
-0.50
-0.42
-0.33
-0.30
-0.34
-0.44
-0.54
-0.64
-0.71
-0.77
-0.83
-0.89
-0.95
-1.02
-1.09
-1.15
-1.20
-1.23
-1.24
-1.30
-1.44
-1.69
-1.99
-2.25
-2.35
-2.24
-1.97
-1.62
-1.28
-0.99
-0.70
-0.35
0.11
0.63
1.10
1.41
1.52
1.46
1.32
1.16
0.96
0.70
0.33
-0.08
-0.45
-0.64
-0.62
-0.46
-0.29
-0.26
-0.44
-0.77
-1.14
-1.44
-1.61
-1.68
-1.70
-1.72
-1.71
-1.64
-1.47
-1.23
-0.96
-0.75
-0.65
-0.68
-0.80
-0.95
-1.05
-1.08
-1.04
-0.95
-0.84
-0.75
-0.68
-0.66
-0.67
-0.69
-0.71
-0.66
-0.54
-0.32
-0.07
0.15
0.27
0.26
0.20
0.17
0.28
0.54
0.91
1.29
1.54
1.58
1.40
1.06
0.63
0.23
-0.08
-0.29
-0.42
-0.50
-0.58
-0.70
-0.83
-0.95
-1.00
-0.97
-0.89
-0.79
-0.73
-0.74
-0.80
-0.90
-0.99
-1.05
-1.08
-1.09
-1.10
-1.12
-1.19
-1.30
-1.42
-1.49
-1.44
-1.22
-0.84
-0.38
0.06
0.37
0.53
0.54
0.48
0.42
0.41
0.46
0.58
0.78
1.07
1.40
1.67
1.77
1.61
1.19
0.62
0.06
-0.34
-0.51
-0.51
-0.46
-0.47
-0.58
-0.77
-0.98
-1.14
-1.24
-1.30
-1.30
-1.23
-1.08
-0.87
-0.62
-0.42
-0.32
-0.35
-0.50
-0.74
-1.03
-1.28
-1.39
-1.30
-0.97
-0.46
0.11
0.62
0.97
1.19
1.33
1.43
1.50
1.54
1.55
1.52
1.48
1.44
1.38
1.27
1.10
0.92
0.76
0.67
0.62
0.56
0.44
0.22
-0.04
-0.27
-0.42
-0.47
-0.45
-0.40
-0.34
-0.29
-0.28
-0.36
-0.59
-1.03
-1.67
-2.41
-3.08
-3.47
-3.45
-3.02
-2.33
-1.58
-0.99
-0.66
-0.53
-0.49
-0.36
-0.07
0.36
0.85
1.29
1.61
1.82
1.93
1.96
1.88
1.65
1.26
0.73
0.16
-0.31
-0.56
-0.50
-0.17
0.31
0.81
1.19
1.37
1.32
1.03
0.56
0.01
-0.52
-0.89
-1.01
-0.89
-0.59
-0.27
-0.05
-0.01
-0.15
-0.38
-0.62
-0.79
-0.92
-1.03
-1.14
-1.22
-1.18
-0.98
-0.64
-0.25
0.01
0.01
-0.33
-0.91
-1.52
-1.90
-1.91
-1.53
-0.90
-0.25
0.20
0.35
0.19
-0.16
-0.53
-0.77
-0.85
-0.80
-0.72
-0.70
-0.71
-0.71
-0.61
-0.39
-0.13
0.03
-0.01
-0.29
-0.68
-1.03
-1.20
-1.20
-1.15
-1.24
-1.58
-2.15
-2.84
-3.47
-3.91
-4.14
-4.19
-4.16
-4.12
-4.17
-4.37
-4.77
-5.36
-6.04
-6.62
-6.85
-6.58
-5.74
-4.57
-3.46
-2.79
-2.70
-2.94
-2.93
-1.98
0.47
4.58
10.02
16.12
22.27
28.05
33.16
37.22
39.74
40.31
39.09
36.91
35.15
35.28
38.11
43.31
49.47
54.79
57.99
58.82
57.72
55.27
51.80
47.19
41.19
33.85
25.75
17.43
10.11
4.33
-1.07
-8.57
-20.15
-35.74
-52.99
-68.32
-78.63
-82.52
-80.81
-75.75
-69.64
-63.83
-58.52
-53.29
-47.82
-42.20
-36.88
-32.44
-29.23
-27.05
-25.31
-23.32
-20.68
-17.47
-14.11
-11.08
-8.80
-7.40
-6.67
-6.13
-5.34
-4.07
-2.42
-0.67
0.84
1.86
2.34
2.45
2.45
2.61
3.04
3.68
4.37
4.93
5.26
5.35
5.27
5.14
5.09
5.16
5.32
5.52
5.68
5.79
5.85
5.88
5.91
5.98
6.09
6.25
6.46
6.60
6.79
7.01
7.27
7.58
7.93
8.32
8.75
9.24
9.76
10.34
10.97
11.66
12.40
13.22
14.12
15.08
16.09
17.10
18.15
19.26
20.47
21.80
23.20
24.51
25.52
25.97
25.50
24.08
21.67
18.35
14.26
9.58
4.47
-0.96
-6.21
-11.38
-16.22
-20.43
-23.71
-25.84
-26.78
-26.76
-26.42
-26.12
-26.33
-27.08
-28.17
-29.09
-29.29
-28.59
-27.25
-25.99
-25.68
-26.96
-29.73
-33.31
-36.46
-38.09
-37.77
-36.00
-34.08
-33.44
-35.12
-38.49
-42.01
-43.43
-40.99
-34.43
-25.02
-15.30
-7.82
-4.12
-4.36
-8.05
-14.36
-22.67
-31.81
-39.18
-41.05
-34.49
-19.82
-1.16
13.45
17.95
11.69
0.21
-7.74
-5.39
8.05
27.08
44.07
53.25
54.01
50.14
46.53
45.64
46.91
47.31
44.12
36.78
27.08
18.00
11.87
9.28
9.05
8.98
7.12
2.70
-3.61
-10.20
-15.21
-17.50
-17.01
-14.80
-12.29
-10.61
-10.16
-10.34
-10.22
-8.87
-5.88
-1.55
3.25
7.52
10.52
12.03
12.36
11.99
11.37
10.69
9.91
8.85
7.51
6.14
5.20
5.34
6.79
9.33
12.33
15.02
16.80
17.53
17.59
17.72
18.88
21.31
24.54
27.61
29.50
29.62
28.21
26.27
25.22
26.71
31.01
37.23
43.60
48.48
50.80
50.61
49.00
47.57
48.49
53.00
61.72
74.50
89.91
104.60
113.51
111.21
91.01
55.31
11.57
-30.19
-61.48
-78.33
-82.35
-78.84
-73.46
-69.39
-66.00
-61.56
-54.78
-46.34
-38.23
-32.89
-31.85
-35.01
-41.29
-47.53
-51.85
-53.83
-54.68
-56.12
-59.89
-66.86
-76.86
-88.98
-102.04
-115.54
-126.74
-134.53
-135.79
-126.79
-105.39
-73.04
-35.09
1.16
29.10
45.56
51.20
49.85
45.63
41.07
36.62
31.67
25.98
20.28
16.00
14.03
14.57
16.66
18.92
19.98
19.71
18.44
17.29
17.53
19.86
24.38
30.36
36.61
41.85
45.27
46.61
46.42
45.75
45.60
46.80
49.55
53.55
58.07
62.25
65.47
67.60
69.12
70.63
72.65
75.31
79.12
84.80
93.09
103.94
115.70
124.76
125.95
114.82
90.05
55.10
17.16
-15.79
-38.35
-49.31
-51.06
-48.21
-43.91
-40.65
-39.81
-42.57
-50.70
-66.38
-90.77
-119.01
-143.12
-155.35
-152.52
-137.09
-114.72
-91.01
-69.61
-51.98
-37.62
-25.79
-16.11
-8.46
-2.73
1.51
4.89
7.97
11.26
15.20
19.63
23.92
27.50
30.03
31.64
32.77
33.89
35.41
37.54
39.94
41.18
40.70
37.94
32.74
25.47
16.81
7.63
-1.27
-8.30
-14.18
-19.60
-25.21
-31.24
-37.42
-43.03
-47.13
-49.04
-48.66
-46.89
-44.91
-44.07
-45.24
-48.40
-52.65
-56.57
-59.05
-59.49
-58.46
-56.96
-56.18
-57.07
-60.27
-66.13
-74.47
-83.93
-91.48
-92.97
-84.37
-64.01
-34.05
-0.16
30.47
52.12
62.69
64.00
60.00
54.51
49.45
44.75
39.56
33.46
27.22
22.16
19.21
18.18
17.83
16.68
13.48
8.19
1.69
-4.59
-9.35
-11.92
-12.53
-12.01
-11.31
-11.06
-10.96
-10.34
-8.23
-3.87
2.94
11.69
21.34
30.77
38.49
44.36
48.46
51.20
53.00
54.18
54.76
54.57
53.74
51.93
49.31
46.20
43.07
40.31
38.08
36.52
34.96
32.84
29.68
25.50
20.65
15.78
11.59
8.52
6.57
5.23
3.82
1.76
-0.94
-3.70
-5.49
-5.25
-2.42
2.73
9.11
15.31
20.11
23.07
24.59
25.64
27.34
30.53
35.59
42.42
50.34
57.73
62.04
60.26
50.02
31.09
6.09
-19.98
-41.43
-54.23
-57.46
-53.40
-45.94
-38.63
-33.16
-29.23
-25.60
-21.32
-16.54
-12.28
-9.44
-8.06
-7.08
-4.92
-0.42
6.35
14.04
20.63
24.42
24.89
22.96
20.43
19.17
20.35
24.03
29.79
37.02
45.32
54.78
65.82
78.88
93.66
109.03
123.10
133.63
138.78
137.87
131.77
122.46
112.12
101.67
90.51
76.75
57.90
31.70
-3.18
-46.27
-94.60
-142.17
-180.95
-202.11
-198.91
-169.82
-120.15
-60.76
-4.25
39.61
66.74
77.53
76.63
70.24
63.66
60.15
61.27
67.97
81.01
100.22
120.57
135.82
140.28
130.49
106.13
70.27
28.80
-11.44
-45.19
-75.33
-106.58
-142.64
-184.55
-231.01
-279.50
-327.26
-372.47
-414.92
-461.15
-514.03
-569.82
-619.50
-654.61
-672.46
-676.97
-675.78
-638.30
-550.57
-417.44
-259.64
-100.21
43.00
157.46
237.02
283.28
305.00
308.34
300.38
286.87
271.61
257.48
244.64
234.07
227.85
228.22
231.73
235.88
239.64
243.70
248.81
254.64
260.51
265.95
271.37
270.44
261.22
245.40
227.23
210.98
198.83
190.69
184.64
178.03
167.11
150.50
128.86
104.52
80.34
58.66
40.96
27.25
15.81
2.72
-15.92
-43.14
-79.59
-122.90
-168.14
-209.17
-240.44
-258.57
-263.29
-257.25
-246.11
-237.62
-239.92
-259.07
-296.48
-347.36
-401.26
-445.11
-467.53
-463.05
-433.64
-387.09
-332.95
-278.93
-228.82
-182.70
-138.70
-94.88
-50.40
-5.47
39.38
84.39
129.64
174.43
217.01
254.95
285.96
308.47
322.15
327.86
328.41
326.35
323.20
319.50
315.40
311.41
307.98
305.23
302.47
300.14
297.70
293.81
287.18
277.57
266.52
255.95
247.09
239.79
235.29
233.46
232.51
229.11
219.55
201.50
173.67
136.07
75.81
-7.71
-103.36
-194.43
-268.35
-319.92
-346.57
-348.53
-325.93
-280.74
-216.60
-141.48
-65.53
2.79
50.75
70.94
64.27
38.74
4.27
-29.72
-58.22
-80.10
-96.38
-107.80
-115.07
-117.86
-116.15
-111.31
-104.29
-96.30
-88.55
-81.96
-76.81
-72.15
-66.72
-60.00
-52.72
-45.58
-39.25
-34.08
-30.03
-26.87
-23.72
-19.76
-14.80
-9.48
-4.40
0.06
3.87
7.24
10.42
13.87
18.03
22.93
28.34
33.96
39.61
45.19
50.62
55.76
60.62
65.18
69.31
72.89
75.93
78.38
80.00
80.42
79.27
76.60
72.76
68.36
64.05
60.26
56.92
53.61
50.13
46.02
42.16
39.47
37.39
33.15
24.11
9.77
-7.84
-24.99
-38.06
-45.19
-47.30
-47.31
-48.43
-52.62
-60.24
-70.63
-82.67
-95.04
-105.95
-113.19
-114.37
-107.68
-92.68
-70.68
-44.43
-17.01
8.98
31.91
50.86
65.45
75.62
81.63
84.10
84.09
83.13
83.11
85.78
92.19
102.20
114.23
125.51
132.67
132.54
123.04
103.80
76.31
43.57
9.30
-23.02
-50.81
-72.82
-89.14
-100.76
-109.16
-115.87
-122.27
-129.38
-137.91
-148.14
-160.01
-173.04
-186.41
-198.95
-209.17
-215.46
-216.47
-211.61
-201.41
-187.47
-172.12
-157.52
-145.04
-134.80
-125.87
-116.73
-105.93
-92.60
-76.70
-58.90
-40.31
-22.28
-6.14
6.89
15.69
19.41
17.65
10.63
-0.58
-14.06
-27.32
-37.68
-42.92
-41.78
-34.30
-21.69
-5.89
11.13
28.03
44.50
61.04
78.46
97.16
116.75
136.06
153.56
167.92
178.36
184.71
187.13
185.93
181.35
173.66
163.22
150.56
136.31
121.09
105.44
89.88
75.02
61.70
50.84
43.32
39.63
39.69
42.76
47.77
53.81
60.53
68.34
78.18
90.95
106.93
125.46
144.98
163.27
177.95
186.75
187.72
179.49
161.61
134.84
101.37
64.47
27.69
-6.15
-35.73
-61.35
-84.46
-106.62
-128.68
-150.32
-170.33
-187.19
-199.83
-207.89
-211.60
-211.48
-208.08
-202.05
-194.42
-186.75
-180.92
-178.50
-180.19
-185.51
-193.24
-202.22
-211.95
-222.58
-234.32
-246.55
-257.45
-264.42
-265.03
-258.00
-243.69
-223.78
-200.45
-175.58
-150.24
-124.77
-99.19
-73.53
-48.03
-23.22
0.18
21.37
39.85
55.86
70.84
87.29
107.86
133.93
164.29
194.89
219.97
234.13
234.27
220.52
195.65
163.55
127.92
91.74
57.62
28.38
7.02
-3.95
-3.51
7.27
25.41
46.90
67.81
85.21
97.43
104.09
105.87
104.13
100.46
96.17
92.06
88.27
84.68
81.12
77.60
74.24
71.01
67.52
63.09
57.01
49.00
39.57
29.99
21.89
16.65
14.68
15.23
16.66
17.15
15.44
11.35
5.72
-0.09
-4.87
-8.08
-9.78
-10.40
-10.25
-9.47
-8.07
-6.32
-4.85
-4.41
-5.49
-7.88
-10.72
-12.84
-13.39
-12.21
-9.77
-6.76
-3.53
0.11
4.69
10.68
18.02
26.02
33.72
40.25
45.21
48.69
51.19
53.22
55.14
56.91
58.06
57.81
55.29
49.92
41.65
31.06
19.29
7.76
-2.15
-9.37
-13.29
-13.84
-11.48
-7.16
-2.21
1.88
3.79
2.74
-1.27
-7.43
-14.30
-20.18
-23.51
-23.28
-19.18
-11.73
-2.07
8.24
17.69
25.19
30.37
33.60
35.76
37.80
40.31
43.26
46.01
47.54
46.83
43.21
36.57
27.48
17.06
6.73
-2.16
-8.67
-12.51
-14.03
-14.09
-13.77
-14.03
-15.56
-18.55
-22.63
-26.85
-29.88
-30.32
-27.17
-20.18
-9.99
2.01
14.20
25.33
34.90
43.26
51.34
60.13
70.16
81.23
92.41
102.33
109.59
113.17
112.60
108.03
100.03
89.45
77.20
64.05
50.49
36.65
22.23
6.54
-11.22
-31.66
-54.79
-79.69
-104.59
-127.26
-145.61
-158.32
-165.15
-166.83
-164.64
-159.82
-153.17
-144.92
-134.90
-122.88
-108.96
-93.75
-78.36
-64.20
-52.72
-45.10
-42.09
-43.91
-50.28
-60.36
-72.72
-85.29
-95.69
-101.73
-102.18
-97.31
-88.84
-79.34
-71.10
-65.05
-60.30
-54.46
-44.53
-28.06
-4.00
27.08
63.23
101.76
139.76
174.55
203.85
225.94
239.82
245.22
242.57
232.59
215.85
192.46
162.30
125.76
84.55
42.02
2.53
-29.99
-53.41
-68.13
-76.50
-81.37
-84.56
-86.35
-85.89
-82.47
-76.56
-69.88
-64.70
-62.70
-64.34
-69.17
-76.50
-86.08
-98.00
-112.02
-126.80
-139.68
-147.42
-147.44
-138.87
-122.95
-102.44
-80.50
-59.69
-41.50
-26.42
-14.36
-4.96
2.31
8.22
13.66
19.42
25.93
33.03
40.08
46.25
51.01
54.44
57.26
60.48
64.99
71.09
78.29
85.49
91.31
94.56
94.52
91.01
84.36
75.21
64.34
52.47
40.25
28.18
16.64
5.98
-3.45
-11.21
-16.84
-20.00
-20.60
-18.94
-15.72
-11.93
-8.57
-6.44
-5.93
-7.04
-9.42
-12.61
-16.21
-19.98
-23.84
-27.73
-31.57
-35.08
-37.88
-39.53
-39.67
-38.06
-34.71
-29.85
-23.90
-17.41
-11.03
-5.33
-0.75
2.52
4.52
5.47
5.63
5.18
4.23
2.89
1.33
-0.20
-1.39
-1.98
-1.88
-1.10
0.20
1.85
3.69
5.50
7.05
8.08
8.35
7.78
6.46
4.61
2.52
0.38
-1.68
-3.60
-5.18
-6.15
-6.11
-4.79
-2.11
1.67
6.01
10.28
13.89
16.45
17.82
18.11
17.53
16.33
14.74
12.86
10.73
8.37
5.82
3.24
0.87
-1.05
-2.38
-3.13
-3.49
-3.73
-4.13
-4.83
-5.80
-6.85
-7.66
-7.89
-7.23
-5.51
-2.80
0.61
4.17
7.22
9.22
9.92
9.54
8.69
8.09
8.23
9.13
10.35
11.23
11.33
10.68
9.73
9.14
9.40
10.60
12.45
14.44
16.05
16.93
16.86
15.73
13.54
10.41
6.63
2.62
-1.18
-4.43
-6.88
-8.35
-8.65
-7.64
-5.33
-2.07
1.42
4.19
5.39
4.50
1.55
-2.94
-8.11
-12.98
-16.57
-18.09
-17.07
-13.49
-7.89
-1.21
5.43
11.08
15.25
17.97
19.55
20.37
20.61
20.28
19.26
17.50
15.02
11.80
7.77
2.77
-3.26
-10.03
-16.82
-22.59
-26.25
-27.05
-24.89
-20.37
-14.68
-9.23
-5.24
-3.43
-3.77
-5.57
-7.71
-9.15
-9.28
-8.13
-6.28
-4.60
-3.86
-4.54
-6.71
-10.06
-13.99
-17.67
-20.17
-20.72
-18.81
-14.48
-8.23
-0.95
6.34
12.73
17.55
20.39
21.07
19.65
16.46
12.06
7.16
2.48
-1.42
-4.27
-6.06
-6.89
-6.87
-6.09
-4.63
-2.76
-0.92
0.36
0.66
-0.08
-1.49
-2.96
-3.83
-3.78
-2.87
-1.54
-0.34
0.31
0.24
-0.45
-1.45
-2.34
-2.71
-2.19
-0.59
2.09
5.59
9.40
12.89
15.49
16.81
16.76
15.59
13.71
11.66
9.88
8.71
8.22
8.31
8.64
8.69
7.90
5.84
2.38
-2.22
-7.33
-12.19
-16.07
-18.55
-19.54
-19.19
-17.81
-15.67
-13.00
-10.01
-6.87
-3.76
-0.85
1.75
3.91
5.50
6.38
6.42
5.65
4.29
2.74
1.43
0.60
0.22
-0.07
-0.71
-2.06
-4.18
-6.84
-9.63
-12.13
-14.03
-15.10
-15.13
-13.90
-11.24
-7.20
-2.08
3.49
8.81
13.23
16.35
18.03
18.30
17.26
15.08
12.06
8.65
5.51
3.42
3.03
4.69
8.39
13.74
20.15
26.88
33.12
38.01
40.64
40.24
36.41
29.39
20.13
10.01
0.45
-7.71
-14.41
-20.36
-26.55
-33.75
-42.15
-51.36
-60.58
-68.87
-75.39
-79.38
-80.18
-77.30
-70.53
-60.12
-46.90
-32.10
-17.09
-3.04
9.31
19.68
28.11
34.80
39.95
43.70
46.18
47.58
48.15
48.23
48.08
47.83
47.39
46.45
44.62
41.57
37.23
31.80
25.70
19.47
13.55
8.26
3.74
0.02
-2.96
-5.31
-7.24
-9.05
-11.06
-13.50
-16.48
-19.91
-23.54
-27.06
-30.16
-32.67
-34.49
-35.64
-36.20
-36.23
-35.74
-34.61
-32.66
-29.62
-25.34
-19.86
-13.42
-6.49
0.42
6.88
12.60
17.47
21.42
24.34
26.09
26.56
25.80
24.08
21.90
19.79
18.12
16.97
16.17
15.44
14.59
13.65
12.83
12.32
12.11
11.93
11.36
10.01
7.77
4.82
1.59
-1.50
-4.19
-6.42
-8.30
-9.94
-11.36
-12.50
-13.31
-13.75
-13.86
-13.70
-13.30
-12.61
-11.57
-10.16
-8.45
-6.58
-4.71
-2.98
-1.50
-0.33
0.48
0.92
1.10
1.19
1.48
2.21
3.51
5.29
7.25
9.03
10.32
10.97
11.04
10.63
9.86
8.70
7.09
4.98
2.49
-0.14
-2.56
-4.53
-5.98
-7.06
-8.00
-8.99
-10.03
-10.96
-11.57
-11.69
-11.34
-10.65
-9.74
-8.66
-7.34
-5.66
-3.61
-1.31
1.00
3.00
4.45
5.23
5.34
4.93
4.25
3.59
3.29
3.61
4.60
6.12
7.82
9.23
10.00
9.88
8.88
7.14
4.90
2.43
0.02
-2.03
-3.49
-4.25
-4.39
-4.14
-3.85
-3.78
-4.04
-4.55
-5.16
-5.72
-6.18
-6.56
-6.87
-7.09
-7.07
-6.65
-5.73
-4.33
-2.62
-0.84
0.79
2.15
3.18
3.88
4.24
4.26
3.98
3.53
3.12
2.95
3.14
3.62
4.16
4.51
4.52
4.20
3.71
3.21
2.74
2.22
1.55
0.70
-0.21
-0.95
-1.36
-1.43
-1.33
-1.32
-1.61
-2.18
-2.90
-3.51
-3.83
-3.84
-3.60
-3.26
-2.92
-2.59
-2.22
-1.73
-1.04
-0.12
1.02
2.32
3.62
4.73
5.44
5.58
5.10
4.11
2.88
1.72
0.95
0.71
0.98
1.58
2.29
2.88
3.23
3.29
3.07
2.59
1.81
0.77
-0.44
-1.60
-2.41
-2.63
-2.20
-1.25
-0.11
0.92
1.60
1.92
1.97
1.90
1.85
1.84
1.85
1.82
1.65
1.30
0.77
0.16
-0.41
-0.76
-0.83
-0.68
-0.48
-0.45
-0.78
-1.52
-2.54
-3.66
-4.59
-5.13
-5.14
-4.62
-3.64
-2.37
-0.97
0.43
1.69
2.71
3.38
3.54
3.14
2.24
1.08
0.06
-0.46
-0.26
0.64
1.96
3.33
4.37
4.90
4.92
4.65
4.29
3.98
3.69
3.31
2.72
1.94
1.15
0.60
0.46
0.72
1.15
1.47
1.46
1.08
0.44
-0.27
-0.96
-1.60
-2.25
-2.93
-3.56
-4.00
-4.11
-3.91
-3.52
-3.13
-2.86
-2.68
-2.44
-2.01
-1.37
-0.66
-0.06
0.34
0.65
1.06
1.77
2.80
3.96
4.98
5.65
5.94
6.00
5.99
6.03
6.08
5.99
5.63
4.94
3.99
2.92
1.88
0.94
0.10
-0.73
-1.59
-2.49
-3.37
-4.15
-4.80
-5.34
-5.81
-6.21
-6.46
-6.36
-5.75
-4.58
-2.98
-1.21
0.45
1.86
3.06
4.21
5.47
6.88
8.32
9.55
10.37
10.71
10.60
10.19
9.58
8.81
7.84
6.59
5.05
3.29
1.43
-0.38
-2.01
-3.41
-4.59
-5.57
-6.38
-7.00
-7.36
-7.39
-7.03
-6.28
-5.24
-4.11
-3.07
-2.30
-1.83
-1.62
-1.56
-1.57
-1.58
-1.53
-1.32
-0.83
0.08
1.43
3.13
4.94
6.57
7.76
8.41
8.54
8.25
7.63
6.76
5.69
4.50
3.35
2.45
1.90
1.72
1.77
1.81
1.64
1.21
0.58
-0.07
-0.59
-0.91
-1.04
-1.03
-0.93
-0.76
-0.50
-0.19
0.10
0.25
0.19
-0.10
-0.54
-0.99
-1.31
-1.40
-1.28
-1.05
-0.89
-0.95
-1.26
-1.73
-2.15
-2.26
-1.92
-1.16
-0.15
0.89
1.75
2.39
2.85
3.22
3.53
3.70
3.60
3.18
2.50
1.78
1.25
1.04
1.10
1.25
1.28
1.06
0.61
0.06
-0.45
-0.84
-1.09
-1.25
-1.32
-1.29
-1.14
-0.89
-0.65
-0.55
-0.68
-1.03
-1.48
-1.88
-2.07
-1.97
-1.60
-1.07
-0.55
-0.20
-0.14
-0.37
-0.78
-1.14
-1.23
-0.93
-0.26
0.58
1.35
1.87
2.07
2.03
1.81
1.45
0.91
0.11
-0.91
-2.02
-2.97
-3.55
-3.69
-3.46
-3.05
-2.61
-2.20
-1.75
-1.14
-0.34
0.59
1.51
2.25
2.70
2.86
2.79
2.61
2.45
2.38
2.42
2.52
2.55
2.37
1.88
1.06
-0.04
-1.33
-2.69
-3.96
-4.98
-5.56
-5.55
-4.95
-3.90
-2.66
-1.50
-0.55
0.18
0.75
1.25
1.66
1.94
2.04
1.98
1.90
1.92
2.10
2.38
2.62
2.68
2.49
2.09
1.53
0.91
0.27
-0.40
-1.10
-1.82
-2.51
-3.11
-3.55
-3.79
-3.84
-3.73
-3.48
-3.10
-2.65
-2.16
-1.69
-1.30
-1.08
-1.09
-1.33
-1.72
-2.07
-2.14
-1.73
-0.78
0.54
1.94
3.11
3.86
4.23
4.35
4.33
4.18
3.79
3.07
2.09
1.09
0.44
0.36
0.84
1.58
2.18
2.29
1.83
0.96
-0.02
-0.80
-1.19
-1.23
-1.06
-0.86
-0.79
-0.88
-1.08
-1.27
-1.35
-1.28
-1.13
-1.03
-1.10
-1.39
-1.83
-2.27
-2.62
-2.83
-2.91
-2.88
-2.71
-2.32
-1.65
-0.76
0.20
1.03
1.62
1.98
2.23
2.49
2.75
2.86
2.65
2.06
1.19
0.30
-0.32
-0.53
-0.39
-0.12
0.06
0.00
-0.26
-0.63
-0.98
-1.31
-1.67
-2.11
-2.62
-3.09
-3.40
-3.47
-3.35
-3.13
-2.93
-2.77
-2.57
-2.20
-1.62
-0.91
-0.28
0.06
0.04
-0.25
-0.56
-0.63
-0.27
0.49
1.47
2.39
3.04
3.32
3.27
2.93
2.30
1.30
-0.14
-1.98
-4.06
-6.12
-7.96
-9.47
-10.68
-11.65
-12.35
-12.66
-12.40
-11.43
-9.81
-7.74
-5.49
-3.30
-1.29
0.57
2.32
3.99
5.55
6.92
8.05
8.89
9.44
9.65
9.49
8.92
8.00
6.89
5.85
5.12
4.79
4.79
4.90
4.88
4.61
4.09
3.44
2.73
1.96
1.08
0.05
-1.05
-2.04
-2.66
-2.76
-2.35
-1.58
-0.68
0.13
0.71
1.03
1.18
1.24
1.32
1.42
1.50
1.49
1.37
1.19
1.03
1.01
1.11
1.24
1.26
1.04
0.53
-0.22
-1.13
-2.08
-2.92
-3.48
-3.58
-3.12
-2.17
-0.92
0.32
1.32
1.94
2.22
2.23
2.07
1.77
1.37
0.95
0.62
0.49
0.58
0.77
0.91
0.83
0.49
-0.02
-0.57
-1.01
-1.28
-1.40
-1.45
-1.49
-1.55
-1.58
-1.51
-1.26
-0.81
-0.21
0.45
1.03
1.43
1.58
1.46
1.10
0.57
-0.00
-0.49
-0.74
-0.70
-0.39
0.10
0.57
0.85
0.83
0.46
-0.22
-1.15
-2.28
-3.48
-4.62
-5.54
-6.12
-6.31
-6.15
-5.74
-5.18
-4.55
-3.87
-3.20
-2.62
-2.24
-2.13
-2.31
-2.69
-3.15
-3.55
-3.78
-3.80
-3.58
-3.16
-2.58
-2.01
-1.59
-1.47
-1.64
-1.96
-2.19
-2.07
-1.46
-0.44
0.79
1.98
2.91
3.53
3.87
3.99
3.96
3.75
3.36
2.84
2.29
1.87
1.69
1.79
2.07
2.43
2.73
2.93
2.99
2.93
2.77
2.51
2.18
1.82
1.48
1.21
1.06
1.03
1.12
1.27
1.43
1.50
1.40
1.09
0.60
0.02
-0.50
-0.83
-0.85
-0.57
-0.09
0.45
0.90
1.17
1.29
1.31
1.30
1.27
1.20
1.06
0.90
0.80
0.83
1.00
1.18
1.23
1.05
0.64
0.14
-0.32
-0.68
-0.99
-1.36
-1.86
-2.47
-3.00
-3.26
-3.15
-2.71
-2.13
-1.62
-1.35
-1.36
-1.62
-2.03
-2.42
-2.63
-2.52
-1.97
-0.97
0.37
1.84
3.23
4.37
5.16
5.59
5.65
5.33
4.65
3.70
2.63
1.63
0.84
0.31
-0.02
-0.26
-0.51
-0.83
-1.20
-1.58
-1.95
-2.31
-2.66
-3.02
-3.34
-3.56
-3.65
-3.58
-3.35
-2.99
-2.51
-1.91
-1.18
-0.36
0.45
1.11
1.49
1.57
1.47
1.41
1.61
2.14
2.94
3.78
4.43
4.75
4.70
4.37
3.82
3.08
2.10
0.89
-0.46
-1.79
-2.92
-3.74
-4.26
-4.59
-4.87
-5.18
-5.54
-5.94
-6.31
-6.65
-6.95
-7.21
-7.39
-7.44
-7.28
-6.85
-6.07
-4.93
-3.43
-1.69
0.14
1.86
3.31
4.39
5.06
5.35
5.31
4.99
4.51
4.00
3.57
3.35
3.39
3.67
4.10
4.58
4.98
5.18
5.05
4.53
3.62
2.46
1.30
0.40
-0.03
0.02
0.36
0.72
0.86
0.67
0.29
-0.08
-0.26
-0.19
-0.02
0.06
-0.10
-0.51
-1.05
-1.51
-1.74
-1.68
-1.37
-0.91
-0.36
0.21
0.78
1.26
1.53
1.43
0.88
-0.07
-1.17
-2.08
-2.49
-2.26
-1.49
-0.45
0.59
1.47
2.18
2.79
3.34
3.73
3.78
3.37
2.53
1.45
0.41
-0.37
-0.86
-1.18
-1.52
-1.99
-2.60
-3.19
-3.63
-3.82
-3.79
-3.64
-3.47
-3.30
-3.07
-2.69
-2.06
-1.17
-0.10
1.02
2.02
2.75
3.12
3.12
2.79
2.18
1.41
0.61
-0.06
-0.45
-0.43
-0.01
0.69
1.47
2.09
2.40
2.39
2.13
1.74
1.31
0.84
0.31
-0.28
-0.86
-1.31
-1.53
-1.48
-1.21
-0.83
-0.43
-0.04
0.34
0.73
1.12
1.47
1.71
1.78
1.69
1.49
1.27
1.10
1.04
1.09
1.20
1.31
1.34
1.21
0.82
0.10
-0.95
-2.24
-3.54
-4.52
-4.92
-4.60
-3.65
-2.34
-0.98
0.22
1.15
1.83
2.28
2.51
2.47
2.15
1.64
1.12
0.85
0.96
1.42
2.03
2.50
2.64
2.39
1.86
1.24
0.71
0.34
0.09
-0.12
-0.36
-0.63
-0.89
-1.09
-1.22
-1.31
-1.46
-1.72
-2.08
-2.47
-2.79
-2.98
-3.04
-3.06
-3.17
-3.47
-3.93
-4.38
-4.58
-4.32
-3.54
-2.33
-0.93
0.43
1.58
2.41
2.90
3.04
2.90
2.60
2.27
2.07
2.06
2.19
2.35
2.45
2.46
2.45
2.52
2.71
2.94
3.12
3.10
2.83
2.36
1.75
1.12
0.52
0.03
-0.27
-0.32
-0.06
0.55
1.46
2.53
3.65
4.68
5.63
6.60
7.84
9.63
12.17
15.38
18.93
22.30
24.90
26.30
26.25
24.71
21.80
17.66
12.52
6.71
0.70
-4.95
-9.73
-13.31
-15.65
-16.97
-17.60
-17.84
-17.86
-17.72
-17.43
-16.98
-16.42
-15.84
-15.30
-14.83
-14.43
-14.03
-13.60
-13.06
-12.36
-11.48
-10.46
-9.40
-8.43
-7.61
-6.91
-6.19
-5.27
-4.06
-2.61
-1.07
0.36
1.54
2.42
3.07
3.55
3.85
3.91
3.63
2.96
1.97
0.79
-0.37
-1.36
-2.12
-2.70
-3.17
-3.59
-3.97
-4.23
-4.25
-4.00
-3.46
-2.74
-1.97
-1.27
-0.70
-0.25
0.13
0.51
0.88
1.22
1.50
1.71
1.84
1.89
1.85
1.70
1.47
1.25
1.14
1.23
1.53
1.90
2.18
2.24
2.04
1.68
1.30
0.95
0.59
0.11
-0.53
-1.27
-1.92
-2.32
-2.36
-2.10
-1.70
-1.30
-0.95
-0.58
-0.11
0.44
0.93
1.14
0.90
0.21
-0.74
-1.65
-2.26
-2.47
-2.35
-2.10
-1.90
-1.86
-1.99
-2.27
-2.73
-3.37
-4.17
-4.96
-5.50
-5.52
-4.92
-3.81
-2.49
-1.37
-0.71
-0.59
-0.89
-1.41
-1.96
-2.43
-2.74
-2.81
-2.53
-1.84
-0.76
0.55
1.86
2.96
3.76
4.25
4.48
4.51
4.35
4.04
3.62
3.19
2.87
2.72
2.75
2.89
3.07
3.23
3.38
3.47
3.45
3.22
2.69
1.84
0.83
-0.13
-0.75
-0.88
-0.53
0.13
0.84
1.38
1.69
1.80
1.79
1.73
1.57
1.29
0.88
0.47
0.21
0.23
0.50
0.88
1.16
1.22
1.09
0.89
0.76
0.75
0.75
0.57
0.12
-0.58
-1.33
-1.93
-2.19
-2.12
-1.80
-1.40
-1.10
-1.02
-1.26
-1.79
-2.49
-3.14
-3.42
-3.13
-2.22
-0.85
0.68
2.08
3.17
3.89
4.24
4.24
3.87
3.15
2.20
1.26
0.57
0.24
0.26
0.43
0.52
0.40
0.06
-0.42
-0.92
-1.35
-1.70
-1.97
-2.16
-2.22
-2.11
-1.81
-1.35
-0.83
-0.34
0.02
0.21
0.22
0.10
-0.12
-0.38
-0.60
-0.66
-0.43
0.12
0.94
1.88
2.75
3.41
3.84
4.07
4.15
4.05
3.71
3.09
2.24
1.34
0.55
-0.00
-0.35
-0.58
-0.79
-1.02
-1.20
-1.28
-1.26
-1.24
-1.34
-1.65
-2.12
-2.61
-2.93
-2.93
-2.58
-1.92
-1.08
-0.23
0.44
0.79
0.76
0.41
-0.11
-0.59
-0.86
-0.83
-0.49
0.14
1.00
2.04
3.15
4.16
4.82
4.90
4.28
3.08
1.55
0.09
-0.99
-1.51
-1.51
-1.20
-0.85
-0.70
-0.86
-1.31
-1.94
-2.58
-3.13
-3.54
-3.82
-3.99
-4.08
-4.07
-3.86
-3.40
-2.65
-1.68
-0.63
0.30
0.93
1.17
1.08
0.83
0.65
0.75
1.22
2.00
2.96
3.94
4.83
5.54
6.02
6.17
5.86
5.03
3.71
2.10
0.46
-0.91
-1.85
-2.33
-2.46
-2.38
-2.25
-2.19
-2.24
-2.44
-2.77
-3.17
-3.53
-3.71
-3.61
-3.20
-2.54
-1.75
-0.96
-0.26
0.31
0.73
0.97
1.02
0.91
0.70
0.57
0.64
0.98
1.53
2.13
2.57
2.73
2.63
2.37
2.06
1.69
1.18
0.42
-0.58
-1.64
-2.48
-2.86
-2.69
-2.11
-1.38
-0.82
-0.57
-0.60
-0.75
-0.86
-0.88
-0.84
-0.85
-0.96
-1.13
-1.28
-1.36
-1.39
-1.47
-1.70
-2.09
-2.55
-2.95
-3.18
-3.21
-3.03
-2.68
-2.17
-1.56
-0.92
-0.37
-0.06
-0.12
-0.58
-1.38
-2.37
-3.37
-4.17
-4.60
-4.56
-4.02
-3.07
-1.91
-0.78
0.15
0.83
1.37
1.94
2.62
3.36
3.94
4.12
3.76
2.99
2.17
1.71
1.91
2.74
3.90
4.93
5.47
5.37
4.78
4.00
3.37
3.14
3.39
4.10
5.15
6.36
7.52
8.44
9.01
9.24
9.24
9.12
8.88
8.27
6.88
4.24
0.10
-5.35
-11.44
-17.12
-21.26
-23.03
-22.20
-19.21
-14.99
-10.68
-7.18
-4.94
-3.81
-3.25
-2.59
-1.34
0.68
3.26
5.99
8.46
10.40
11.80
12.84
13.71
14.40
14.58
13.65
11.09
6.77
1.31
-4.06
-7.84
-8.90
-7.01
-2.95
1.77
5.46
6.87
5.57
2.00
-2.81
-7.53
-11.01
-12.44
-11.55
-8.56
-4.07
1.18
6.37
10.81
13.88
15.16
14.37
11.55
7.01
1.41
-4.42
-9.62
-13.48
-15.57
-15.79
-14.33
-11.59
-8.10
-4.43
-1.08
1.46
2.80
2.69
1.14
-1.48
-4.50
-7.05
-8.41
-8.29
-6.85
-4.63
-2.25
-0.13
1.62
3.10
4.41
5.53
6.31
6.62
6.43
5.87
5.11
4.21
3.10
1.63
-0.14
-1.87
-2.96
-2.78
-1.07
1.87
5.18
7.74
8.69
7.78
5.43
2.59
0.22
-1.01
-1.01
-0.17
0.89
1.62
1.68
0.99
-0.38
-2.29
-4.58
-7.01
-9.25
-10.91
-11.57
-11.05
-9.45
-7.21
-4.97
-3.32
-2.63
-2.95
-4.00
-5.32
-6.36
-6.65
-5.81
-3.62
-0.09
4.55
9.74
14.66
18.33
19.83
18.64
14.83
9.18
3.02
-2.18
-5.36
-6.22
-5.30
-3.67
-2.39
-2.06
-2.61
-3.51
-4.10
-3.97
-3.06
-1.58
0.19
2.05
3.91
5.77
7.70
9.69
11.68
13.33
14.09
13.28
10.43
5.70
-0.04
-5.38
-8.89
-9.73
-8.00
-4.63
-0.95
1.93
3.47
3.72
3.07
1.92
0.54
-1.01
-2.70
-4.44
-6.04
-7.24
-7.86
-7.88
-7.54
-7.28
-7.61
-8.94
-11.31
-14.26
-16.85
-17.96
-16.65
-12.59
-6.25
1.23
8.43
14.15
17.80
19.48
19.77
19.38
18.84
18.30
17.72
16.94
15.93
14.76
13.51
12.19
10.64
8.64
6.04
2.93
-0.40
-3.57
-6.28
-8.43
-10.11
-11.50
-12.74
-13.86
-14.80
-15.42
-15.60
-15.20
-14.14
-12.36
-9.90
-6.95
-3.81
-0.84
1.62
3.39
4.46
4.92
4.92
4.57
3.97
3.19
2.27
1.28
0.20
-1.01
-2.43
-4.07
-5.76
-7.25
-8.21
-8.41
-7.88
-6.84
-5.57
-4.29
-3.00
-1.47
0.58
3.30
6.60
10.17
13.50
16.08
17.49
17.43
15.87
12.99
9.21
5.16
1.46
-1.39
-3.18
-4.03
-4.31
-4.47
-4.88
-5.66
-6.73
-7.86
-8.79
-9.30
-9.28
-8.72
-7.72
-6.42
-5.00
-3.63
-2.42
-1.44
-0.64
0.05
0.74
1.53
2.49
3.57
4.70
5.72
6.47
6.83
6.73
6.22
5.40
4.43
3.42
2.47
1.61
0.86
0.20
-0.36
-0.76
-0.91
-0.67
-0.04
0.90
1.90
2.64
2.86
2.46
1.55
0.43
-0.61
-1.36
-1.74
-1.83
-1.71
-1.47
-1.12
-0.71
-0.30
-0.04
-0.04
-0.35
-0.90
-1.51
-1.96
-2.08
-1.81
-1.23
-0.49
0.24
0.83
1.20
1.35
1.27
0.97
0.48
-0.11
-0.67
-1.04
-1.09
-0.80
-0.26
0.37
0.93
1.38
1.74
2.13
2.57
3.05
3.44
3.61
3.47
3.01
2.28
1.32
0.18
-1.09
-2.43
-3.76
-4.97
-5.95
-6.62
-6.95
-6.95
-6.64
-6.06
-5.25
-4.24
-3.07
-1.75
-0.29
1.24
2.71
4.00
4.99
5.62
5.92
5.99
5.96
5.93
5.95
6.00
6.04
6.02
5.89
5.61
5.14
4.41
3.42
2.21
0.93
-0.24
-1.17
-1.83
-2.27
-2.62
-3.01
-3.50
-4.05
-4.55
-4.90
-5.03
-4.99
-4.89
-4.83
-4.84
-4.87
-4.76
-4.37
-3.64
-2.64
-1.54
-0.47
0.50
1.42
2.35
3.26
4.06
4.60
4.80
4.69
4.43
4.13
3.81
3.39
2.76
1.91
0.97
0.11
-0.51
-0.86
-1.01
-1.11
-1.27
-1.52
-1.84
-2.22
-2.65
-3.15
-3.67
-4.11
-4.32
-4.22
-3.82
-3.22
-2.63
-2.18
-1.94
-1.81
-1.60
-1.13
-0.28
0.89
2.22
3.52
4.63
5.44
5.93
6.06
5.81
5.17
4.24
3.17
2.18
1.43
0.92
0.51
0.02
-0.66
-1.46
-2.23
-2.82
-3.13
-3.25
-3.31
-3.45
-3.71
-4.05
-4.33
-4.50
-4.50
-4.32
-3.92
-3.21
-2.13
-0.71
0.92
2.51
3.79
4.59
4.89
4.79
4.43
3.92
3.30
2.58
1.81
1.11
0.65
0.53
0.74
1.09
1.34
1.25
0.72
-0.21
-1.37
-2.54
-3.54
-4.24
-4.58
-4.57
-4.25
-3.71
-3.11
-2.59
-2.27
-2.17
-2.22
-2.25
-2.08
-1.55
-0.64
0.59
1.97
3.30
4.43
5.26
5.77
5.94
5.75
5.20
4.31
3.19
2.01
0.94
0.09
-0.52
-0.99
-1.47
-2.11
-2.96
-3.94
-4.91
-5.68
-6.14
-6.24
-6.05
-5.71
-5.36
-5.05
-4.76
-4.44
-4.09
-3.78
-3.60
-3.59
-3.70
-3.81
-3.77
-3.56
-3.18
-2.70
-2.09
-1.29
-0.23
1.04
2.34
3.40
3.99
4.07
3.79
3.38
3.04
2.83
2.68
2.44
2.04
1.46
0.79
0.14
-0.40
-0.80
-1.04
-1.15
-1.11
-0.92
-0.58
-0.15
0.30
0.67
0.90
0.99
1.04
1.16
1.46
1.98
2.66
3.38
4.06
4.61
5.02
5.26
5.25
4.90
4.18
3.16
2.04
1.07
0.42
0.08
-0.07
-0.20
-0.47
-0.90
-1.41
-1.93
-2.39
-2.77
-3.06
-3.24
-3.24
-3.05
-2.72
-2.34
-2.07
-2.00
-2.12
-2.34
-2.47
-2.37
-1.94
-1.17
-0.15
1.03
2.22
3.26
4.02
4.39
4.33
3.93
3.35
2.76
2.30
2.00
1.82
1.68
1.54
1.38
1.17
0.88
0.42
-0.26
-1.12
-2.00
-2.67
-2.96
-2.83
-2.41
-1.91
-1.53
-1.36
-1.35
-1.41
-1.46
-1.48
-1.49
-1.50
-1.46
-1.29
-0.87
-0.17
0.75
1.77
2.72
3.47
3.98
4.29
4.42
4.43
4.30
4.01
3.53
2.89
2.18
1.48
0.90
0.48
0.18
-0.06
-0.29
-0.56
-0.84
-1.10
-1.28
-1.39
-1.47
-1.56
-1.66
-1.75
-1.72
-1.51
-1.13
-0.67
-0.30
-0.13
-0.17
-0.36
-0.59
-0.77
-0.90
-0.97
-0.97
-0.85
-0.57
-0.11
0.48
1.09
1.67
2.19
2.66
3.06
3.31
3.31
2.99
2.39
1.68
1.08
0.72
0.58
0.53
0.43
0.21
-0.08
-0.32
-0.43
-0.40
-0.32
-0.28
-0.33
-0.44
-0.59
-0.80
-1.12
-1.55
-2.04
-2.43
-2.58
-2.41
-2.03
-1.65
-1.47
-1.57
-1.84
-2.05
-1.97
-1.51
-0.76
0.12
0.93
1.56
2.04
2.44
2.84
3.23
3.51
3.52
3.17
2.44
1.49
0.56
-0.12
-0.46
-0.52
-0.51
-0.62
-1.00
-1.56
-2.13
-2.53
-2.69
-2.67
-2.65
-2.77
-3.05
-3.31
-3.32
-2.91
-2.06
-0.95
0.16
1.00
1.44
1.47
1.21
0.84
0.53
0.41
0.54
0.89
1.41
2.00
2.62
3.21
3.71
4.03
4.07
3.74
3.07
2.20
1.32
0.60
0.07
-0.30
-0.63
-0.99
-1.34
-1.61
-1.77
-1.83
-1.90
-2.03
-2.24
-2.45
-2.54
-2.41
-2.06
-1.50
-0.81
-0.08
0.58
1.03
1.18
1.00
0.53
-0.07
-0.64
-1.02
-1.10
-0.83
-0.27
0.47
1.20
1.76
2.04
2.06
1.99
2.01
2.26
2.68
3.07
3.17
2.84
2.13
1.26
0.48
-0.03
-0.26
-0.29
-0.25
-0.22
-0.20
-0.19
-0.21
-0.30
-0.52
-0.84
-1.20
-1.45
-1.47
-1.20
-0.71
-0.13
0.36
0.62
0.59
0.30
-0.17
-0.69
-1.17
-1.56
-1.86
-2.14
-2.39
-2.57
-2.60
-2.39
-1.86
-1.07
-0.12
0.84
1.69
2.35
2.77
2.94
2.82
2.40
1.75
1.00
0.39
0.09
0.14
0.45
0.78
0.90
0.71
0.26
-0.22
-0.48
-0.38
0.06
0.63
1.09
1.22
1.01
0.52
-0.04
-0.52
-0.84
-1.01
-1.09
-1.09
-1.03
-0.89
-0.75
-0.75
-1.03
-1.67
-2.51
-3.23
-3.48
-3.08
-2.10
-0.82
0.41
1.38
2.04
2.51
2.89
3.15
3.15
2.77
2.02
1.12
0.37
-0.01
0.03
0.29
0.52
0.50
0.20
-0.30
-0.85
-1.35
-1.77
-2.18
-2.58
-2.93
-3.14
-3.18
-3.07
-2.94
-2.95
-3.18
-3.61
-4.17
-4.71
-5.20
-5.63
-6.09
-6.67
-7.38
-8.18
-8.86
-9.14
-8.75
-7.54
-5.57
-3.05
-0.31
2.36
4.77
6.83
8.50
9.65
10.15
9.89
8.93
7.52
6.01
4.73
3.85
3.38
3.20
3.16
3.17
3.14
2.98
2.64
2.07
1.28
0.35
-0.58
-1.34
-1.85
-2.07
-2.04
-1.86
-1.60
-1.30
-0.95
-0.56
-0.18
0.11
0.18
0.01
-0.35
-0.70
-0.81
-0.49
0.30
1.41
2.59
3.59
4.27
4.61
4.71
4.70
4.60
4.34
3.81
2.91
1.71
0.40
-0.77
-1.59
-1.99
-2.04
-1.94
-1.86
-1.91
-2.11
-2.40
-2.68
-2.86
-2.86
-2.64
-2.21
-1.62
-0.93
-0.28
0.26
0.62
0.81
0.90
0.96
1.00
0.99
0.86
0.54
0.06
-0.45
-0.82
-0.91
-0.72
-0.35
0.07
0.43
0.70
0.89
1.00
0.97
0.72
0.20
-0.52
-1.26
-1.82
-2.06
-1.95
-1.61
-1.17
-0.73
-0.31
0.07
0.43
0.73
0.95
1.10
1.21
1.35
1.53
1.72
1.81
1.72
1.47
1.15
0.86
0.62
0.35
-0.07
-0.76
-1.68
-2.66
-3.44
-3.78
-3.58
-2.87
-1.82
-0.64
0.42
1.14
1.38
1.11
0.45
-0.36
-1.07
-1.46
-1.50
-1.26
-0.87
-0.45
-0.05
0.34
0.73
1.08
1.33
1.40
1.30
1.07
0.80
0.59
0.46
0.42
0.46
0.56
0.65
0.66
0.48
0.04
-0.65
-1.48
-2.26
-2.77
-2.83
-2.41
-1.58
-0.49
0.64
1.67
2.47
2.97
3.14
2.98
2.48
1.71
0.75
-0.21
-0.96
-1.32
-1.17
-0.58
0.24
1.03
1.57
1.74
1.60
1.29
0.97
0.72
0.52
0.28
-0.06
-0.52
-0.99
-1.31
-1.38
-1.17
-0.78
-0.38
-0.11
-0.10
-0.33
-0.71
-1.06
-1.20
-1.02
-0.50
0.25
1.03
1.69
2.14
2.38
2.47
2.43
2.21
1.77
1.11
0.34
-0.38
-0.88
-1.11
-1.13
-1.07
-1.04
-1.05
-1.06
-1.03
-0.99
-1.00
-1.15
-1.44
-1.79
-2.06
-2.13
-1.96
-1.57
-1.05
-0.45
0.16
0.74
1.19
1.42
1.32
0.89
0.27
-0.29
-0.53
-0.28
0.42
1.34
2.15
2.58
2.48
1.90
1.02
0.08
-0.76
-1.40
-1.81
-2.03
-2.09
-2.05
-1.96
-1.84
-1.72
-1.56
-1.38
-1.14
-0.89
-0.65
-0.46
-0.33
-0.21
-0.07
0.11
0.29
0.42
0.43
0.31
0.06
-0.30
-0.73
-1.21
-1.67
-2.00
-2.07
-1.81
-1.25
-0.50
0.29
1.02
1.64
2.15
2.47
2.46
1.97
0.97
-0.37
-1.66
-2.51
-2.70
-2.26
-1.47
-0.69
-0.18
-0.05
-0.20
-0.48
-0.75
-0.96
-1.08
-1.09
-0.97
-0.71
-0.31
0.14
0.57
0.90
1.10
1.17
1.10
0.85
0.39
-0.28
-1.02
-1.67
-2.03
-1.97
-1.53
-0.82
-0.02
0.77
1.48
2.12
2.62
2.89
2.81
2.36
1.66
0.94
0.44
0.30
0.47
0.72
0.84
0.68
0.25
-0.31
-0.87
-1.35
-1.72
-2.01
-2.22
-2.32
-2.26
-2.03
-1.62
-1.12
-0.62
-0.18
0.14
0.30
0.27
0.01
-0.49
-1.19
-1.95
-2.62
-3.04
-3.18
-3.11
-3.01
-3.02
-3.21
-3.52
-3.81
-3.95
-3.87
-3.59
-3.16
-2.58
-1.83
-0.84
0.39
1.76
3.04
4.03
4.57
4.62
4.30
3.77
3.19
2.70
2.43
2.43
2.78
3.41
4.17
4.81
5.07
4.83
4.16
3.27
2.41
1.70
1.10
0.51
-0.14
-0.80
-1.30
-1.51
-1.39
-1.04
-0.64
-0.29
0.01
0.35
0.78
1.21
1.51
1.51
1.23
0.82
0.53
0.52
0.76
1.11
1.41
1.58
1.64
1.67
1.69
1.63
1.32
0.70
-0.18
-1.11
-1.86
-2.27
-2.33
-2.12
-1.74
-1.28
-0.79
-0.34
-0.05
-0.06
-0.41
-1.04
-1.74
-2.24
-2.31
-1.92
-1.12
-0.10
0.98
1.98
2.82
3.42
3.75
3.80
3.61
3.23
2.76
2.24
1.71
1.21
0.76
0.39
0.06
-0.31
-0.80
-1.46
-2.23
-2.98
-3.55
-3.84
-3.90
-3.85
-3.77
-3.69
-3.54
-3.20
-2.63
-1.85
-1.02
-0.35
0.02
0.06
-0.13
-0.35
-0.36
-0.02
0.71
1.75
2.90
3.96
4.78
5.29
5.46
5.29
4.77
3.96
2.92
1.81
0.77
-0.07
-0.70
-1.20
-1.65
-2.11
-2.56
-2.88
-2.95
-2.71
-2.23
-1.67
-1.19
-0.88
-0.74
-0.67
-0.56
-0.32
0.06
0.55
1.10
1.60
1.95
1.99
1.58
0.68
-0.59
-1.93
-2.94
-3.29
-2.84
-1.69
-0.16
1.36
2.56
3.28
3.50
3.33
2.88
2.30
1.68
1.10
0.59
0.14
-0.29
-0.68
-0.98
-1.11
-1.00
-0.69
-0.29
0.04
0.21
0.18
0.06
-0.05
-0.07
-0.02
0.02
-0.04
-0.24
-0.54
-0.86
-1.06
-1.09
-0.91
-0.62
-0.33
-0.20
-0.34
-0.75
-1.37
-2.00
-2.45
-2.56
-2.25
-1.57
-0.62
0.42
1.32
1.89
2.00
1.65
0.99
0.29
-0.18
-0.28
-0.04
0.32
0.56
0.52
0.24
-0.07
-0.19
-0.04
0.33
0.70
0.91
0.89
0.71
0.50
0.37
0.31
0.23
0.03
-0.32
-0.74
-1.08
-1.19
-1.04
-0.71
-0.37
-0.22
-0.39
-0.86
-1.49
-2.06
-2.37
-2.31
-1.94
-1.38
-0.79
-0.26
0.18
0.56
0.89
1.15
1.28
1.25
1.06
0.77
0.49
0.29
0.24
0.35
0.62
0.99
1.36
1.63
1.71
1.63
1.42
1.20
1.00
0.81
0.55
0.17
-0.31
-0.80
-1.17
-1.34
-1.34
-1.29
-1.34
-1.59
-2.11
-2.83
-3.62
-4.26
-4.49
-4.13
-3.13
-1.62
0.11
1.75
3.05
3.92
4.41
4.62
4.63
4.45
4.10
3.59
3.00
2.45
2.01
1.69
1.48
1.27
1.01
0.69
0.33
0.02
-0.21
-0.36
-0.52
-0.77
-1.20
-1.74
-2.29
-2.71
-2.93
-2.95
-2.87
-2.74
-2.59
-2.34
-1.95
-1.42
-0.90
-0.57
-0.58
-0.90
-1.29
-1.43
-1.04
-0.08
1.29
2.75
4.00
4.89
5.41
5.66
5.71
5.52
5.00
4.09
2.89
1.60
0.46
-0.38
-0.92
-1.30
-1.66
-2.08
-2.49
-2.75
-2.74
-2.46
-2.01
-1.57
-1.32
-1.35
-1.63
-2.01
-2.29
-2.27
-1.88
-1.15
-0.25
0.62
1.28
1.60
1.55
1.18
0.60
-0.10
-0.78
-1.37
-1.76
-1.92
-1.80
-1.40
-0.77
0.01
0.82
1.53
2.04
2.31
2.33
2.16
1.86
1.47
1.01
0.50
-0.04
-0.50
-0.78
-0.77
-0.44
0.15
0.83
1.45
1.84
1.95
1.82
1.59
1.40
1.37
1.49
1.62
1.60
1.29
0.70
0.03
-0.49
-0.64
-0.46
-0.17
-0.15
-0.69
-1.80
-3.26
-4.64
-5.56
-5.83
-5.52
-4.80
-3.86
-2.77
-1.52
-0.12
1.31
2.53
3.26
3.37
2.92
2.20
1.55
1.23
1.29
1.58
1.88
2.00
1.89
1.60
1.26
0.93
0.61
0.18
-0.42
-1.20
-2.04
-2.74
-3.15
-3.20
-3.02
-2.80
-2.76
-3.02
-3.58
-4.34
-5.21
-6.12
-7.07
-8.04
-8.91
-9.47
-9.47
-8.77
-7.35
-5.37
-3.05
-0.64
1.68
3.76
5.46
6.67
7.33
7.48
7.28
6.91
6.50
6.02
5.39
4.51
3.46
2.44
1.70
1.34
1.25
1.13
0.74
-0.01
-0.96
-1.83
-2.36
-2.46
-2.22
-1.74
-1.10
-0.27
0.79
1.98
3.11
3.90
4.13
3.76
2.95
1.97
1.10
0.52
0.27
0.31
0.55
0.91
1.34
1.84
2.35
2.79
3.05
3.04
2.75
2.25
1.66
1.09
0.60
0.15
-0.29
-0.67
-0.91
-0.89
-0.60
-0.15
0.28
0.48
0.36
-0.07
-0.70
-1.39
-2.03
-2.55
-2.92
-3.12
-3.10
-2.87
-2.47
-1.98
-1.50
-1.11
-0.88
-0.85
-1.02
-1.35
-1.75
-2.06
-2.10
-1.75
-0.98
0.09
1.29
2.44
3.41
4.11
4.50
4.55
4.21
3.54
2.63
1.71
0.99
0.58
0.45
0.44
0.36
0.10
-0.33
-0.84
-1.31
-1.68
-1.94
-2.12
-2.24
-2.29
-2.20
-1.94
-1.53
-1.06
-0.64
-0.36
-0.19
-0.09
0.03
0.14
0.19
0.08
-0.24
-0.67
-1.06
-1.23
-1.09
-0.68
-0.12
0.45
0.97
1.43
1.81
2.06
2.09
1.83
1.34
0.73
0.18
-0.21
-0.43
-0.54
-0.58
-0.57
-0.47
-0.26
0.03
0.26
0.33
0.19
-0.09
-0.40
-0.60
-0.68
-0.68
-0.67
-0.70
-0.74
-0.72
-0.61
-0.44
-0.36
-0.57
-1.15
-2.03
-2.98
-3.66
-3.77
-3.19
-2.01
-0.49
1.07
2.39
3.31
3.80
3.88
3.63
3.17
2.62
2.12
1.78
1.65
1.67
1.74
1.74
1.60
1.27
0.81
0.30
-0.20
-0.67
-1.08
-1.46
-1.79
-2.02
-2.14
-2.17
-2.16
-2.16
-2.22
-2.32
-2.44
-2.53
-2.55
-2.52
-2.53
-2.68
-3.05
-3.67
-4.45
-5.30
-6.08
-6.69
-7.07
-7.21
-7.06
-6.57
-5.69
-4.42
-2.87
-1.23
0.27
1.49
2.42
3.18
3.91
4.67
5.45
6.11
6.49
6.50
6.17
5.61
4.97
4.33
3.74
3.16
2.56
1.91
1.26
0.72
0.41
0.41
0.73
1.24
1.75
2.05
2.01
1.61
0.96
0.22
-0.46
-1.03
-1.46
-1.77
-1.90
-1.74
-1.23
-0.39
0.64
1.66
2.47
2.97
3.13
2.97
2.58
2.03
1.49
1.11
1.04
1.29
1.71
2.04
2.04
1.58
0.74
-0.29
-1.24
-1.95
-2.36
-2.52
-2.53
-2.49
-2.46
-2.43
-2.39
-2.29
-2.09
-1.79
-1.42
-1.06
-0.79
-0.64
-0.62
-0.69
-0.80
-0.85
-0.79
-0.57
-0.18
0.34
0.95
1.62
2.34
3.07
3.73
4.20
4.34
4.05
3.35
2.37
1.37
0.57
0.12
0.01
0.15
0.37
0.55
0.63
0.56
0.30
-0.17
-0.87
-1.70
-2.51
-3.07
-3.22
-2.95
-2.36
-1.67
-1.10
-0.74
-0.59
-0.61
-0.75
-1.01
-1.36
-1.70
-1.89
-1.76
-1.22
-0.30
0.79
1.83
2.65
3.17
3.47
3.61
3.66
3.53
3.14
2.38
1.32
0.15
-0.84
-1.40
-1.42
-1.01
-0.43
0.02
0.13
-0.11
-0.56
-0.99
-1.23
-1.23
-1.03
-0.74
-0.46
-0.20
0.02
0.20
0.28
0.19
-0.14
-0.68
-1.34
-1.98
-2.45
-2.69
-2.70
-2.55
-2.29
-1.93
-1.42
-0.69
0.23
1.26
2.22
2.94
3.34
3.44
3.35
3.21
3.07
2.91
2.65
2.22
1.66
1.05
0.52
0.17
0.01
-0.01
0.03
0.04
-0.03
-0.23
-0.56
-1.01
-1.55
-2.10
-2.58
-2.88
-2.97
-2.84
-2.58
-2.27
-1.97
-1.68
-1.39
-1.06
-0.73
-0.47
-0.37
-0.46
-0.65
-0.79
-0.70
-0.29
0.36
1.07
1.65
2.00
2.21
2.42
2.72
3.06
3.22
2.96
2.17
0.96
-0.36
-1.43
-2.00
-2.01
-1.57
-0.87
-0.05
0.75
1.45
1.94
2.15
2.04
1.69
1.24
0.87
0.69
0.64
0.57
0.32
-0.23
-1.00
-1.86
-2.62
-3.20
-3.61
-3.91
-4.12
-4.17
-3.98
-3.45
-2.60
-1.55
-0.48
0.47
1.21
1.72
2.00
2.08
2.00
1.85
1.76
1.81
2.03
2.31
2.47
2.37
1.97
1.35
0.67
0.05
-0.51
-1.04
-1.61
-2.20
-2.71
-3.05
-3.16
-3.08
-2.90
-2.73
-2.60
-2.52
-2.46
-2.41
-2.41
-2.49
-2.68
-2.98
-3.36
-3.79
-4.23
-4.61
-4.84
-4.84
-4.55
-4.00
-3.28
-2.52
-1.85
-1.31
-0.88
-0.48
0.00
0.63
1.41
2.27
3.11
3.85
4.44
4.86
5.14
5.27
5.24
5.06
4.72
4.25
3.69
3.10
2.50
1.92
1.38
0.93
0.64
0.61
0.82
1.16
1.45
1.51
1.25
0.75
0.18
-0.27
-0.47
-0.42
-0.23
0.00
0.22
0.43
0.73
1.18
1.82
2.58
3.32
3.90
4.15
4.03
3.55
2.81
1.94
1.06
0.27
-0.36
-0.76
-0.85
-0.64
-0.22
0.23
0.49
0.41
-0.02
-0.61
-1.11
-1.34
-1.28
-1.06
-0.89
-0.93
-1.16
-1.47
-1.64
-1.56
-1.18
-0.61
-0.03
0.37
0.50
0.32
-0.04
-0.37
-0.48
-0.22
0.37
1.13
1.82
2.24
2.29
2.05
1.64
1.21
0.83
0.47
0.11
-0.30
-0.70
-0.97
-1.03
-0.85
-0.54
-0.29
-0.26
-0.53
-1.04
-1.61
-2.07
-2.33
-2.40
-2.34
-2.19
-1.92
-1.47
-0.80
0.01
0.81
1.44
1.84
2.01
2.00
1.84
1.51
0.99
0.34
-0.27
-0.60
-0.50
0.00
0.71
1.34
1.63
1.54
1.16
0.65
0.15
-0.27
-0.61
-0.90
-1.12
-1.24
-1.24
-1.15
-1.04
-0.99
-1.05
-1.18
-1.28
-1.21
-0.92
-0.42
0.14
0.59
0.78
0.70
0.47
0.27
0.24
0.41
0.68
0.87
0.83
0.49
-0.10
-0.86
-1.67
-2.42
-3.05
-3.51
-3.72
-3.64
-3.20
-2.39
-1.27
0.03
1.35
2.51
3.36
3.80
3.81
3.44
2.81
2.08
1.36
0.80
0.42
0.25
0.23
0.30
0.39
0.41
0.32
0.08
-0.25
-0.59
-0.82
-0.87
-0.74
-0.48
-0.21
0.00
0.11
0.11
0.03
-0.08
-0.22
-0.35
-0.44
-0.49
-0.50
-0.51
-0.60
-0.82
-1.18
-1.64
-2.06
-2.30
-2.23
-1.79
-0.96
0.16
1.42
2.60
3.52
4.04
4.10
3.73
3.05
2.25
1.50
0.96
0.69
0.63
0.67
0.64
0.45
0.10
-0.31
-0.64
-0.82
-0.81
-0.69
-0.53
-0.41
-0.35
-0.37
-0.47
-0.66
-0.90
-1.09
-1.12
-0.93
-0.57
-0.16
0.07
-0.06
-0.59
-1.44
-2.39
-3.21
-3.72
-3.86
-3.65
-3.18
-2.52
-1.77
-0.94
-0.07
0.81
1.63
2.27
2.63
2.67
2.42
1.99
1.53
1.17
1.01
1.03
1.13
1.20
1.14
0.92
0.57
0.15
-0.31
-0.77
-1.24
-1.68
-2.08
-2.38
-2.57
-2.64
-2.58
-2.38
-2.05
-1.58
-1.05
-0.53
-0.16
-0.05
-0.22
-0.56
-0.83
-0.81
-0.37
0.46
1.47
2.36
2.88
2.98
2.74
2.38
2.07
1.87
1.69
1.40
0.93
0.34
-0.25
-0.71
-1.05
-1.32
-1.60
-1.88
-2.08
-2.04
-1.68
-1.02
-0.21
0.54
1.06
1.30
1.30
1.14
0.94
0.78
0.71
0.75
0.86
0.93
0.83
0.46
-0.25
-1.21
-2.31
-3.36
-4.18
-4.62
-4.56
-3.96
-2.87
-1.48
-0.04
1.20
2.06
2.48
2.49
2.15
1.53
0.70
-0.24
-1.18
-2.01
-2.70
-3.27
-3.83
-4.44
-5.17
-5.98
-6.76
-7.39
-7.69
-7.53
-6.81
-5.54
-3.83
-1.94
-0.11
1.43
2.59
3.43
4.06
4.57
5.00
5.30
5.43
5.36
5.14
4.79
4.34
3.85
3.32
2.86
2.57
2.54
2.78
3.22
3.73
4.16
4.42
4.49
4.38
4.10
3.65
3.05
2.38
1.74
1.31
1.13
1.17
1.30
1.31
1.08
0.57
-0.14
-0.90
-1.53
-1.94
-2.13
-2.21
-2.30
-2.47
-2.66
-2.73
-2.52
-1.95
-1.12
-0.23
0.47
0.79
0.70
0.30
-0.24
-0.76
-1.15
-1.32
-1.22
-0.81
-0.11
0.76
1.63
2.28
2.57
2.42
1.89
1.09
0.14
-0.82
-1.68
-2.32
-2.65
-2.66
-2.36
-1.85
-1.20
-0.46
0.35
1.17
1.91
2.42
2.59
2.39
1.93
1.43
1.10
1.01
1.08
1.10
0.84
0.23
-0.66
-1.63
-2.49
-3.14
-3.58
-3.89
-4.06
-4.05
-3.75
-3.12
-2.22
-1.19
-0.18
0.69
1.45
2.16
2.87
3.52
4.00
4.16
3.95
3.41
2.70
1.96
1.28
0.64
-0.03
-0.76
-1.52
-2.19
-2.65
-2.84
-2.84
-2.80
-2.88
-3.14
-3.47
-3.68
-3.54
-2.94
-1.95
-0.75
0.38
1.23
1.64
1.59
1.19
0.64
0.18
-0.01
0.18
0.67
1.32
1.92
2.32
2.47
2.39
2.16
1.83
1.41
0.90
0.35
-0.16
-0.55
-0.76
-0.82
-0.83
-0.90
-1.07
-1.30
-1.46
-1.44
-1.17
-0.65
0.00
0.66
1.14
1.32
1.14
0.62
-0.07
-0.71
-1.09
-1.11
-0.84
-0.46
-0.20
-0.17
-0.35
-0.61
-0.79
-0.79
-0.61
-0.32
0.03
0.41
0.85
1.34
1.84
2.21
2.34
2.13
1.61
0.86
0.08
-0.59
-1.03
-1.23
-1.22
-1.06
-0.83
-0.59
-0.39
-0.26
-0.18
-0.12
-0.04
0.10
0.31
0.54
0.70
0.75
0.64
0.42
0.15
-0.12
-0.35
-0.56
-0.74
-0.91
-1.01
-0.98
-0.74
-0.25
0.46
1.23
1.89
2.25
2.25
1.92
1.43
0.91
0.45
0.04
-0.35
-0.75
-1.09
-1.27
-1.25
-1.05
-0.81
-0.66
-0.66
-0.73
-0.68
-0.36
0.26
1.05
1.74
2.12
2.12
1.86
1.54
1.33
1.21
1.00
0.48
-0.46
-1.64
-2.69
-3.17
-2.87
-1.89
-0.63
0.48
1.15
1.38
1.38
1.38
1.46
1.55
1.47
1.12
0.57
0.03
-0.30
-0.32
-0.09
0.27
0.62
0.90
1.10
1.22
1.26
1.18
0.98
0.66
0.27
-0.12
-0.49
-0.82
-1.12
-1.36
-1.50
-1.49
-1.30
-1.01
-0.75
-0.67
-0.85
-1.23
-1.64
-1.85
-1.70
-1.17
-0.35
0.54
1.32
1.90
2.26
2.46
2.49
2.33
1.96
1.39
0.75
0.17
-0.22
-0.43
-0.53
-0.62
-0.73
-0.83
-0.81
-0.64
-0.38
-0.16
-0.11
-0.25
-0.51
-0.75
-0.84
-0.72
-0.41
-0.00
0.42
0.72
0.79
0.53
-0.08
-0.92
-1.77
-2.36
-2.48
-2.13
-1.44
-0.66
-0.01
0.43
0.68
0.82
0.93
1.03
1.12
1.22
1.36
1.53
1.69
1.71
1.50
1.05
0.48
-0.02
-0.28
-0.33
-0.33
-0.53
-1.04
-1.83
-2.68
-3.33
-3.63
-3.60
-3.36
-3.06
-2.76
-2.44
-2.07
-1.64
-1.22
-0.84
-0.50
-0.09
0.52
1.36
2.34
3.24
3.83
3.99
3.74
3.24
2.69
2.22
1.86
1.57
1.26
0.88
0.44
-0.06
-0.56
-1.09
-1.68
-2.41
-3.34
-4.48
-5.77
-7.06
-8.17
-8.94
-9.29
-9.22
-8.85
-8.32
-7.68
-6.94
-5.99
-4.79
-3.35
-1.78
-0.23
1.19
2.46
3.64
4.80
5.95
7.00
7.84
8.33
8.47
8.30
7.87
7.25
6.45
5.55
4.59
3.66
2.80
2.04
1.37
0.79
0.33
0.04
-0.10
-0.12
-0.14
-0.26
-0.49
-0.77
-0.94
-0.87
-0.47
0.17
0.91
1.55
1.98
2.16
2.14
1.98
1.70
1.25
0.63
-0.10
-0.78
-1.18
-1.17
-0.79
-0.22
0.29
0.56
0.58
0.46
0.37
0.39
0.46
0.44
0.24
-0.08
-0.41
-0.58
-0.57
-0.43
-0.29
-0.23
-0.20
-0.08
0.24
0.76
1.37
1.85
2.06
1.96
1.63
1.25
0.98
0.89
0.97
1.16
1.37
1.50
1.46
1.21
0.68
-0.14
-1.20
-2.38
-3.47
-4.26
-4.58
-4.40
-3.77
-2.85
-1.77
-0.66
0.37
1.20
1.69
1.77
1.41
0.78
0.12
-0.30
-0.32
0.03
0.62
1.23
1.72
2.00
2.11
2.05
1.86
1.53
1.06
0.49
-0.06
-0.46
-0.60
-0.46
-0.17
0.09
0.14
-0.13
-0.71
-1.51
-2.37
-3.19
-3.88
-4.36
-4.56
-4.41
-3.91
-3.13
-2.22
-1.32
-0.48
0.34
1.23
2.23
3.25
4.08
4.50
4.43
3.95
3.32
2.79
2.46
2.28
2.08
1.69
1.09
0.39
-0.24
-0.69
-0.95
-1.13
-1.34
-1.61
-1.89
-2.08
-2.14
-2.08
-1.99
-1.98
-2.10
-2.30
-2.49
-2.58
-2.53
-2.39
-2.24
-2.10
-1.96
-1.70
-1.22
-0.48
0.43
1.33
2.05
2.50
2.74
2.94
3.19
3.47
3.65
3.54
3.06
2.33
1.54
0.88
0.43
0.08
-0.29
-0.75
-1.20
-1.43
-1.31
-0.87
-0.30
0.17
0.38
0.32
0.09
-0.18
-0.40
-0.55
-0.68
-0.82
-1.03
-1.32
-1.70
-2.13
-2.56
-2.87
-3.00
-2.91
-2.63
-2.19
-1.64
-0.96
-0.18
0.65
1.47
2.16
2.69
3.04
3.26
3.35
3.32
3.11
2.69
2.10
1.41
0.77
0.29
0.05
0.01
0.07
0.09
-0.04
-0.35
-0.77
-1.18
-1.48
-1.61
-1.58
-1.43
-1.20
-0.91
-0.59
-0.27
-0.03
0.13
0.23
0.37
0.56
0.76
0.81
0.57
0.01
-0.73
-1.38
-1.67
-1.50
-0.92
-0.15
0.58
1.14
1.47
1.60
1.56
1.34
0.97
0.51
0.09
-0.16
-0.16
0.09
0.50
0.93
1.26
1.39
1.29
0.93
0.34
-0.37
-1.03
-1.45
-1.50
-1.17
-0.63
-0.11
0.16
0.13
-0.12
-0.40
-0.55
-0.54
-0.49
-0.55
-0.84
-1.32
-1.86
-2.28
-2.41
-2.20
-1.68
-0.97
-0.16
0.67
1.45
2.16
2.75
3.12
3.19
2.89
2.27
1.46
0.65
0.04
-0.29
-0.35
-0.26
-0.14
-0.11
-0.18
-0.32
-0.50
-0.69
-0.88
-1.07
-1.20
-1.20
-1.03
-0.71
-0.35
-0.13
-0.14
-0.38
-0.76
-1.13
-1.42
-1.63
-1.79
-1.94
-2.04
-1.99
-1.71
-1.20
-0.57
0.07
0.60
1.04
1.48
1.98
2.51
2.98
3.23
3.17
2.83
2.35
1.89
1.56
1.42
1.41
1.43
1.42
1.29
1.00
0.47
-0.32
-1.36
-2.50
-3.50
-4.11
-4.17
-3.66
-2.75
-1.69
-0.73
-0.03
0.33
0.39
0.20
-0.16
-0.60
-1.06
-1.42
-1.62
-1.59
-1.30
-0.76
-0.01
0.83
1.64
2.25
2.55
2.47
2.05
1.41
0.69
0.08
-0.30
-0.37
-0.17
0.21
0.59
0.78
0.66
0.21
-0.47
-1.15
-1.63
-1.74
-1.47
-0.92
-0.22
0.45
0.98
1.32
1.48
1.51
1.46
1.40
1.33
1.21
0.92
0.32
-0.63
-1.87
-3.15
-4.19
-4.74
-4.68
-4.11
-3.22
-2.25
-1.35
-0.59
0.06
0.59
0.98
1.22
1.30
1.25
1.11
0.88
0.49
-0.11
-0.96
-2.03
-3.20
-4.35
-5.38
-6.26
-6.98
-7.53
-7.81
-7.71
-7.13
-6.07
-4.67
-3.15
-1.74
-0.60
0.27
0.94
1.51
2.04
2.49
2.80
2.99
3.13
3.35
3.78
4.43
5.23
6.03
6.70
7.14
7.37
7.43
7.32
7.03
6.54
5.85
5.01
4.12
3.24
2.36
1.46
0.50
-0.50
-1.43
-2.21
-2.75
-3.06
-3.26
-3.45
-3.67
-3.85
-3.87
-3.61
-3.04
-2.24
-1.36
-0.55
0.09
0.50
0.67
0.61
0.40
0.13
-0.08
-0.12
0.09
0.56
1.24
2.03
2.82
3.51
3.99
4.17
4.01
3.52
2.80
1.99
1.25
0.65
0.22
-0.09
-0.38
-0.71
-1.11
-1.53
-1.86
-1.98
-1.82
-1.38
-0.76
-0.15
0.28
0.44
0.35
0.12
-0.11
-0.27
-0.34
-0.38
-0.41
-0.45
-0.50
-0.58
-0.72
-0.90
-1.06
-1.08
-0.88
-0.43
0.16
0.72
1.12
1.36
1.55
1.80
2.15
2.47
2.53
2.15
1.34
0.30
-0.65
-1.20
-1.22
-0.77
-0.09
0.59
1.08
1.31
1.32
1.16
0.86
0.44
-0.08
-0.62
-1.07
-1.34
-1.40
-1.31
-1.18
-1.14
-1.26
-1.56
-1.94
-2.28
-2.43
-2.31
-1.91
-1.36
-0.81
-0.43
-0.25
-0.19
-0.08
0.19
0.63
1.09
1.41
1.50
1.39
1.25
1.21
1.31
1.44
1.46
1.31
1.03
0.77
0.65
0.72
0.85
0.91
0.74
0.34
-0.23
-0.83
-1.36
-1.76
-2.04
-2.22
-2.31
-2.31
-2.24
-2.11
-2.02
-2.05
-2.25
-2.58
-2.90
-3.02
-2.77
-2.13
-1.20
-0.15
0.87
1.75
2.49
3.13
3.65
4.02
4.19
4.14
3.92
3.63
3.37
3.18
3.04
2.88
2.63
2.24
1.66
0.90
-0.04
-1.08
-2.11
-2.96
-3.50
-3.69
-3.60
-3.33
-3.03
-2.75
-2.52
-2.31
-2.14
-2.04
-2.08
-2.23
-2.41
-2.47
-2.24
-1.65
-0.71
0.43
1.58
2.58
3.34
3.85
4.16
4.28
4.22
3.92
3.34
2.52
1.56
0.63
-0.13
-0.65
-0.96
-1.13
-1.23
-1.30
-1.31
-1.23
-1.07
-0.89
-0.76
-0.69
-0.64
-0.53
-0.27
0.13
0.60
0.98
1.15
1.07
0.77
0.40
0.06
-0.18
-0.34
-0.50
-0.74
-1.10
-1.51
-1.84
-1.94
-1.66
-0.97
0.03
1.12
2.00
2.44
2.36
1.84
1.09
0.37
-0.14
-0.35
-0.28
-0.04
0.26
0.52
0.70
0.79
0.83
0.86
0.90
0.97
1.04
1.08
1.01
0.83
0.53
0.18
-0.17
-0.45
-0.66
-0.84
-1.07
-1.42
-1.90
-2.45
-2.96
-3.33
-3.47
-3.39
-3.14
-2.76
-2.28
-1.67
-0.88
0.13
1.32
2.56
3.62
4.26
4.33
3.87
3.06
2.22
1.57
1.23
1.10
0.98
0.71
0.25
-0.31
-0.82
-1.18
-1.39
-1.56
-1.74
-1.96
-2.15
-2.22
-2.10
-1.77
-1.31
-0.81
-0.34
0.01
0.20
0.19
-0.08
-0.66
-1.48
-2.41
-3.20
-3.62
-3.52
-2.89
-1.89
-0.73
0.37
1.27
1.94
2.39
2.63
2.69
2.58
2.33
1.98
1.61
1.24
0.88
0.53
0.19
-0.13
-0.41
-0.64
-0.84
-1.00
-1.09
-1.07
-0.88
-0.54
-0.10
0.32
0.64
0.85
0.95
0.98
0.94
0.83
0.61
0.31
-0.02
-0.32
-0.54
-0.73
-0.95
-1.28
-1.73
-2.22
-2.60
-2.70
-2.39
-1.63
-0.50
0.83
2.11
3.11
3.64
3.61
3.08
2.22
1.28
0.47
-0.06
-0.28
-0.26
-0.12
0.02
0.06
-0.05
-0.28
-0.61
-1.01
-1.45
-1.89
-2.27
-2.55
-2.68
-2.68
-2.59
-2.46
-2.31
-2.16
-2.02
-1.94
-2.03
-2.37
-3.02
-3.92
-4.91
-5.75
-6.22
-6.18
-5.64
-4.69
-3.48
-2.13
-0.72
0.72
2.14
3.44
4.49
5.13
5.27
4.93
4.26
3.49
2.81
2.33
2.09
2.06
2.24
2.63
3.18
3.76
4.19
4.27
3.95
3.37
2.82
2.59
2.80
3.32
3.84
4.03
3.74
3.05
2.16
1.28
0.44
-0.46
-1.50
-2.66
-3.74
-4.49
-4.73
-4.47
-3.86
-3.07
-2.19
-1.21
-0.13
0.95
1.83
2.29
2.30
1.99
1.69
1.67
2.02
2.61
3.17
3.52
3.59
3.51
3.40
3.29
3.08
2.60
1.72
0.46
-0.97
-2.32
-3.37
-4.02
-4.34
-4.45
-4.46
-4.41
-4.28
-4.05
-3.75
-3.46
-3.22
-3.02
-2.77
-2.32
-1.58
-0.53
0.67
1.84
2.83
3.54
4.00
4.24
4.28
4.09
3.67
3.05
2.32
1.64
1.12
0.80
0.63
0.50
0.33
0.07
-0.25
-0.64
-1.06
-1.47
-1.83
-2.07
-2.14
-2.04
-1.77
-1.41
-1.01
-0.63
-0.32
-0.13
-0.07
-0.17
-0.43
-0.81
-1.23
-1.61
-1.84
-1.85
-1.60
-1.11
-0.45
0.30
1.04
1.68
2.16
2.44
2.51
2.40
2.14
1.82
1.51
1.26
1.08
0.95
0.81
0.64
0.42
0.21
0.07
0.07
0.24
0.54
0.85
1.06
1.03
0.79
0.42
0.08
-0.13
-0.24
-0.38
-0.66
-1.10
-1.61
-2.00
-2.16
-2.11
-2.04
-2.11
-2.35
-2.62
-2.67
-2.30
-1.49
-0.43
0.61
1.43
1.96
2.25
2.42
2.55
2.63
2.62
2.46
2.17
1.84
1.55
1.38
1.34
1.40
1.49
1.53
1.43
1.15
0.70
0.13
-0.43
-0.89
-1.20
-1.35
-1.35
-1.27
-1.14
-1.01
-0.92
-0.90
-0.99
-1.20
-1.50
-1.83
-2.14
-2.35
-2.40
-2.27
-1.97
-1.53
-1.02
-0.50
0.03
0.55
1.09
1.59
1.94
2.02
1.73
1.15
0.48
-0.04
-0.20
-0.01
0.39
0.74
0.88
0.75
0.44
0.12
-0.09
-0.17
-0.15
-0.12
-0.13
-0.20
-0.29
-0.38
-0.44
-0.45
-0.43
-0.42
-0.51
-0.76
-1.25
-1.94
-2.72
-3.42
-3.84
-3.88
-3.52
-2.80
-1.80
-0.61
0.69
1.97
3.10
3.91
4.30
4.27
3.91
3.40
2.91
2.56
2.37
2.25
2.11
1.85
1.44
0.90
0.31
-0.25
-0.67
-0.93
-1.02
-0.99
-0.89
-0.81
-0.79
-0.87
-1.06
-1.34
-1.67
-2.01
-2.30
-2.54
-2.72
-2.87
-3.03
-3.23
-3.52
-3.93
-4.47
-5.12
-5.78
-6.33
-6.67
-6.72
-6.45
-5.91
-5.12
-4.15
-3.03
-1.79
-0.49
0.83
2.06
3.16
4.08
4.83
5.41
5.85
6.13
6.22
6.11
5.81
5.37
4.86
4.34
3.83
3.30
2.74
2.14
1.61
1.25
1.17
1.35
1.67
1.95
2.04
1.87
1.52
1.04
0.51
-0.08
-0.74
-1.40
-1.94
-2.17
-1.97
-1.33
-0.39
0.61
1.48
2.07
2.34
2.32
2.02
1.48
0.73
-0.11
-0.89
-1.48
-1.79
-1.85
-1.74
-1.55
-1.34
-1.08
-0.78
-0.44
-0.15
0.04
0.08
0.02
-0.06
-0.10
-0.10
-0.11
-0.14
-0.17
-0.10
0.13
0.52
0.92
1.12
0.92
0.28
-0.65
-1.62
-2.32
-2.55
-2.27
-1.57
-0.65
0.30
1.13
1.80
2.28
2.58
2.69
2.60
2.29
1.82
1.30
0.82
0.45
0.20
0.04
-0.07
-0.14
-0.15
-0.10
-0.03
0.02
0.01
-0.06
-0.13
-0.14
-0.06
0.10
0.26
0.32
0.23
-0.07
-0.52
-1.04
-1.56
-2.03
-2.46
-2.88
-3.29
-3.62
-3.77
-3.62
-3.12
-2.34
-1.41
-0.46
0.41
1.15
1.76
2.23
2.52
2.63
2.56
2.38
2.19
2.05
1.98
1.94
1.86
1.69
1.40
1.02
0.58
0.14
-0.27
-0.64
-0.96
-1.29
-1.64
-2.02
-2.37
-2.62
-2.69
-2.53
-2.16
-1.66
-1.17
-0.80
-0.62
-0.67
-0.89
-1.18
-1.40
-1.40
-1.06
-0.33
0.71
1.91
3.07
3.99
4.58
4.86
4.88
4.74
4.47
4.02
3.31
2.31
1.09
-0.17
-1.23
-1.89
-2.09
-1.93
-1.59
-1.34
-1.33
-1.58
-2.00
-2.42
-2.67
-2.72
-2.63
-2.50
-2.43
-2.43
-2.41
-2.24
-1.86
-1.31
-0.73
-0.30
-0.16
-0.29
-0.58
-0.84
-0.89
-0.70
-0.35
0.03
0.33
0.55
0.75
1.05
1.51
2.09
2.67
3.12
3.32
3.24
2.92
2.45
1.90
1.32
0.78
0.33
0.03
-0.09
-0.05
0.06
0.14
0.11
-0.08
-0.37
-0.66
-0.87
-0.94
-0.91
-0.86
-0.89
-0.99
-1.04
-0.92
-0.57
-0.10
0.25
0.21
-0.32
-1.26
-2.28
-3.04
-3.27
-2.94
-2.19
-1.28
-0.44
0.21
0.63
0.84
0.88
0.80
0.65
0.49
0.35
0.24
0.13
0.05
0.01
0.10
0.40
0.94
1.62
2.27
2.72
2.88
2.78
2.53
2.27
2.00
1.66
1.15
0.45
-0.33
-1.00
-1.35
-1.34
-1.06
-0.75
-0.68
-0.96
-1.56
-2.30
-2.92
-3.21
-3.09
-2.57
-1.80
-0.94
-0.14
0.57
1.21
1.85
2.51
3.14
3.58
3.67
3.33
2.62
1.73
0.91
0.31
-0.01
-0.13
-0.19
-0.30
-0.51
-0.82
-1.17
-1.50
-1.72
-1.78
-1.68
-1.47
-1.25
-1.12
-1.09
-1.14
-1.18
-1.15
-1.07
-1.00
-1.02
-1.16
-1.38
-1.57
-1.63
-1.48
-1.11
-0.57
0.06
0.67
1.16
1.47
1.59
1.62
1.66
1.75
1.87
1.94
1.88
1.71
1.53
1.44
1.48
1.62
1.73
1.71
1.53
1.25
0.95
0.70
0.47
0.23
-0.06
-0.39
-0.73
-1.04
-1.33
-1.62
-1.92
-2.21
-2.44
-2.59
-2.68
-2.76
-2.88
-3.03
-3.15
-3.14
-2.88
-2.33
-1.50
-0.46
0.73
1.99
3.28
4.51
5.51
6.08
6.01
5.22
3.80
2.05
0.32
-1.06
-1.96
-2.43
-2.63
-2.72
-2.76
-2.71
-2.53
-2.22
-1.86
-1.53
-1.31
-1.14
-0.98
-0.76
-0.51
-0.28
-0.14
-0.10
-0.07
0.07
0.36
0.72
0.99
0.99
0.68
0.15
-0.41
-0.80
-0.93
-0.79
-0.45
0.06
0.71
1.46
2.20
2.74
2.88
2.50
1.66
0.57
-0.52
-1.38
-1.91
-2.12
-2.06
-1.78
-1.34
-0.82
-0.32
0.06
0.24
0.22
0.10
0.01
0.05
0.26
0.57
0.87
1.03
0.97
0.63
0.03
-0.80
-1.78
-2.81
-3.77
-4.47
-4.76
-4.53
-3.79
-2.68
-1.42
-0.18
0.92
1.90
2.80
3.61
4.22
4.47
4.27
3.65
2.81
2.02
1.50
1.31
1.33
1.37
1.25
0.92
0.49
0.07
-0.21
-0.34
-0.38
-0.48
-0.71
-1.11
-1.56
-1.94
-2.12
-2.07
-1.85
-1.62
-1.49
-1.56
-1.85
-2.35
-3.02
-3.80
-4.59
-5.26
-5.70
-5.84
-5.72
-5.43
-5.10
-4.77
-4.39
-3.85
-3.08
-2.08
-0.93
0.22
1.30
2.26
3.13
3.94
4.73
5.46
6.06
6.48
6.62
6.42
5.84
4.92
3.78
2.64
1.73
1.23
1.15
1.34
1.58
1.64
1.45
1.05
0.56
0.10
-0.33
-0.77
-1.26
-1.77
-2.16
-2.26
-1.95
-1.22
-0.17
1.04
2.27
3.39
4.35
5.09
5.56
5.66
5.37
4.72
3.81
2.80
1.88
1.18
0.74
0.53
0.41
0.20
-0.27
-1.05
-2.09
-3.19
-4.07
-4.48
-4.35
-3.79
-3.00
-2.25
-1.65
-1.22
-0.86
-0.47
-0.06
0.32
0.57
0.64
0.61
0.58
0.65
0.81
0.98
1.06
1.01
0.90
0.87
1.06
1.53
2.20
2.87
3.32
3.37
2.93
2.09
1.01
-0.12
-1.13
-1.92
-2.45
-2.77
-2.94
-3.03
-3.07
-3.08
-3.05
-2.90
-2.52
-1.84
-0.80
0.56
2.05
3.44
4.44
4.86
4.61
3.72
2.36
0.75
-0.84
-2.11
-2.84
-2.89
-2.29
-1.23
0.01
1.15
1.95
2.33
2.29
1.89
1.25
0.41
-0.55
-1.58
-2.55
-3.30
-3.65
-3.52
-2.95
-2.12
-1.26
-0.55
-0.06
0.26
0.50
0.68
0.76
0.63
0.28
-0.23
-0.67
-0.83
-0.60
-0.05
0.60
1.03
0.99
0.39
-0.66
-1.88
-2.88
-3.37
-3.15
-2.24
-0.83
0.81
2.38
3.65
4.47
4.77
4.56
3.94
3.06
2.14
1.35
0.80
0.47
0.27
0.09
-0.16
-0.45
-0.77
-1.11
-1.46
-1.84
-2.23
-2.54
-2.66
-2.49
-2.06
-1.48
-0.93
-0.55
-0.40
-0.48
-0.70
-1.02
-1.35
-1.64
-1.77
-1.64
-1.15
-0.26
0.94
2.30
3.60
4.63
5.21
5.28
4.83
3.99
2.89
1.75
0.71
-0.13
-0.73
-1.13
-1.39
-1.60
-1.78
-1.95
-2.10
-2.20
-2.27
-2.30
-2.33
-2.37
-2.46
-2.60
-2.78
-2.97
-3.11
-3.14
-2.98
-2.57
-1.90
-1.00
0.07
1.20
2.33
3.38
4.32
5.11
5.70
6.03
6.03
5.69
5.02
4.11
3.08
2.07
1.18
0.44
-0.15
-0.62
-1.01
-1.37
-1.70
-2.01
-2.28
-2.51
-2.67
-2.76
-2.79
-2.77
-2.73
-2.69
-2.61
-2.44
-2.15
-1.68
-1.08
-0.43
0.13
0.48
0.58
0.47
0.29
0.20
0.33
0.75
1.39
2.12
2.77
3.17
3.25
2.98
2.40
1.57
0.60
-0.41
-1.37
-2.16
-2.69
-2.92
-2.82
-2.42
-1.81
-1.12
-0.50
-0.05
0.17
0.21
0.15
0.09
0.11
0.21
0.38
0.60
0.89
1.21
1.49
1.58
1.37
0.82
0.06
-0.67
-1.11
-1.08
-0.64
0.04
0.67
1.04
1.04
0.68
0.04
-0.81
-1.82
-2.93
-4.03
-4.94
-5.46
-5.42
-4.80
-3.73
-2.48
-1.31
-0.39
0.29
0.86
1.49
2.34
3.46
4.76
6.07
7.16
7.80
7.80
7.09
5.71
3.87
1.87
0.02
-1.41
-2.26
-2.55
-2.42
-2.10
-1.84
-1.81
-2.12
-2.73
-3.53
-4.40
-5.19
-5.81
-6.15
-6.14
-5.70
-4.82
-3.60
-2.21
-0.87
0.27
1.11
1.72
2.20
2.67
3.18
3.68
4.10
4.33
4.32
4.10
3.75
3.35
2.97
2.64
2.36
2.07
1.71
1.22
0.55
-0.30
-1.30
-2.38
-3.42
-4.30
-4.94
-5.23
-5.13
-4.62
-3.70
-2.45
-0.99
0.47
1.69
2.49
2.77
2.57
2.05
1.46
1.01
0.83
0.94
1.25
1.63
1.96
2.18
2.27
2.26
2.14
1.93
1.66
1.41
1.24
1.20
1.22
1.20
0.99
0.55
-0.07
-0.72
-1.28
-1.68
-2.01
-2.36
-2.78
-3.27
-3.70
-3.98
-4.05
-3.92
-3.62
-3.11
-2.34
-1.26
0.10
1.57
2.90
3.84
4.22
4.01
3.35
2.43
1.46
0.62
0.00
-0.35
-0.44
-0.29
0.04
0.46
0.86
1.12
1.17
1.00
0.69
0.41
0.26
0.28
0.38
0.45
0.36
0.11
-0.19
-0.38
-0.36
-0.16
0.06
0.06
-0.29
-0.99
-1.86
-2.67
-3.19
-3.32
-3.05
-2.49
-1.73
-0.85
0.13
1.17
2.18
3.00
3.45
3.40
2.88
2.09
1.31
0.79
0.68
0.93
1.37
1.78
1.98
1.89
1.54
1.00
0.34
-0.40
-1.13
-1.80
-2.31
-2.60
-2.68
-2.59
-2.43
-2.29
-2.20
-2.12
-2.04
-1.99
-2.04
-2.29
-2.75
-3.29
-3.69
-3.70
-3.18
-2.18
-0.89
0.49
1.81
3.07
4.35
5.66
6.89
7.80
8.12
7.71
6.62
5.12
3.51
2.07
0.91
0.03
-0.66
-1.27
-1.82
-2.30
-2.71
-3.05
-3.38
-3.74
-4.15
-4.55
-4.81
-4.81
-4.46
-3.81
-3.02
-2.35
-1.98
-1.97
-2.15
-2.23
-1.94
-1.16
-0.02
1.21
2.22
2.86
3.10
3.11
3.05
3.05
3.12
3.25
3.39
3.55
3.71
3.84
3.84
3.64
3.18
2.47
1.64
0.82
0.14
-0.32
-0.58
-0.72
-0.86
-1.12
-1.54
-2.08
-2.62
-3.02
-3.15
-2.89
-2.27
-1.37
-0.35
0.62
1.37
1.75
1.73
1.32
0.66
-0.06
-0.67
-1.06
-1.23
-1.25
-1.21
-1.18
-1.15
-1.06
-0.87
-0.59
-0.32
-0.19
-0.27
-0.49
-0.70
-0.72
-0.49
-0.05
0.45
0.90
1.27
1.63
2.08
2.66
3.30
3.85
4.18
4.23
4.00
3.54
2.90
2.12
1.23
0.29
-0.58
-1.29
-1.75
-1.98
-2.06
-2.06
-2.04
-2.01
-1.95
-1.87
-1.81
-1.87
-2.12
-2.60
-3.25
-3.89
-4.32
-4.35
-3.91
-3.04
-1.91
-0.71
0.38
1.27
1.95
2.47
2.91
3.30
3.65
3.97
4.25
4.48
4.64
4.66
4.45
3.96
3.21
2.30
1.37
0.56
-0.11
-0.73
-1.47
-2.44
-3.68
-5.05
-6.27
-7.05
-7.15
-6.56
-5.42
-4.02
-2.64
-1.51
-0.73
-0.35
-0.34
-0.65
-1.15
-1.62
-1.77
-1.33
-0.19
1.49
3.33
4.84
5.59
5.44
4.51
3.15
1.82
0.87
0.48
0.64
1.17
1.79
2.22
2.23
1.73
0.79
-0.35
-1.39
-2.06
-2.23
-1.94
-1.37
-0.76
-0.29
-0.09
-0.17
-0.49
-0.98
-1.54
-2.07
-2.46
-2.63
-2.59
-2.42
-2.23
-2.14
-2.20
-2.35
-2.47
-2.39
-2.04
-1.42
-0.65
0.14
0.85
1.45
1.97
2.41
2.73
2.86
2.71
2.32
1.79
1.31
1.04
1.06
1.29
1.54
1.63
1.45
1.02
0.49
0.02
-0.31
-0.53
-0.74
-1.08
-1.59
-2.20
-2.77
-3.14
-3.22
-3.06
-2.74
-2.40
-2.12
-1.89
-1.68
-1.44
-1.13
-0.75
-0.33
0.07
0.43
0.78
1.19
1.76
2.52
3.39
4.17
4.63
4.59
4.01
3.02
1.86
0.81
0.03
-0.43
-0.63
-0.69
-0.73
-0.81
-0.93
-1.05
-1.11
-1.07
-0.91
-0.69
-0.49
-0.40
-0.46
-0.67
-0.95
-1.23
-1.42
-1.48
-1.42
-1.27
-1.10
-0.97
-0.97
-1.17
-1.60
-2.14
-2.58
-2.62
-2.05
-0.83
0.84
2.55
3.90
4.59
4.54
3.93
2.99
2.00
1.12
0.44
0.02
-0.13
-0.03
0.25
0.59
0.87
0.97
0.79
0.33
-0.36
-1.15
-1.88
-2.40
-2.64
-2.63
-2.48
-2.33
-2.28
-2.37
-2.59
-2.89
-3.26
-3.68
-4.10
-4.45
-4.65
-4.66
-4.51
-4.21
-3.79
-3.23
-2.52
-1.68
-0.85
-0.19
0.20
0.38
0.59
1.11
2.11
3.54
5.11
6.46
7.29
7.45
7.01
6.15
5.08
3.95
2.82
1.68
0.52
-0.68
-1.89
-3.04
-4.05
-4.86
-5.42
-5.74
-5.83
-5.69
-5.23
-4.36
-2.99
-1.18
0.88
2.84
4.36
5.20
5.34
4.98
4.46
4.11
4.14
4.55
5.15
5.66
5.87
5.73
5.32
4.81
4.34
3.99
3.71
3.43
3.13
2.84
2.63
2.51
2.37
2.02
1.30
0.16
-1.25
-2.69
-3.90
-4.72
-5.14
-5.27
-5.24
-5.12
-4.93
-4.62
-4.19
-3.69
-3.19
-2.73
-2.31
-1.87
-1.33
-0.68
0.01
0.66
1.21
1.72
2.33
3.14
4.18
5.32
6.31
6.94
7.03
6.57
5.61
4.28
2.75
1.16
-0.31
-1.51
-2.32
-2.69
-2.68
-2.45
-2.21
-2.12
-2.29
-2.68
-3.20
-3.74
-4.22
-4.64
-4.98
-5.27
-5.46
-5.49
-5.26
-4.73
-3.92
-2.91
-1.79
-0.68
0.32
1.15
1.78
2.23
2.57
2.90
3.31
3.85
4.48
5.11
5.57
5.70
5.44
4.79
3.90
2.94
2.03
1.19
0.37
-0.51
-1.48
-2.45
-3.29
-3.84
-4.04
-3.91
-3.53
-3.01
-2.46
-1.94
-1.52
-1.29
-1.29
-1.46
-1.70
-1.83
-1.70
-1.26
-0.57
0.20
0.86
1.26
1.32
1.06
0.59
0.10
-0.22
-0.23
0.12
0.74
1.50
2.24
2.81
3.17
3.29
3.14
2.71
1.99
1.05
0.07
-0.79
-1.37
-1.63
-1.64
-1.49
-1.25
-0.95
-0.60
-0.21
0.13
0.30
0.23
-0.04
-0.42
-0.76
-0.94
-0.96
-0.89
-0.85
-0.95
-1.18
-1.49
-1.78
-2.01
-2.17
-2.31
-2.44
-2.49
-2.34
-1.87
-1.04
0.08
1.29
2.38
3.24
3.82
4.16
4.29
4.24
4.05
3.73
3.37
3.04
2.78
2.55
2.26
1.82
1.20
0.51
-0.12
-0.59
-0.87
-1.06
-1.29
-1.61
-2.06
-2.55
-3.03
-3.48
-3.90
-4.29
-4.61
-4.71
-4.48
-3.86
-2.97
-2.04
-1.35
-1.05
-1.08
-1.20
-1.08
-0.52
0.47
1.68
2.83
3.72
4.30
4.63
4.75
4.68
4.33
3.63
2.64
1.53
0.56
-0.08
-0.33
-0.30
-0.25
-0.38
-0.84
-1.61
-2.58
-3.58
-4.42
-4.89
-4.82
-4.08
-2.70
-0.87
1.05
2.65
3.63
3.89
3.55
2.89
2.16
1.53
1.03
0.64
0.36
0.22
0.27
0.51
0.90
1.32
1.68
1.90
1.97
1.88
1.61
1.18
0.64
0.06
-0.44
-0.80
-1.01
-1.15
-1.29
-1.43
-1.54
-1.51
-1.26
-0.82
-0.28
0.19
0.44
0.42
0.21
-0.08
-0.31
-0.43
-0.45
-0.46
-0.50
-0.58
-0.66
-0.72
-0.81
-1.00
-1.38
-1.89
-2.38
-2.64
-2.52
-1.97
-1.12
-0.16
0.77
1.61
2.39
3.13
3.75
4.12
4.09
3.60
2.75
1.74
0.82
0.17
-0.16
-0.26
-0.25
-0.25
-0.34
-0.51
-0.69
-0.77
-0.72
-0.57
-0.43
-0.47
-0.75
-1.25
-1.78
-2.16
-2.24
-2.05
-1.72
-1.46
-1.36
-1.45
-1.62
-1.74
-1.75
-1.59
-1.23
-0.63
0.22
1.26
2.33
3.21
3.71
3.75
3.38
2.75
2.04
1.37
0.81
0.35
0.00
-0.22
-0.29
-0.19
0.04
0.37
0.70
0.96
1.06
0.95
0.63
0.14
-0.38
-0.79
-1.00
-0.93
-0.65
-0.23
0.21
0.58
0.84
0.99
1.02
0.94
0.76
0.47
0.10
-0.34
-0.82
-1.29
-1.71
-2.00
-2.08
-1.92
-1.52
-0.99
-0.43
0.03
0.33
0.46
0.48
0.41
0.26
-0.02
-0.42
-0.92
-1.40
-1.75
-1.88
-1.76
-1.40
-0.84
-0.10
0.77
1.70
2.51
3.01
3.07
2.69
2.01
1.28
0.69
0.33
0.20
0.20
0.23
0.23
0.19
0.06
-0.21
-0.72
-1.49
-2.53
-3.66
-4.66
-5.28
-5.32
-4.70
-3.52
-2.00
-0.42
0.94
1.92
2.45
2.58
2.45
2.18
1.90
1.70
1.63
1.71
1.88
2.10
2.28
2.37
2.31
2.09
1.73
1.26
0.74
0.20
-0.31
-0.77
-1.14
-1.39
-1.48
-1.42
-1.29
-1.17
-1.20
-1.44
-1.86
-2.35
-2.80
-3.10
-3.28
-3.37
-3.40
-3.34
-3.10
-2.54
-1.58
-0.27
1.25
2.73
3.95
4.70
4.90
4.59
3.89
2.94
1.92
0.92
0.05
-0.63
-1.04
-1.18
-1.09
-0.86
-0.67
-0.65
-0.85
-1.21
-1.59
-1.81
-1.79
-1.51
-1.05
-0.52
0.01
0.51
0.94
1.29
1.48
1.44
1.15
0.68
0.15
-0.25
-0.43
-0.41
-0.31
-0.27
-0.37
-0.56
-0.72
-0.72
-0.51
-0.13
0.28
0.61
0.77
0.76
0.56
0.21
-0.24
-0.65
-0.89
-0.82
-0.42
0.20
0.81
1.22
1.29
1.06
0.69
0.33
0.10
-0.01
-0.08
-0.22
-0.50
-0.91
-1.39
-1.83
-2.14
-2.31
-2.31
-2.19
-2.01
-1.83
-1.69
-1.63
-1.69
-1.87
-2.14
-2.48
-2.83
-3.17
-3.46
-3.70
-3.87
-3.97
-3.97
-3.85
-3.57
-3.12
-2.48
-1.67
-0.72
0.28
1.26
2.14
2.89
3.52
4.03
4.44
4.74
4.86
4.80
4.58
4.27
3.93
3.65
3.47
3.39
3.38
3.41
3.43
3.34
3.06
2.51
1.65
0.56
-0.63
-1.70
-2.46
-2.80
-2.71
-2.27
-1.58
-0.73
0.22
1.20
2.11
2.81
3.19
3.19
2.88
2.39
1.87
1.40
0.97
0.57
0.18
-0.15
-0.36
-0.38
-0.26
-0.11
-0.10
-0.36
-0.91
-1.61
-2.23
-2.51
-2.27
-1.53
-0.54
0.33
0.74
0.55
-0.16
-1.08
-1.92
-2.46
-2.69
-2.68
-2.48
-2.08
-1.42
-0.48
0.60
1.59
2.24
2.43
2.20
1.78
1.39
1.20
1.28
1.53
1.83
2.02
2.00
1.72
1.21
0.58
-0.01
-0.41
-0.53
-0.42
-0.19
0.01
0.07
-0.02
-0.17
-0.26
-0.25
-0.17
-0.11
-0.18
-0.39
-0.69
-0.97
-1.17
-1.28
-1.38
-1.49
-1.56
-1.48
-1.15
-0.55
0.22
0.97
1.56
1.92
2.08
2.11
2.06
1.91
1.58
1.04
0.28
-0.58
-1.35
-1.85
-1.94
-1.62
-0.96
-0.14
0.62
1.14
1.34
1.24
0.95
0.60
0.31
0.15
0.07
0.00
-0.15
-0.46
-0.91
-1.41
-1.85
-2.13
-2.24
-2.23
-2.17
-2.08
-1.92
-1.59
-0.99
-0.15
0.82
1.74
2.42
2.78
2.88
2.80
2.67
2.55
2.43
2.28
2.06
1.74
1.34
0.91
0.50
0.16
-0.08
-0.20
-0.24
-0.25
-0.29
-0.40
-0.56
-0.75
-0.97
-1.21
-1.51
-1.88
-2.29
-2.68
-2.94
-3.01
-2.86
-2.55
-2.21
-1.96
-1.88
-1.89
-1.87
-1.65
-1.11
-0.27
0.75
1.78
2.72
3.51
4.20
4.79
5.22
5.36
5.07
4.35
3.31
2.11
0.96
-0.04
-0.89
-1.61
-2.23
-2.72
-3.03
-3.15
-3.11
-3.03
-2.99
-3.04
-3.12
-3.16
-3.08
-2.85
-2.49
-2.05
-1.57
-1.10
-0.64
-0.22
0.13
0.41
0.68
1.02
1.52
2.19
2.92
3.54
3.89
3.87
3.51
2.93
2.25
1.57
0.91
0.30
-0.25
-0.73
-1.10
-1.42
-1.74
-2.11
-2.49
-2.75
-2.74
-2.38
-1.73
-0.98
-0.35
-0.00
0.06
-0.04
-0.09
0.02
0.32
0.68
0.97
1.10
1.06
0.90
0.67
0.34
-0.15
-0.84
-1.65
-2.39
-2.85
-2.85
-2.40
-1.65
-0.83
-0.12
0.43
0.84
1.21
1.56
1.86
2.04
2.06
1.91
1.64
1.35
1.11
0.99
1.02
1.15
1.31
1.42
1.42
1.28
1.02
0.67
0.28
-0.12
-0.49
-0.79
-1.00
-1.13
-1.21
-1.29
-1.42
-1.57
-1.68
-1.70
-1.64
-1.56
-1.55
-1.64
-1.75
-1.75
-1.49
-0.94
-0.18
0.62
1.33
1.86
2.21
2.41
2.45
2.30
1.94
1.45
0.93
0.55
0.38
0.43
0.62
0.84
0.97
0.99
0.88
0.69
0.43
0.16
-0.12
-0.35
-0.53
-0.62
-0.64
-0.60
-0.56
-0.57
-0.67
-0.84
-1.07
-1.34
-1.63
-1.92
-2.20
-2.36
-2.28
-1.83
-0.98
0.19
1.45
2.53
3.22
3.44
3.21
2.68
2.01
1.34
0.73
0.24
-0.17
-0.51
-0.79
-1.01
-1.14
-1.16
-1.10
-1.01
-0.92
-0.89
-0.89
-0.87
-0.81
-0.67
-0.47
-0.21
0.05
0.27
0.38
0.32
0.06
-0.37
-0.90
-1.45
-1.97
-2.40
-2.66
-2.66
-2.31
-1.56
-0.52
0.64
1.67
2.38
2.73
2.83
2.82
2.84
2.92
3.04
3.11
3.08
2.92
2.66
2.32
1.95
1.60
1.28
0.98
0.67
0.35
0.02
-0.29
-0.58
-0.88
-1.23
-1.66
-2.13
-2.56
-2.81
-2.84
-2.67
-2.45
-2.30
-2.32
-2.48
-2.70
-2.91
-3.02
-3.02
-2.88
-2.60
-2.15
-1.54
-0.77
0.15
1.16
2.17
3.06
3.66
3.88
3.71
3.30
2.86
2.60
2.59
2.76
2.90
2.82
2.43
1.78
1.03
0.38
-0.04
-0.21
-0.23
-0.26
-0.43
-0.76
-1.20
-1.64
-2.00
-2.25
-2.44
-2.59
-2.71
-2.77
-2.73
-2.59
-2.42
-2.25
-2.09
-1.82
-1.30
-0.41
0.82
2.24
3.54
4.46
4.82
4.60
3.95
3.07
2.18
1.42
0.87
0.53
0.36
0.31
0.32
0.35
0.33
0.23
0.03
-0.23
-0.49
-0.68
-0.75
-0.72
-0.66
-0.63
-0.67
-0.75
-0.84
-0.91
-0.94
-0.91
-0.85
-0.72
-0.56
-0.38
-0.28
-0.32
-0.50
-0.75
-0.93
-0.88
-0.49
0.23
1.16
2.09
2.81
3.20
3.20
2.87
2.34
1.73
1.15
0.61
0.10
-0.41
-0.94
-1.43
-1.83
-2.05
-2.07
-1.88
-1.53
-1.09
-0.63
-0.20
0.10
0.25
0.21
0.03
-0.22
-0.46
-0.60
-0.60
-0.47
-0.24
0.03
0.29
0.46
0.53
0.47
0.36
0.26
0.26
0.39
0.63
0.91
1.13
1.22
1.16
0.98
0.76
0.58
0.42
0.24
-0.07
-0.59
-1.30
-2.05
-2.65
-2.91
-2.78
-2.33
-1.76
-1.27
-1.00
-0.93
-1.00
-1.06
-1.04
-0.87
-0.57
-0.17
0.32
0.82
1.27
1.54
1.53
1.21
0.69
0.14
-0.21
-0.20
0.14
0.70
1.24
1.64
1.84
1.90
1.86
1.69
1.32
0.70
-0.09
-0.89
-1.45
-1.64
-1.51
-1.21
-0.96
-0.89
-1.02
-1.19
-1.27
-1.17
-0.88
-0.50
-0.16
0.05
0.10
0.03
-0.07
-0.10
-0.05
0.05
0.08
-0.03
-0.28
-0.62
-0.93
-1.14
-1.23
-1.22
-1.13
-0.95
-0.65
-0.16
0.50
1.26
1.99
2.58
2.95
3.06
2.93
2.60
2.13
1.60
1.10
0.69
0.38
0.14
-0.10
-0.37
-0.70
-1.05
-1.37
-1.58
-1.65
-1.56
-1.30
-0.90
-0.40
0.14
0.62
0.97
1.18
1.27
1.28
1.26
1.23
1.18
1.11
0.98
0.78
0.51
0.21
-0.04
-0.15
-0.08
0.15
0.40
0.52
0.37
-0.05
-0.60
-1.06
-1.25
-1.11
-0.69
-0.15
0.34
0.67
0.77
0.65
0.35
-0.07
-0.53
-0.98
-1.35
-1.60
-1.70
-1.67
-1.54
-1.33
-1.09
-0.82
-0.52
-0.24
-0.04
-0.02
-0.21
-0.57
-0.94
-1.15
-1.07
-0.71
-0.18
0.39
0.91
1.38
1.80
2.17
2.38
2.36
2.05
1.54
0.96
0.46
0.10
-0.13
-0.25
-0.29
-0.25
-0.16
-0.10
-0.20
-0.55
-1.18
-1.97
-2.69
-3.13
-3.19
-2.92
-2.51
-2.15
-1.96
-1.92
-1.95
-1.94
-1.90
-1.89
-2.05
-2.45
-3.01
-3.59
-3.98
-4.09
-3.91
-3.56
-3.16
-2.79
-2.48
-2.21
-1.96
-1.75
-1.55
-1.31
-0.96
-0.42
0.35
1.25
2.15
2.91
3.43
3.69
3.74
3.63
3.39
3.06
2.66
2.25
1.92
1.73
1.73
1.86
2.05
2.22
2.30
2.28
2.17
2.01
1.83
1.64
1.42
1.19
0.98
0.85
0.84
0.99
1.29
1.69
2.15
2.57
2.89
3.05
3.00
2.72
2.24
1.62
0.96
0.32
-0.26
-0.74
-1.12
-1.33
-1.34
-1.12
-0.73
-0.31
-0.01
0.07
-0.08
-0.40
-0.78
-1.12
-1.36
-1.47
-1.43
-1.24
-0.91
-0.46
-0.01
0.36
0.57
0.61
0.50
0.28
0.01
-0.27
-0.48
-0.57
-0.47
-0.19
0.22
0.67
1.06
1.37
1.60
1.77
1.89
1.89
1.73
1.37
0.81
0.18
-0.39
-0.75
-0.83
-0.66
-0.36
-0.06
0.13
0.17
0.07
-0.10
-0.30
-0.50
-0.69
-0.84
-0.89
-0.81
-0.60
-0.39
-0.31
-0.49
-0.92
-1.53
-2.18
-2.75
-3.20
-3.49
-3.59
-3.42
-2.94
-2.12
-1.08
0.00
0.97
1.76
2.39
2.88
3.20
3.21
2.82
2.05
1.10
0.29
-0.16
-0.17
0.07
0.33
0.40
0.26
0.02
-0.16
-0.17
-0.09
-0.02
-0.09
-0.33
-0.67
-1.00
-1.20
-1.21
-1.08
-0.90
-0.79
-0.83
-1.00
-1.23
-1.42
-1.46
-1.36
-1.21
-1.15
-1.23
-1.42
-1.54
-1.39
-0.85
0.06
1.19
2.30
3.21
3.81
4.15
4.32
4.41
4.44
4.32
3.97
3.34
2.47
1.50
0.61
-0.08
-0.52
-0.78
-0.94
-1.06
-1.12
-1.06
-0.83
-0.47
-0.09
0.16
0.15
-0.11
-0.51
-0.87
-1.04
-0.96
-0.68
-0.38
-0.19
-0.20
-0.45
-0.88
-1.45
-2.13
-2.89
-3.63
-4.20
-4.43
-4.16
-3.39
-2.25
-0.95
0.29
1.32
2.10
2.60
2.85
2.86
2.68
2.39
2.07
1.78
1.56
1.38
1.22
1.11
1.09
1.23
1.53
1.88
2.15
2.22
2.06
1.76
1.44
1.16
0.92
0.63
0.20
-0.38
-1.05
-1.68
-2.14
-2.39
-2.51
-2.57
-2.69
-2.90
-3.19
-3.48
-3.68
-3.71
-3.53
-3.11
-2.45
-1.62
-0.65
0.36
1.32
2.14
2.76
3.15
3.32
3.32
3.23
3.10
2.97
2.81
2.57
2.19
1.63
0.94
0.17
-0.57
-1.18
-1.58
-1.76
-1.76
-1.64
-1.48
-1.35
-1.35
-1.52
-1.85
-2.27
-2.68
-2.93
-2.92
-2.61
-2.06
-1.39
-0.78
-0.38
-0.27
-0.39
-0.60
-0.69
-0.48
0.09
0.96
1.96
2.86
3.48
3.79
3.82
3.65
3.35
2.95
2.45
1.85
1.20
0.56
-0.01
-0.54
-1.01
-1.45
-1.81
-2.03
-2.08
-2.04
-2.01
-2.10
-2.29
-2.48
-2.50
-2.21
-1.62
-0.85
-0.08
0.55
1.00
1.28
1.41
1.37
1.11
0.60
-0.13
-0.96
-1.72
-2.24
-2.41
-2.20
-1.64
-0.84
0.07
0.96
1.72
2.25
2.51
2.49
2.24
1.85
1.45
1.18
1.10
1.21
1.42
1.58
1.53
1.18
0.59
-0.11
-0.69
-1.00
-0.94
-0.59
-0.14
0.22
0.36
0.31
0.18
0.13
0.20
0.34
0.43
0.43
0.37
0.32
0.36
0.44
0.43
0.19
-0.35
-1.13
-1.98
-2.72
-3.22
-3.39
-3.18
-2.61
-1.69
-0.54
0.67
1.74
2.47
2.78
2.67
2.24
1.60
0.88
0.21
-0.30
-0.56
-0.56
-0.29
0.15
0.67
1.15
1.47
1.54
1.33
0.86
0.24
-0.36
-0.80
-0.97
-0.88
-0.62
-0.30
0.03
0.33
0.61
0.84
0.93
0.74
0.17
-0.76
-1.87
-2.86
-3.49
-3.64
-3.39
-2.93
-2.42
-1.94
-1.40
-0.70
0.15
1.03
1.71
2.00
1.87
1.47
1.01
0.67
0.49
0.42
0.38
0.34
0.37
0.53
0.89
1.43
2.08
2.75
3.30
3.66
3.74
3.51
2.96
2.19
1.31
0.46
-0.24
-0.79
-1.24
-1.64
-2.02
-2.34
-2.51
-2.44
-2.10
-1.48
-0.67
0.19
0.92
1.27
0.98
-0.13
-2.06
-4.58
-7.20
-9.27
-10.16
-9.47
-7.21
-3.83
-0.10
3.12
5.17
5.83
5.39
4.47
3.79
3.78
4.53
5.68
6.75
7.32
7.24
6.61
5.67
4.59
3.44
2.17
0.76
-0.71
-2.10
-3.20
-3.91
-4.28
-4.47
-4.66
-4.98
-5.38
-5.69
-5.68
-5.23
-4.31
-3.10
-1.83
-0.77
-0.09
0.20
0.21
0.13
0.11
0.24
0.51
0.87
1.30
1.76
2.22
2.67
3.02
3.23
3.26
3.14
2.90
2.58
2.17
1.64
0.97
0.16
-0.73
-1.63
-2.43
-3.09
-3.58
-3.90
-4.05
-4.01
-3.72
-3.15
-2.30
-1.21
-0.02
1.14
2.11
2.82
3.23
3.36
3.25
2.92
2.41
1.77
1.08
0.41
-0.14
-0.53
-0.73
-0.76
-0.70
-0.62
-0.62
-0.73
-0.92
-1.13
-1.30
-1.36
-1.33
-1.24
-1.15
-1.13
-1.22
-1.41
-1.68
-1.99
-2.21
-2.25
-2.02
-1.50
-0.78
0.02
0.78
1.47
2.11
2.80
3.57
4.40
5.16
5.68
5.79
5.38
4.42
3.04
1.48
0.02
-1.12
-1.81
-2.09
-2.08
-1.92
-1.70
-1.44
-1.17
-0.93
-0.80
-0.80
-0.90
-1.00
-0.95
-0.71
-0.35
-0.03
0.06
-0.16
-0.64
-1.24
-1.75
-2.03
-2.00
-1.68
-1.13
-0.42
0.35
1.10
1.77
2.30
2.67
2.84
2.79
2.50
2.00
1.38
0.78
0.34
0.12
0.07
0.06
-0.02
-0.16
-0.28
-0.26
-0.03
0.36
0.73
0.90
0.79
0.46
0.08
-0.20
-0.31
-0.34
-0.39
-0.60
-0.97
-1.40
-1.78
-2.01
-2.11
-2.14
-2.17
-2.22
-2.26
-2.18
-1.90
-1.41
-0.74
-0.00
0.73
1.43
2.09
2.67
3.06
3.14
2.79
2.05
1.10
0.23
-0.32
-0.46
-0.27
0.08
0.43
0.68
0.81
0.80
0.65
0.33
-0.16
-0.74
-1.27
-1.63
-1.75
-1.68
-1.50
-1.30
-1.11
-0.97
-0.90
-0.99
-1.28
-1.74
-2.25
-2.58
-2.55
-2.07
-1.22
-0.19
0.83
1.69
2.35
2.79
3.02
2.98
2.61
1.90
0.94
-0.13
-1.10
-1.80
-2.16
-2.19
-1.98
-1.65
-1.29
-0.97
-0.70
-0.50
-0.32
-0.15
0.03
0.21
0.39
0.57
0.75
0.93
1.15
1.42
1.71
1.97
2.05
1.85
1.30
0.47
-0.44
-1.18
-1.53
-1.39
-0.84
-0.09
0.63
1.16
1.40
1.36
1.11
0.69
0.19
-0.34
-0.86
-1.31
-1.63
-1.81
-1.87
-1.85
-1.82
-1.84
-1.95
-2.12
-2.29
-2.34
-2.20
-1.86
-1.41
-0.99
-0.75
-0.78
-1.07
-1.62
-2.36
-3.23
-4.14
-4.96
-5.53
-5.73
-5.52
-5.01
-4.37
-3.83
-3.54
-3.56
-3.88
-4.44
-5.05
-5.40
-5.07
-3.60
-0.72
3.43
8.28
12.92
16.46
18.25
18.13
16.34
13.43
10.00
6.59
3.56
1.14
-0.57
-1.61
-2.12
-2.28
-2.30
-2.28
-2.25
-2.16
-1.95
-1.62
-1.26
-0.99
-0.91
-1.07
-1.42
-1.88
-2.35
-2.73
-2.94
-2.89
-2.48
-1.68
-0.50
0.88
2.19
3.20
3.75
3.82
3.55
3.13
2.71
2.34
2.01
1.68
1.28
0.79
0.22
-0.41
-1.05
-1.57
-1.89
-1.91
-1.65
-1.23
-0.84
-0.62
-0.61
-0.75
-0.92
-1.03
-1.08
-1.15
-1.32
-1.60
-1.93
-2.20
-2.34
-2.30
-2.09
-1.73
-1.23
-0.58
0.21
1.05
1.83
2.39
2.67
2.67
2.46
2.18
1.93
1.76
1.66
1.58
1.49
1.39
1.27
1.10
0.87
0.53
0.11
-0.36
-0.79
-1.13
-1.35
-1.47
-1.52
-1.56
-1.61
-1.69
-1.74
-1.71
-1.52
-1.10
-0.48
0.25
0.89
1.25
1.24
0.93
0.48
0.09
-0.13
-0.12
0.06
0.39
0.82
1.34
1.90
2.40
2.72
2.77
2.55
2.12
1.56
0.97
0.40
-0.10
-0.52
-0.82
-1.00
-1.04
-0.93
-0.66
-0.22
0.33
0.89
1.30
1.44
1.25
0.78
0.18
-0.45
-0.99
-1.40
-1.65
-1.74
-1.68
-1.49
-1.22
-0.91
-0.65
-0.47
-0.41
-0.51
-0.76
-1.16
-1.61
-1.99
-2.14
-1.93
-1.31
-0.31
0.91
2.16
3.20
3.82
3.93
3.53
2.78
1.91
1.16
0.71
0.65
0.93
1.41
1.89
2.18
2.16
1.77
1.05
0.12
-0.84
-1.63
-2.11
-2.24
-2.13
-1.93
-1.78
-1.73
-1.72
-1.66
-1.47
-1.16
-0.81
-0.56
-0.47
-0.56
-0.79
-1.11
-1.42
-1.64
-1.64
-1.29
-0.56
0.48
1.63
2.65
3.31
3.54
3.37
2.94
2.38
1.79
1.20
0.65
0.13
-0.36
-0.79
-1.12
-1.30
-1.30
-1.13
-0.85
-0.55
-0.30
-0.14
-0.00
0.16
0.40
0.65
0.83
0.83
0.63
0.29
-0.04
-0.26
-0.34
-0.33
-0.34
-0.44
-0.65
-0.94
-1.23
-1.55
-1.90
-2.28
-2.66
-2.87
-2.75
-2.19
-1.21
0.03
1.28
2.33
3.03
3.37
3.43
3.28
2.99
2.60
2.13
1.59
1.07
0.64
0.35
0.20
0.14
0.06
-0.11
-0.40
-0.78
-1.17
-1.47
-1.64
-1.67
-1.58
-1.43
-1.21
-0.95
-0.68
-0.43
-0.26
-0.19
-0.21
-0.31
-0.48
-0.68
-0.91
-1.18
-1.47
-1.77
-2.01
-2.14
-2.07
-1.78
-1.26
-0.61
0.08
0.71
1.22
1.57
1.79
1.87
1.80
1.57
1.20
0.74
0.36
0.18
0.31
0.76
1.42
2.09
2.58
2.71
2.47
1.96
1.33
0.76
0.34
0.03
-0.25
-0.58
-0.99
-1.44
-1.87
-2.27
-2.66
-3.11
-3.64
-4.16
-4.54
-4.61
-4.27
-3.51
-2.43
-1.18
0.10
1.26
2.25
3.04
3.65
4.09
4.35
4.35
4.00
3.29
2.27
1.15
0.17
-0.47
-0.70
-0.61
-0.39
-0.22
-0.22
-0.40
-0.70
-1.07
-1.44
-1.79
-2.05
-2.14
-2.00
-1.61
-1.00
-0.31
0.29
0.67
0.77
0.61
0.27
-0.15
-0.57
-0.90
-1.08
-1.09
-0.88
-0.46
0.12
0.81
1.49
2.07
2.44
2.53
2.30
1.78
1.03
0.18
-0.61
-1.23
-1.59
-1.72
-1.71
-1.62
-1.49
-1.30
-0.98
-0.46
0.22
0.96
1.58
1.92
1.92
1.60
1.09
0.53
0.05
-0.31
-0.55
-0.69
-0.78
-0.89
-1.06
-1.34
-1.74
-2.16
-2.43
-2.36
-1.85
-0.96
0.14
1.17
1.95
2.37
2.49
2.41
2.22
1.93
1.54
1.05
0.54
0.13
-0.09
-0.08
0.11
0.36
0.57
0.65
0.58
0.37
0.09
-0.19
-0.35
-0.37
-0.26
-0.12
-0.04
-0.07
-0.20
-0.35
-0.45
-0.49
-0.49
-0.52
-0.63
-0.81
-1.01
-1.15
-1.17
-1.01
-0.64
-0.09
0.59
1.31
1.93
2.29
2.34
2.05
1.51
0.84
0.18
-0.38
-0.77
-0.98
-1.05
-0.98
-0.81
-0.58
-0.33
-0.12
0.05
0.12
0.11
0.04
-0.08
-0.21
-0.33
-0.45
-0.53
-0.54
-0.46
-0.31
-0.16
-0.11
-0.23
-0.50
-0.82
-1.02
-1.01
-0.78
-0.43
-0.08
0.17
0.32
0.41
0.47
0.49
0.39
0.14
-0.25
-0.70
-1.10
-1.33
-1.32
-1.06
-0.60
-0.02
0.53
0.94
1.12
1.09
0.96
0.85
0.84
0.93
1.03
0.99
0.76
0.34
-0.18
-0.65
-0.96
-1.12
-1.19
-1.32
-1.63
-2.11
-2.62
-2.89
-2.72
-2.07
-1.10
-0.11
0.64
1.04
1.22
1.34
1.55
1.80
1.94
1.86
1.54
1.10
0.72
0.49
0.37
0.26
0.09
-0.14
-0.38
-0.54
-0.60
-0.60
-0.60
-0.63
-0.69
-0.74
-0.75
-0.70
-0.62
-0.54
-0.48
-0.46
-0.53
-0.73
-1.06
-1.45
-1.75
-1.81
-1.51
-0.85
0.03
0.93
1.66
2.17
2.50
2.74
2.95
3.12
3.12
2.89
2.41
1.77
1.10
0.50
0.04
-0.31
-0.60
-0.85
-1.05
-1.19
-1.28
-1.37
-1.51
-1.74
-2.02
-2.30
-2.46
-2.40
-2.06
-1.50
-0.83
-0.23
0.15
0.25
0.15
-0.01
-0.07
-0.01
0.12
0.17
0.08
-0.13
-0.29
-0.23
0.14
0.80
1.60
2.35
2.89
3.12
3.02
2.65
2.10
1.52
0.99
0.59
0.32
0.18
0.13
0.18
0.31
0.43
0.47
0.36
0.09
-0.26
-0.57
-0.75
-0.80
-0.76
-0.66
-0.51
-0.26
0.08
0.46
0.77
0.86
0.68
0.24
-0.35
-0.95
-1.46
-1.80
-1.97
-1.97
-1.80
-1.44
-0.86
-0.08
0.85
1.78
2.54
2.91
2.81
2.25
1.44
0.61
-0.03
-0.37
-0.49
-0.45
-0.37
-0.27
-0.15
-0.03
0.05
-0.03
-0.32
-0.78
-1.27
-1.59
-1.62
-1.37
-0.96
-0.60
-0.43
-0.48
-0.74
-1.10
-1.46
-1.79
-2.06
-2.23
-2.21
-1.92
-1.31
-0.47
0.45
1.24
1.76
1.97
1.95
1.84
1.77
1.78
1.84
1.84
1.70
1.36
0.87
0.29
-0.29
-0.78
-1.12
-1.25
-1.15
-0.88
-0.51
-0.19
0.04
0.16
0.22
0.29
0.40
0.53
0.61
0.60
0.50
0.34
0.17
-0.03
-0.30
-0.70
-1.22
-1.78
-2.22
-2.41
-2.29
-1.86
-1.20
-0.38
0.52
1.43
2.26
2.90
3.24
3.25
2.93
2.37
1.71
1.05
0.46
-0.05
-0.45
-0.75
-0.91
-0.92
-0.82
-0.67
-0.57
-0.59
-0.73
-0.87
-0.87
-0.58
0.06
0.98
1.96
2.71
2.98
2.60
1.60
0.21
-1.23
-2.31
-2.75
-2.47
-1.69
-0.86
-0.48
-0.92
-2.23
-4.16
-6.24
-8.03
-9.26
-9.93
-10.23
-10.34
-10.26
-9.77
-8.59
-6.48
-3.50
0.01
3.54
6.59
8.81
10.02
10.19
9.44
7.93
5.99
4.03
2.55
1.93
2.33
3.56
5.13
6.46
7.05
6.67
5.35
3.37
1.12
-1.00
-2.64
-3.59
-3.78
-3.32
-2.47
-1.54
-0.82
-0.42
-0.30
-0.29
-0.19
0.08
0.53
1.08
1.67
2.27
2.89
3.46
3.89
4.04
3.84
3.31
2.59
1.87
1.30
0.92
0.67
0.47
0.23
-0.10
-0.52
-0.99
-1.46
-1.89
-2.24
-2.48
-2.60
-2.64
-2.67
-2.73
-2.83
-2.91
-2.89
-2.73
-2.40
-1.95
-1.42
-0.84
-0.21
0.48
1.21
1.91
2.49
2.91
3.12
3.17
3.08
2.85
2.46
1.90
1.19
0.43
-0.26
-0.80
-1.15
-1.37
-1.50
-1.58
-1.56
-1.36
-0.94
-0.35
0.27
0.70
0.75
0.29
-0.67
-2.00
-3.44
-4.68
-5.46
-5.63
-5.22
-4.41
-3.42
-2.43
-1.52
-0.68
0.11
0.81
1.28
1.43
1.24
0.91
0.77
1.15
2.22
3.94
6.01
8.02
9.60
10.46
10.47
9.64
8.11
6.14
3.99
1.91
0.03
-1.68
-3.36
-5.09
-6.83
-8.34
-9.29
-9.44
-8.77
-7.52
-6.08
-4.80
-3.82
-3.04
-2.19
-1.05
0.44
2.14
3.72
4.87
5.36
5.21
4.61
3.90
3.37
3.15
3.19
3.25
3.13
2.78
2.29
1.88
1.69
1.68
1.64
1.34
0.64
-0.35
-1.40
-2.23
-2.68
-2.72
-2.48
-2.13
-1.81
-1.61
-1.57
-1.68
-1.87
-2.07
-2.18
-2.18
-2.08
-1.91
-1.71
-1.47
-1.16
-0.77
-0.34
0.02
0.22
0.23
0.13
0.10
0.26
0.65
1.16
1.59
1.79
1.71
1.44
1.13
0.93
0.88
0.90
0.90
0.79
0.58
0.32
0.05
-0.22
-0.57
-1.05
-1.66
-2.32
-2.89
-3.24
-3.33
-3.22
-3.00
-2.74
-2.40
-1.88
-1.10
-0.11
0.94
1.81
2.34
2.51
2.44
2.33
2.33
2.50
2.82
3.22
3.63
3.99
4.24
4.27
3.96
3.23
2.10
0.76
-0.54
-1.52
-2.01
-2.02
-1.73
-1.41
-1.32
-1.53
-2.00
-2.54
-2.98
-3.26
-3.41
-3.52
-3.65
-3.71
-3.56
-3.08
-2.27
-1.26
-0.29
0.43
0.81
0.96
1.07
1.35
1.93
2.74
3.64
4.39
4.82
4.86
4.54
3.97
3.31
2.65
2.07
1.56
1.10
0.66
0.25
-0.09
-0.28
-0.27
-0.09
0.19
0.42
0.44
0.16
-0.42
-1.21
-2.06
-2.81
-3.35
-3.64
-3.68
-3.51
-3.17
-2.68
-2.09
-1.49
-1.00
-0.76
-0.82
-1.15
-1.58
-1.92
-2.01
-1.81
-1.35
-0.72
-0.00
0.75
1.53
2.24
2.75
2.94
2.71
2.15
1.46
0.87
0.56
0.58
0.82
1.13
1.41
1.58
1.63
1.58
1.44
1.27
1.11
1.00
0.97
0.93
0.78
0.44
-0.09
-0.65
-1.04
-1.10
-0.91
-0.69
-0.74
-1.24
-2.11
-2.99
-3.46
-3.24
-2.33
-1.02
0.23
1.07
1.39
1.33
1.15
1.06
1.12
1.24
1.24
0.99
0.45
-0.33
-1.27
-2.27
-3.22
-3.98
-4.35
-4.11
-3.14
-1.43
0.84
3.36
5.73
7.57
8.53
8.41
7.18
5.00
2.23
-0.68
-3.30
-5.34
-6.75
-7.60
-8.06
-8.25
-8.21
-7.96
-7.49
-6.86
-6.13
-5.32
-4.43
-3.40
-2.18
-0.83
0.49
1.56
2.24
2.45
2.30
1.95
1.55
1.14
0.73
0.30
-0.12
-0.40
-0.38
0.06
0.92
2.10
3.41
4.66
5.68
6.34
6.53
6.23
5.47
4.37
3.14
1.98
1.04
0.35
-0.13
-0.49
-0.73
-0.84
-0.72
-0.31
0.35
1.09
1.67
1.88
1.64
1.08
0.46
0.09
0.13
0.56
1.16
1.62
1.71
1.35
0.64
-0.29
-1.28
-2.23
-3.13
-3.93
-4.59
-5.05
-5.24
-5.13
-4.76
-4.22
-3.55
-2.80
-1.96
-1.04
-0.04
0.98
1.99
2.95
3.82
4.59
5.24
5.70
5.88
5.74
5.29
4.59
3.77
2.94
2.18
1.50
0.88
0.30
-0.25
-0.77
-1.23
-1.61
-1.92
-2.18
-2.44
-2.74
-3.14
-3.63
-4.18
-4.69
-5.02
-5.06
-4.75
-4.10
-3.21
-2.19
-1.19
-0.33
0.32
0.73
0.90
0.87
0.69
0.43
0.15
-0.07
-0.17
-0.12
0.08
0.38
0.75
1.14
1.56
1.98
2.37
2.62
2.66
2.41
1.91
1.27
0.60
-0.05
-0.67
-1.31
-1.95
-2.50
-2.81
-2.77
-2.38
-1.74
-1.02
-0.38
0.09
0.38
0.54
0.62
0.69
0.80
0.97
1.19
1.40
1.50
1.41
1.07
0.53
-0.11
-0.72
-1.20
-1.52
-1.68
-1.72
-1.64
-1.43
-1.06
-0.56
-0.01
0.46
0.75
0.86
0.84
0.80
0.80
0.87
0.96
1.02
1.02
0.97
0.87
0.77
0.66
0.55
0.45
0.38
0.33
0.26
0.12
-0.11
-0.44
-0.83
-1.23
-1.57
-1.82
-1.95
-1.98
-1.91
-1.74
-1.48
-1.16
-0.82
-0.53
-0.34
-0.29
-0.34
-0.39
-0.28
0.07
0.67
1.40
2.10
2.60
2.85
2.86
2.68
2.35
1.86
1.25
0.59
-0.02
-0.45
-0.62
-0.55
-0.32
-0.06
0.13
0.21
0.15
-0.04
-0.32
-0.62
-0.84
-0.84
-0.55
-0.02
0.64
1.25
1.64
1.76
1.66
1.48
1.33
1.27
1.21
1.03
0.63
0.01
-0.68
-1.24
-1.51
-1.44
-1.13
-0.72
-0.34
-0.05
0.17
0.31
0.34
0.20
-0.14
-0.64
-1.15
-1.48
-1.46
-1.06
-0.38
0.34
0.92
1.24
1.30
1.25
1.22
1.27
1.39
1.49
1.51
1.40
1.19
0.88
0.46
-0.13
-0.84
-1.57
-2.16
-2.46
-2.45
-2.25
-2.07
-2.05
-2.22
-2.43
-2.49
-2.29
-1.81
-1.15
-0.39
0.38
1.17
1.93
2.60
3.07
3.26
3.12
2.70
2.13
1.56
1.08
0.74
0.52
0.34
0.12
-0.19
-0.62
-1.14
-1.66
-2.07
-2.30
-2.35
-2.24
-2.03
-1.79
-1.54
-1.32
-1.09
-0.85
-0.59
-0.36
-0.21
-0.25
-0.49
-0.87
-1.22
-1.32
-1.00
-0.24
0.79
1.85
2.67
3.11
3.19
2.97
2.54
1.96
1.28
0.56
-0.08
-0.51
-0.64
-0.50
-0.22
-0.00
-0.03
-0.34
-0.85
-1.37
-1.73
-1.80
-1.59
-1.19
-0.72
-0.27
0.11
0.43
0.71
0.91
0.98
0.87
0.56
0.11
-0.37
-0.79
-1.10
-1.29
-1.41
-1.47
-1.47
-1.38
-1.15
-0.77
-0.29
0.22
0.68
1.08
1.44
1.80
2.17
2.49
2.65
2.56
2.22
1.74
1.26
0.91
0.74
0.68
0.65
0.58
0.45
0.31
0.22
0.18
0.18
0.15
0.07
-0.04
-0.14
-0.23
-0.31
-0.46
-0.71
-1.07
-1.49
-1.92
-2.34
-2.74
-3.12
-3.42
-3.53
-3.31
-2.69
-1.69
-0.46
0.78
1.83
2.56
2.93
2.97
2.78
2.45
2.06
1.66
1.30
1.00
0.75
0.54
0.33
0.10
-0.10
-0.23
-0.26
-0.17
0.01
0.25
0.53
0.82
1.08
1.24
1.23
0.98
0.57
0.13
-0.16
-0.20
-0.01
0.26
0.43
0.37
0.06
-0.42
-0.94
-1.40
-1.76
-1.96
-1.99
-1.81
-1.43
-0.86
-0.23
0.35
0.77
1.01
1.10
1.13
1.14
1.13
1.05
0.84
0.49
0.04
-0.41
-0.76
-0.97
-1.02
-0.96
-0.84
-0.72
-0.61
-0.54
-0.49
-0.44
-0.37
-0.28
-0.19
-0.13
-0.14
-0.24
-0.39
-0.50
-0.49
-0.35
-0.14
0.01
0.00
-0.20
-0.51
-0.76
-0.78
-0.49
0.10
0.86
1.64
2.32
2.79
2.99
2.89
2.51
1.95
1.33
0.82
0.46
0.26
0.15
0.07
0.02
0.01
0.05
0.12
0.12
-0.04
-0.36
-0.78
-1.13
-1.27
-1.15
-0.84
-0.51
-0.31
-0.36
-0.65
-1.09
-1.52
-1.82
-1.93
-1.88
-1.74
-1.57
-1.40
-1.18
-0.88
-0.50
-0.06
0.42
0.93
1.51
2.14
2.75
3.19
3.30
3.01
2.40
1.68
1.07
0.70
0.55
0.51
0.45
0.32
0.14
-0.05
-0.20
-0.33
-0.45
-0.59
-0.74
-0.89
-1.01
-1.10
-1.18
-1.24
-1.25
-1.14
-0.88
-0.48
-0.01
0.39
0.63
0.61
0.33
-0.15
-0.72
-1.28
-1.73
-2.01
-2.08
-1.90
-1.49
-0.87
-0.13
0.62
1.22
1.54
1.51
1.18
0.71
0.31
0.16
0.33
0.73
1.21
1.60
1.83
1.93
1.99
2.02
1.99
1.83
1.45
0.89
0.28
-0.19
-0.42
-0.43
-0.35
-0.35
-0.54
-0.89
-1.27
-1.53
-1.60
-1.52
-1.42
-1.41
-1.53
-1.72
-1.81
-1.69
-1.31
-0.72
-0.03
0.64
1.23
1.70
2.07
2.35
2.52
2.57
2.50
2.35
2.21
2.12
2.06
1.98
1.77
1.36
0.77
0.08
-0.55
-1.00
-1.21
-1.21
-1.14
-1.13
-1.29
-1.60
-1.97
-2.23
-2.26
-2.06
-1.68
-1.30
-1.08
-1.10
-1.32
-1.58
-1.72
-1.59
-1.15
-0.45
0.38
1.22
1.98
2.66
3.23
3.68
3.95
3.94
3.63
3.05
2.29
1.49
0.71
0.00
-0.66
-1.27
-1.79
-2.21
-2.48
-2.61
-2.63
-2.58
-2.50
-2.41
-2.27
-2.09
-1.87
-1.61
-1.33
-1.03
-0.72
-0.40
-0.09
0.19
0.39
0.49
0.43
0.25
0.01
-0.18
-0.18
0.07
0.55
1.13
1.69
2.10
2.32
2.37
2.29
2.12
1.84
1.42
0.85
0.14
-0.59
-1.24
-1.71
-1.93
-1.92
-1.71
-1.36
-0.94
-0.51
-0.10
0.24
0.47
0.55
0.44
0.14
-0.28
-0.72
-1.05
-1.17
-1.03
-0.71
-0.31
-0.00
0.08
-0.10
-0.51
-1.00
-1.43
-1.67
-1.65
-1.38
-0.90
-0.29
0.38
1.06
1.64
2.03
2.13
1.91
1.40
0.73
0.05
-0.49
-0.76
-0.74
-0.46
0.01
0.54
0.99
1.29
1.35
1.20
0.87
0.43
-0.03
-0.42
-0.65
-0.70
-0.55
-0.32
-0.11
-0.04
-0.17
-0.49
-0.90
-1.31
-1.65
-1.89
-2.07
-2.18
-2.20
-2.08
-1.78
-1.30
-0.67
0.02
0.65
1.14
1.44
1.56
1.55
1.48
1.45
1.51
1.67
1.88
2.04
2.07
1.93
1.64
1.28
0.95
0.73
0.62
0.55
0.40
0.10
-0.34
-0.83
-1.26
-1.53
-1.66
-1.71
-1.74
-1.82
-1.93
-2.06
-2.15
-2.19
-2.16
-2.02
-1.70
-1.15
-0.36
0.55
1.40
2.00
2.25
2.17
1.88
1.53
1.23
1.02
0.88
0.76
0.69
0.72
0.88
1.16
1.47
1.67
1.66
1.39
0.93
0.38
-0.15
-0.58
-0.92
-1.18
-1.39
-1.58
-1.72
-1.83
-1.93
-2.06
-2.24
-2.47
-2.68
-2.77
-2.67
-2.34
-1.81
-1.16
-0.45
0.24
0.88
1.48
2.04
2.53
2.89
3.06
2.99
2.70
2.28
1.84
1.44
1.08
0.71
0.27
-0.22
-0.69
-1.05
-1.23
-1.26
-1.21
-1.19
-1.25
-1.34
-1.38
-1.29
-1.07
-0.79
-0.57
-0.48
-0.53
-0.64
-0.68
-0.59
-0.41
-0.29
-0.39
-0.77
-1.34
-1.85
-2.05
-1.78
-1.09
-0.16
0.74
1.45
1.88
2.08
2.09
1.94
1.62
1.16
0.63
0.15
-0.17
-0.27
-0.19
-0.01
0.18
0.31
0.39
0.48
0.61
0.76
0.92
1.07
1.19
1.32
1.49
1.67
1.77
1.67
1.32
0.74
0.09
-0.47
-0.78
-0.85
-0.77
-0.71
-0.76
-0.94
-1.19
-1.43
-1.57
-1.58
-1.38
-0.93
-0.20
0.72
1.64
2.30
2.53
2.29
1.73
1.08
0.58
0.33
0.33
0.48
0.64
0.75
0.75
0.67
0.52
0.34
0.16
-0.02
-0.21
-0.43
-0.72
-1.04
-1.36
-1.62
-1.75
-1.74
-1.62
-1.48
-1.44
-1.55
-1.79
-2.05
-2.19
-2.08
-1.73
-1.21
-0.61
0.02
0.76
1.69
2.79
3.89
4.71
4.98
4.62
3.78
2.76
1.83
1.16
0.73
0.45
0.22
0.02
-0.15
-0.25
-0.35
-0.50
-0.76
-1.15
-1.62
-2.11
-2.54
-2.86
-3.07
-3.15
-3.11
-3.01
-2.92
-2.88
-2.94
-3.03
-3.07
-2.97
-2.64
-2.05
-1.20
-0.16
0.97
2.08
3.03
3.71
4.05
4.05
3.79
3.39
2.98
2.63
2.38
2.17
1.92
1.56
1.09
0.51
-0.12
-0.77
-1.40
-1.99
-2.47
-2.79
-2.90
-2.81
-2.57
-2.26
-1.98
-1.75
-1.57
-1.42
-1.23
-1.01
-0.76
-0.51
-0.34
-0.27
-0.30
-0.36
-0.34
-0.12
0.36
1.05
1.82
2.49
2.89
2.93
2.62
2.03
1.30
0.56
-0.04
-0.39
-0.51
-0.47
-0.43
-0.50
-0.70
-0.93
-1.06
-1.00
-0.75
-0.43
-0.15
-0.03
-0.07
-0.18
-0.26
-0.24
-0.09
0.15
0.46
0.78
1.07
1.30
1.38
1.24
0.85
0.22
-0.55
-1.27
-1.77
-1.92
-1.71
-1.19
-0.48
0.29
1.03
1.67
2.17
2.46
2.48
2.19
1.65
0.97
0.31
-0.18
-0.43
-0.46
-0.36
-0.22
-0.11
-0.01
0.09
0.20
0.29
0.33
0.25
0.07
-0.16
-0.40
-0.60
-0.76
-0.92
-1.11
-1.31
-1.50
-1.62
-1.65
-1.59
-1.48
-1.36
-1.22
-1.04
-0.75
-0.31
0.30
1.06
1.87
2.59
3.09
3.27
3.10
2.66
2.06
1.44
0.91
0.48
0.18
-0.05
-0.23
-0.36
-0.42
-0.36
-0.16
0.14
0.47
0.71
0.72
0.46
-0.07
-0.72
-1.36
-1.83
-2.05
-2.04
-1.90
-1.73
-1.62
-1.58
-1.57
-1.53
-1.40
-1.15
-0.73
-0.11
0.77
1.93
3.32
4.80
6.16
7.18
7.70
7.71
7.33
6.76
6.21
5.83
5.64
5.60
5.62
5.64
5.63
5.57
5.33
4.71
3.38
1.14
-2.01
-5.75
-9.49
-12.53
-14.37
-14.76
-13.78
-11.70
-8.88
-5.74
-2.69
-0.15
1.46
1.92
1.32
0.06
-1.24
-1.97
-1.69
-0.35
1.81
4.36
6.86
9.07
10.92
12.45
13.70
14.52
14.66
13.85
11.99
9.24
6.03
2.88
0.30
-1.48
-2.57
-3.30
-4.19
-5.64
-7.83
-10.59
-13.48
-16.03
-17.96
-19.29
-20.31
-21.38
-22.76
-24.47
-26.47
-28.64
-30.96
-33.37
-35.63
-37.34
-38.00
-37.27
-35.19
-32.26
-29.30
-27.21
-26.65
-27.90
-30.73
-34.46
-38.06
-40.32
-40.07
-36.41
-28.94
-17.88
-4.13
10.76
24.91
36.40
43.90
46.96
46.17
42.99
39.13
36.02
34.35
34.02
34.45
34.96
35.11
34.79
34.07
33.00
31.43
29.13
25.85
21.57
16.61
11.57
7.20
4.17
2.91
3.40
5.28
7.87
10.44
12.39
13.35
13.34
12.74
12.23
12.57
14.35
17.74
22.29
27.03
30.76
32.43
31.61
28.59
24.28
19.80
16.04
13.38
11.72
10.60
9.49
7.94
5.72
2.80
-0.59
-4.03
-6.97
-8.98
-9.98
-10.37
-10.96
-12.65
-15.95
-20.74
-26.23
-31.25
-34.66
-35.67
-34.04
-30.05
-24.36
-17.81
-11.31
-5.71
-1.59
0.77
1.54
1.22
0.44
-0.22
-0.45
-0.30
-0.07
-0.19
-1.04
-2.77
-5.26
-8.16
-10.95
-13.17
-14.45
-14.60
-13.67
-11.87
-9.52
-7.00
-4.58
-2.43
-0.57
1.04
2.44
3.55
4.21
4.26
3.67
2.61
1.37
0.32
-0.23
-0.12
0.69
2.16
4.22
6.67
9.25
11.58
13.28
14.07
13.90
12.92
11.40
9.59
7.67
5.68
3.63
1.55
-0.43
-2.13
-3.35
-4.01
-4.14
-3.84
-3.29
-2.59
-1.85
-1.13
-0.53
-0.18
-0.26
-0.92
-2.24
-4.07
-6.09
-7.82
-8.77
-8.61
-7.33
-5.25
-2.95
-1.07
-0.05
-0.03
-0.83
-2.04
-3.22
-4.07
-4.53
-4.72
-4.90
-5.26
-5.91
-6.78
-7.72
-8.54
-9.14
-9.58
-10.02
-10.72
-11.88
-13.50
-15.40
-17.22
-18.62
-19.47
-20.00
-20.70
-22.19
-24.84
-28.52
-32.66
-36.40
-39.05
-40.32
-40.45
-40.05
-39.81
-40.33
-41.96
-44.82
-48.64
-52.62
-55.19
-54.29
-48.01
-35.62
-18.13
1.71
20.36
34.86
43.92
48.14
49.34
49.33
49.00
48.08
45.75
41.51
35.79
29.92
25.50
23.65
24.55
27.44
31.06
34.23
36.23
36.84
36.25
34.78
32.87
30.97
29.59
29.13
29.70
30.97
32.23
32.65
31.69
29.37
26.22
23.01
20.40
18.72
17.94
17.80
18.09
18.63
19.31
19.96
20.27
19.90
18.62
16.44
13.69
10.90
8.59
7.05
6.24
5.83
5.36
4.54
3.30
1.85
0.49
-0.63
-1.64
-2.99
-5.25
-8.83
-13.75
-19.53
-25.29
-29.97
-32.68
-32.87
-30.51
-26.05
-20.24
-13.97
-8.00
-2.84
1.46
5.26
9.26
14.25
20.81
28.96
38.01
46.75
53.74
57.93
58.98
57.39
54.21
50.54
47.12
44.08
41.06
37.44
32.63
26.20
18.04
8.41
-1.98
-12.09
-20.91
-27.99
-33.78
-39.58
-46.99
-57.02
-69.49
-82.95
-95.31
-104.84
-110.86
-113.80
-114.56
-113.68
-110.84
-105.13
-95.74
-82.64
-66.52
-48.28
-28.53
-7.41
14.83
37.11
57.20
72.29
80.13
80.25
74.26
65.25
56.42
49.89
46.20
44.71
44.37
44.39
44.32
43.88
42.67
40.22
36.22
30.76
24.42
18.03
12.28
7.45
3.19
-1.21
-6.42
-12.75
-19.94
-27.28
-33.91
-39.20
-42.85
-44.89
-45.39
-44.30
-41.31
-36.05
-28.40
-18.75
-8.04
2.48
11.63
18.68
23.55
26.65
28.64
30.13
31.57
33.19
35.06
37.02
38.61
38.98
37.04
31.86
23.16
11.70
-0.74
-11.84
-19.55
-22.77
-21.74
-17.87
-13.03
-8.85
-6.09
-4.55
-3.39
-1.69
1.05
4.66
8.36
11.16
12.20
11.09
7.93
3.18
-2.51
-8.47
-14.06
-18.74
-22.08
-23.89
-24.20
-23.35
-21.79
-19.92
-17.94
-15.78
-13.28
-10.36
-7.23
-4.35
-2.25
-1.22
-1.13
-1.40
-1.24
0.02
2.65
6.33
10.35
13.83
16.07
16.78
16.08
14.41
12.25
10.04
8.07
6.52
5.57
5.41
6.18
7.93
10.59
13.89
17.51
21.02
23.99
25.93
26.34
24.71
20.65
14.00
4.95
-5.89
-17.50
-28.51
-37.47
-43.15
-44.89
-42.74
-37.61
-30.98
-24.62
-20.04
-18.10
-18.74
-21.04
-23.61
-25.11
-24.81
-22.83
-20.00
-17.49
-16.26
-16.75
-18.80
-21.86
-25.30
-28.63
-31.52
-33.71
-34.99
-35.22
-34.48
-33.11
-31.59
-30.27
-29.07
-27.41
-24.36
-19.07
-11.09
-0.55
11.93
25.50
39.21
52.05
62.92
70.70
74.46
73.83
69.15
61.46
52.18
42.64
33.73
25.75
18.60
12.03
5.95
0.58
-3.61
-6.17
-6.88
-5.98
-4.10
-2.03
-0.40
0.57
1.10
1.63
2.55
3.94
5.64
7.35
8.86
10.07
10.95
11.42
11.21
9.91
7.12
2.70
-3.07
-9.48
-15.46
-19.83
-21.63
-20.45
-16.64
-11.22
-5.69
-1.50
0.23
-0.95
-4.87
-10.90
-18.15
-25.71
-32.77
-38.67
-42.95
-45.38
-45.96
-44.87
-42.36
-38.62
-33.76
-27.79
-20.80
-13.01
-4.84
3.17
10.39
16.35
20.72
23.38
24.38
23.94
22.41
20.26
18.07
16.33
15.37
15.32
16.01
17.17
18.55
20.05
21.76
23.88
26.60
29.92
33.64
37.28
40.22
41.73
41.17
38.09
32.50
24.92
16.41
8.42
2.41
-0.51
0.00
3.47
8.64
13.97
18.04
20.04
19.93
18.30
16.04
13.98
12.58
11.95
11.92
12.26
12.76
13.26
13.49
13.12
11.75
9.15
5.38
0.88
-3.66
-7.61
-10.57
-12.61
-14.09
-15.49
-17.15
-19.13
-21.21
-23.07
-24.41
-25.08
-25.10
-24.66
-23.98
-23.36
-23.05
-23.32
-24.35
-26.14
-28.48
-30.91
-32.88
-33.91
-33.83
-32.82
-31.39
-30.14
-29.53
-29.69
-30.42
-31.28
-31.88
-31.95
-31.44
-30.40
-28.83
-26.64
-23.65
-19.81
-15.27
-10.45
-5.88
-1.93
1.43
4.59
8.20
12.71
18.06
23.61
28.36
31.45
32.63
32.48
32.16
32.90
35.48
39.90
45.47
51.07
55.66
58.64
59.96
60.03
59.53
59.12
59.18
59.69
60.14
59.56
56.36
48.53
33.93
11.07
-20.00
-57.01
-95.53
-129.94
-155.00
-167.46
-166.88
-155.42
-136.66
-114.38
-91.69
-70.97
-54.31
-43.91
-41.80
-48.97
-64.16
-83.32
-100.06
-107.36
-99.86
-75.82
-37.82
8.18
54.91
96.00
127.50
148.10
158.40
159.88
154.16
142.83
127.67
110.76
94.28
79.97
68.71
60.29
53.68
47.56
40.88
33.23
24.82
16.25
8.10
0.76
-5.69
-11.47
-16.98
-22.70
-29.07
-36.35
-44.46
-52.93
-60.94
-67.57
-72.10
-74.26
-74.19
-72.30
-68.95
-64.34
-58.52
-51.51
-43.47
-34.74
-25.73
-16.89
-8.70
-1.66
3.71
6.98
8.05
7.29
5.50
3.71
2.81
3.27
5.12
8.07
11.74
15.77
19.91
23.87
27.36
29.99
31.45
31.54
30.36
28.16
25.41
22.53
19.91
17.72
15.95
14.39
12.70
10.59
7.85
4.54
0.94
-2.52
-5.46
-7.70
-9.33
-10.63
-11.93
-13.41
-15.01
-16.43
-17.29
-17.28
-16.32
-14.57
-12.35
-9.98
-7.66
-5.44
-3.23
-0.90
1.56
4.09
6.50
8.59
10.18
11.18
11.57
11.40
10.73
9.64
8.26
6.69
5.05
3.43
1.94
0.66
-0.33
-0.99
-1.35
-1.47
-1.48
-1.47
-1.45
-1.37
-1.14
-0.70
-0.03
0.82
1.79
2.78
3.69
4.39
4.71
4.52
3.81
2.72
1.52
0.50
-0.07
-0.04
0.61
1.82
3.50
5.53
7.76
9.99
12.02
13.75
15.11
16.14
16.93
17.52
17.94
18.16
18.20
18.08
17.83
17.50
17.08
16.54
15.81
14.85
13.65
12.22
10.60
8.83
6.98
5.13
3.33
1.64
0.04
-1.50
-3.02
-4.54
-6.02
-7.36
-8.44
-9.12
-9.30
-8.99
-8.24
-7.24
-6.16
-5.22
-4.51
-4.09
-3.90
-3.82
-3.72
-3.55
-3.30
-3.00
-2.74
-2.54
-2.42
-2.31
-2.15
-1.86
-1.42
-0.88
-0.34
0.12
0.40
0.49
0.39
0.12
-0.28
-0.79
-1.40
-2.09
-2.85
-3.63
-4.36
-4.95
-5.33
-5.47
-5.37
-5.12
-4.81
-4.52
-4.27
-3.98
-3.54
-2.85
-1.87
-0.70
0.54
1.65
2.51
3.06
3.31
3.34
3.23
3.08
2.92
2.78
2.62
2.43
2.19
1.90
1.56
1.19
0.83
0.53
0.32
0.22
0.18
0.15
0.05
-0.17
-0.53
-0.95
-1.39
-1.79
-2.14
-2.47
-2.83
-3.25
-3.72
-4.15
-4.43
-4.39
-3.96
-3.13
-2.05
-0.98
-0.18
0.22
0.21
-0.07
-0.43
-0.73
-0.88
-0.91
-0.84
-0.69
-0.45
-0.10
0.31
0.74
1.12
1.42
1.60
1.63
1.47
1.13
0.63
0.07
-0.42
-0.78
-1.00
-1.13
-1.31
-1.64
-2.17
-2.87
-3.61
-4.24
-4.60
-4.60
-4.22
-3.53
-2.63
-1.63
-0.60
0.44
1.46
2.47
3.41
4.22
4.82
5.17
5.27
5.20
5.05
4.94
4.90
4.96
5.07
5.20
5.28
5.23
4.97
4.44
3.62
2.57
1.42
0.33
-0.56
-1.22
-1.70
-2.14
-2.62
-3.20
-3.83
-4.46
-5.03
-5.51
-5.91
-6.20
-6.33
-6.24
-5.85
-5.09
-3.97
-2.59
-1.08
0.38
1.62
2.54
3.16
3.57
3.93
4.36
4.88
5.43
5.89
6.15
6.16
5.95
5.60
5.24
4.98
4.85
4.82
4.78
4.58
4.13
3.43
2.59
1.80
1.20
0.86
0.70
0.57
0.35
-0.02
-0.53
-1.13
-1.76
-2.41
-3.01
-3.46
-3.55
-3.11
-2.06
-0.48
1.36
3.16
4.67
5.81
6.68
7.43
8.16
8.84
9.32
9.42
9.03
8.17
6.94
5.53
4.09
2.78
1.67
0.86
0.39
0.28
0.46
0.80
1.11
1.19
0.97
0.55
0.10
-0.20
-0.28
-0.31
-0.55
-1.33
-2.79
-4.84
-7.23
-9.68
-12.06
-14.35
-16.63
-18.85
-20.78
-22.03
-22.26
-21.30
-19.32
-16.71
-13.96
-11.40
-9.17
-7.22
-5.40
-3.65
-1.95
-0.40
0.95
2.06
2.96
3.68
4.20
4.44
4.35
3.93
3.27
2.54
1.90
1.42
1.09
0.87
0.70
0.59
0.59
0.73
1.00
1.30
1.48
1.43
1.04
0.32
-0.68
-1.86
-3.07
-4.14
-4.91
-5.26
-5.12
-4.47
-3.38
-1.95
-0.33
1.35
2.95
4.34
5.42
6.09
6.33
6.17
5.70
5.08
4.49
4.04
3.76
3.58
3.42
3.21
2.92
2.59
2.23
1.83
1.36
0.83
0.28
-0.20
-0.56
-0.79
-0.94
-1.11
-1.34
-1.61
-1.90
-2.18
-2.47
-2.81
-3.22
-3.70
-4.23
-4.81
-5.46
-6.27
-7.29
-8.48
-9.72
-10.78
-11.43
-11.42
-10.66
-9.15
-7.06
-4.62
-2.13
0.17
2.10
3.60
4.67
5.39
5.88
6.25
6.60
7.01
7.53
8.14
8.77
9.30
9.61
9.61
9.31
8.77
8.08
7.35
6.64
5.98
5.38
4.85
4.44
4.17
4.05
4.04
4.08
4.08
3.98
3.78
3.50
3.19
2.88
2.57
2.25
1.93
1.61
1.32
1.04
0.76
0.42
-0.03
-0.58
-1.16
-1.65
-1.91
-1.85
-1.44
-0.69
0.33
1.55
2.88
4.20
5.34
6.12
6.43
6.27
5.74
5.04
4.39
3.95
3.73
3.68
3.67
3.56
3.32
2.97
2.56
2.14
1.73
1.33
0.93
0.55
0.24
0.06
0.03
0.13
0.27
0.34
0.24
-0.09
-0.63
-1.33
-2.13
-2.95
-3.75
-4.49
-5.11
-5.56
-5.81
-5.87
-5.81
-5.79
-5.94
-6.40
-7.18
-8.18
-9.18
-9.95
-10.28
-10.05
-9.23
-7.89
-6.14
-4.17
-2.15
-0.29
1.23
2.27
2.74
2.67
2.12
1.24
0.17
-0.92
-1.95
-2.79
-3.33
-3.44
-3.01
-2.00
-0.50
1.24
2.89
4.21
5.24
6.33
8.13
11.20
15.76
21.46
27.50
32.90
36.97
39.51
40.82
41.47
41.93
42.35
42.60
42.44
41.70
40.42
38.78
36.94
34.91
32.53
29.55
25.76
21.12
15.82
10.22
4.72
-0.37
-4.88
-8.79
-12.13
-14.87
-16.93
-18.23
-18.77
-18.71
-18.37
-18.05
-17.89
-17.82
-17.62
-17.08
-16.15
-14.99
-13.83
-12.88
-12.25
-11.95
-12.02
-12.56
-13.70
-15.46
-17.66
-19.90
-21.68
-22.62
-22.58
-21.73
-20.40
-19.01
-17.91
-17.33
-17.33
-17.81
-18.49
-18.95
-18.82
-17.82
-15.97
-13.55
-10.99
-8.76
-7.21
-6.51
-6.68
-7.67
-9.36
-11.69
-14.64
-18.25
-22.58
-27.61
-33.11
-38.53
-43.01
-45.51
-45.17
-41.58
-35.01
-26.40
-17.11
-8.54
-1.79
2.66
4.87
5.37
4.90
4.17
3.75
3.98
4.99
6.72
8.93
11.28
13.44
15.18
16.51
17.58
18.60
19.73
20.90
21.88
22.36
22.10
20.93
18.82
15.74
11.72
6.81
1.18
-4.80
-10.66
-15.95
-20.35
-23.72
-26.16
-27.77
-28.59
-28.48
-27.19
-24.53
-20.47
-15.23
-9.23
-2.96
3.16
8.89
14.14
18.88
23.02
26.43
28.87
30.15
30.16
28.92
26.63
23.50
19.80
15.76
11.58
7.47
3.61
0.20
-2.59
-4.66
-5.95
-6.48
-6.31
-5.60
-4.51
-3.25
-1.97
-0.78
0.29
1.24
2.07
2.78
3.31
3.61
3.60
3.23
2.46
1.33
-0.06
-1.57
-3.03
-4.32
-5.41
-6.32
-7.13
-7.85
-8.45
-8.88
-9.05
-8.91
-8.44
-7.63
-6.50
-5.06
-3.40
-1.63
0.10
1.64
2.91
3.84
4.49
4.93
5.25
5.50
5.70
5.77
5.66
5.37
5.01
4.72
4.62
4.71
4.91
5.08
5.09
4.94
4.66
4.34
4.04
3.78
3.56
3.38
3.25
3.21
3.29
3.48
3.70
3.87
3.85
3.56
2.97
2.14
1.23
0.41
-0.20
-0.58
-0.82
-1.04
-1.33
-1.68
-2.07
-2.44
-2.80
-3.16
-3.50
-3.70
-3.60
-3.07
-2.05
-0.66
0.88
2.32
3.49
4.35
4.95
5.40
5.75
6.07
6.35
6.60
6.84
7.08
7.33
7.57
7.76
7.83
7.72
7.40
6.88
6.25
5.59
5.03
4.64
4.40
4.25
4.08
3.75
3.24
2.58
1.86
1.20
0.67
0.26
-0.06
-0.37
-0.73
-1.17
-1.67
-2.23
-2.80
-3.36
-3.88
-4.33
-4.66
-4.82
-4.75
-4.38
-3.71
-2.73
-1.55
-0.28
0.95
2.07
3.04
3.86
4.54
5.02
5.27
5.24
4.96
4.53
4.08
3.74
3.59
3.58
3.65
3.66
3.52
3.18
2.71
2.19
1.73
1.38
1.12
0.87
0.57
0.17
-0.29
-0.75
-1.15
-1.50
-1.83
-2.20
-2.64
-3.14
-3.63
-4.11
-4.60
-5.18
-5.88
-6.73
-7.65
-8.56
-9.33
-9.89
-10.17
-10.13
-9.76
-9.03
-7.95
-6.44
-4.39
-1.66
1.86
6.11
10.79
15.40
19.36
22.16
23.50
23.34
21.83
19.28
16.01
12.37
8.74
5.41
2.64
0.53
-0.93
-1.78
-2.04
-1.62
-0.48
1.38
3.75
6.25
8.47
10.04
10.77
10.63
9.67
7.92
5.44
2.36
-1.08
-4.47
-7.33
-9.29
-10.17
-9.99
-8.99
-7.44
-5.57
-3.49
-1.15
1.55
4.71
8.33
12.19
15.86
18.79
20.43
20.50
19.09
16.65
13.84
11.31
9.45
8.31
7.70
7.33
7.03
6.80
6.80
7.14
7.79
8.54
9.12
9.37
9.40
9.59
10.38
12.08
14.69
17.89
21.12
23.79
25.47
25.89
25.02
22.95
19.84
15.90
11.31
6.30
1.08
-4.13
-9.11
-13.71
-17.80
-21.32
-24.22
-26.45
-28.01
-28.89
-29.12
-28.85
-28.27
-27.62
-27.11
-26.87
-26.98
-27.44
-28.25
-29.35
-30.67
-32.12
-33.65
-35.23
-36.85
-38.42
-39.66
-40.11
-39.23
-36.61
-32.17
-26.23
-19.42
-12.46
-5.96
-0.25
4.58
8.59
11.84
14.31
15.90
16.52
16.13
14.83
12.83
10.35
7.53
4.33
0.61
-3.79
-8.84
-14.27
-19.56
-24.02
-27.00
-28.02
-26.80
-23.30
-17.72
-10.41
-1.93
7.09
15.94
24.00
30.77
35.99
39.55
41.50
42.00
41.30
39.78
37.88
36.09
34.81
34.18
34.07
34.03
33.50
31.98
29.25
25.39
20.74
15.66
10.43
5.14
-0.21
-5.58
-10.84
-15.72
-19.91
-23.24
-25.75
-27.73
-29.53
-31.42
-33.44
-35.35
-36.84
-37.74
-38.15
-38.39
-38.86
-39.71
-40.73
-41.32
-40.83
-38.74
-34.89
-29.50
-23.00
-15.90
-8.67
-1.76
4.45
9.63
13.57
16.25
17.90
18.93
19.83
21.07
23.00
25.72
29.10
32.79
36.29
39.15
41.06
41.97
42.05
41.59
40.83
39.90
38.78
37.39
35.69
33.70
31.48
29.04
26.25
22.85
18.54
13.09
6.45
-1.12
-9.21
-17.22
-24.62
-30.98
-36.02
-39.61
-41.74
-42.50
-42.07
-40.73
-38.84
-36.76
-34.81
-33.11
-31.65
-30.21
-28.57
-26.53
-23.98
-20.93
-17.45
-13.69
-9.83
-6.09
-2.63
0.48
3.27
5.88
8.47
11.12
13.79
16.29
18.37
19.80
20.45
20.35
19.59
18.27
16.43
14.04
11.10
7.69
4.01
0.37
-2.93
-5.76
-8.22
-10.56
-13.08
-15.88
-18.83
-21.57
-23.68
-24.87
-25.02
-24.23
-22.70
-20.60
-18.06
-15.10
-11.75
-8.03
-4.06
0.01
3.93
7.48
10.51
12.90
14.66
15.79
16.33
16.26
15.59
14.35
12.63
10.61
8.50
6.49
4.67
3.05
1.59
0.25
-0.96
-1.97
-2.58
-2.57
-1.72
0.09
2.79
6.11
9.70
13.20
16.43
19.38
22.17
24.96
27.73
30.25
32.11
32.87
32.26
30.27
27.23
23.65
20.09
16.91
14.21
11.87
9.72
7.67
5.77
4.18
3.05
2.38
2.05
1.81
1.45
0.82
-0.12
-1.34
-2.72
-4.16
-5.55
-6.84
-8.00
-9.08
-10.13
-11.18
-12.18
-13.07
-13.85
-14.62
-15.54
-16.77
-18.38
-20.22
-22.07
-23.70
-25.02
-26.06
-26.95
-27.75
-28.47
-28.99
-29.24
-29.21
-28.94
-28.46
-27.72
-26.59
-24.97
-22.88
-20.49
-18.05
-15.75
-13.57
-11.34
-8.77
-5.72
-2.24
1.39
4.86
7.92
10.53
12.79
14.82
16.69
18.41
19.91
21.12
22.01
22.49
22.43
21.69
20.16
17.94
15.24
12.37
9.59
7.04
4.72
2.63
0.81
-0.64
-1.66
-2.25
-2.46
-2.30
-1.71
-0.48
1.55
4.42
7.89
11.51
14.73
17.13
18.47
18.72
18.02
16.54
14.42
11.81
8.84
5.70
2.60
-0.25
-2.67
-4.58
-5.99
-6.98
-7.66
-8.11
-8.41
-8.63
-8.88
-9.35
-10.24
-11.72
-13.82
-16.41
-19.24
-22.03
-24.60
-26.88
-28.90
-30.64
-32.00
-32.77
-32.71
-31.68
-29.69
-26.98
-23.89
-20.79
-17.96
-15.53
-13.42
-11.49
-9.55
-7.45
-5.23
-3.03
-1.08
0.41
1.38
1.95
2.36
2.90
3.80
5.16
6.91
8.89
10.91
12.85
14.63
16.29
17.88
19.44
20.96
22.43
23.79
24.96
25.87
26.37
26.38
25.84
24.80
23.38
21.78
20.13
18.50
16.90
15.30
13.74
12.35
11.33
10.84
10.93
11.47
12.19
12.74
12.81
12.24
11.03
9.31
7.30
5.20
3.11
1.05
-1.08
-3.48
-6.34
-9.86
-14.08
-18.87
-23.87
-28.59
-32.50
-35.31
-37.06
-38.14
-39.16
-40.65
-42.73
-45.09
-46.99
-47.61
-46.37
-43.10
-38.11
-31.97
-25.35
-18.80
-12.71
-7.36
-2.95
0.34
2.45
3.38
3.34
2.61
1.57
0.60
-0.01
-0.09
0.35
1.20
2.24
3.26
4.11
4.76
5.25
5.69
6.15
6.63
7.07
7.39
7.53
7.51
7.39
7.30
7.29
7.40
7.58
7.76
7.88
7.92
7.92
7.94
8.02
8.19
8.42
8.70
9.03
9.44
9.97
10.64
11.43
12.21
12.89
13.37
13.73
14.13
14.84
16.11
18.07
20.66
23.59
26.46
28.77
30.17
30.48
29.80
28.45
26.88
25.48
24.49
24.00
23.91
24.09
24.40
24.75
25.09
25.36
25.51
25.52
25.36
24.98
24.32
23.32
21.89
19.99
17.65
14.96
12.08
9.20
6.46
3.98
1.77
-0.23
-2.11
-3.93
-5.66
-7.23
-8.51
-9.46
-10.14
-10.67
-11.19
-11.80
-12.58
-13.61
-15.00
-16.89
-19.36
-22.36
-25.69
-29.06
-32.18
-34.84
-36.95
-38.44
-39.29
-39.44
-38.84
-37.57
-35.83
-33.94
-32.27
-31.04
-30.26
-29.73
-29.09
-28.00
-26.28
-23.98
-21.34
-18.68
-16.28
-14.33
-12.91
-12.08
-11.87
-12.33
-13.52
-15.48
-18.12
-21.17
-24.13
-26.34
-27.18
-26.30
-23.80
-20.23
-16.39
-12.99
-10.36
-8.31
-6.16
-2.99
2.08
9.64
19.73
31.74
44.43
56.16
65.43
71.48
74.56
75.79
76.62
78.14
80.63
83.63
86.43
88.67
90.73
93.63
98.55
106.14
115.90
125.73
132.03
130.24
116.16
87.71
46.41
-2.18
-49.40
-85.94
-104.62
-102.63
-82.25
-49.85
-13.74
18.28
40.79
51.43
50.78
41.41
26.96
11.18
-2.73
-12.59
-17.38
-17.17
-12.74
-5.15
4.65
16.10
28.89
42.79
57.33
71.75
84.95
95.48
101.45
100.62
90.84
70.76
40.68
3.04
-37.85
-76.85
-109.43
-132.97
-147.28
-154.33
-157.48
-160.47
-166.46
-177.16
-192.19
-208.70
-221.67
-225.27
-214.56
-187.22
-144.54
-91.41
-35.41
14.30
48.55
60.02
45.46
7.74
-43.68
-94.92
-132.20
-147.04
-139.54
-117.86
-93.97
-78.01
-74.31
-81.00
-92.79
-104.70
-114.25
-121.10
-125.09
-124.62
-116.64
-98.25
-68.91
-31.34
9.13
46.47
76.14
96.52
108.97
116.78
123.66
132.37
143.95
157.79
172.15
185.07
195.16
201.80
205.04
205.14
202.27
196.53
188.23
178.14
167.60
158.23
151.35
147.36
145.52
144.26
141.93
137.65
131.93
126.75
124.80
128.22
137.30
149.81
161.49
167.67
165.10
153.34
134.77
113.62
94.18
79.32
69.80
64.35
60.11
53.17
39.55
16.71
-14.66
-49.42
-78.67
-92.69
-85.29
-57.27
-16.84
23.53
52.50
64.33
60.49
47.40
31.96
17.68
3.39
-15.09
-41.78
-77.98
-121.96
-170.60
-221.61
-274.29
-328.69
-383.37
-434.04
-474.23
-497.94
-502.91
-492.06
-472.37
-451.37
-433.45
-418.01
-400.45
-375.27
-339.14
-292.46
-238.57
-181.63
-124.49
-67.78
-10.52
48.22
107.76
165.11
215.35
253.18
274.70
278.58
266.37
241.70
208.79
171.21
131.42
91.22
52.58
18.15
-9.11
-26.99
-35.08
-35.22
-30.87
-25.68
-22.15
-20.97
-21.32
-21.98
-22.37
-22.74
-23.58
-24.51
-23.83
-18.81
-7.08
11.91
35.98
60.53
80.04
90.13
89.22
79.14
64.53
51.26
44.70
48.23
62.64
86.26
115.81
147.40
177.44
203.24
223.19
236.84
244.70
248.00
248.50
248.21
249.01
252.03
256.89
261.30
261.32
252.09
229.06
189.48
133.82
66.36
-5.45
-72.51
-126.31
-160.93
-175.16
-173.39
-164.98
-161.41
-172.59
-203.51
-252.33
-310.82
-366.52
-407.21
-424.93
-418.08
-390.59
-349.16
-300.52
-249.56
-198.60
-147.35
-94.62
-39.98
15.05
