1527554885.00
64.000000
-0.00
-0.00
-0.00
-0.00
-0.00
-0.00
-0.00
-0.00
-0.00
-0.00
0.00
0.01
0.01
-0.00
-0.03
-0.05
-0.05
0.00
0.13
0.36
0.66
1.01
1.37
1.72
2.06
2.40
2.79
3.24
3.80
4.42
5.06
5.67
6.20
6.67
7.14
7.67
8.32
9.18
10.15
11.09
11.86
12.40
12.77
13.16
13.83
14.96
16.79
19.12
21.65
24.03
26.08
27.88
29.77
32.24
35.63
40.34
45.96
51.90
57.49
62.32
66.48
70.53
75.29
81.39
89.37
98.61
108.12
116.78
123.92
129.62
134.71
140.86
147.00
155.46
166.60
180.12
194.36
206.15
211.26
205.47
186.01
152.50
107.46
54.38
-3.08
-62.45
-122.60
-183.17
-243.63
-302.85
-359.24
-411.05
-457.61
-498.88
-535.10
-566.24
-591.62
-609.80
-618.45
-614.64
-594.92
-556.72
-499.13
-423.97
-335.97
-241.81
-148.47
-61.53
15.80
82.52
138.74
184.81
220.77
246.68
263.09
271.41
273.77
272.34
268.71
263.49
256.51
247.22
235.36
221.22
205.71
190.05
175.33
162.12
150.41
139.68
129.24
118.55
107.42
96.05
84.93
74.57
65.34
57.28
50.21
43.77
37.65
31.70
25.92
20.48
15.53
11.28
7.70
4.70
2.16
-0.00
-1.83
-3.36
-4.60
-5.58
-6.36
-6.96
-7.44
-7.82
-8.12
-8.41
-8.71
-9.01
-9.28
-9.41
-9.35
-9.05
-8.57
-8.04
-7.65
-7.55
-7.81
-8.36
-8.97
-9.35
-9.22
-8.41
-6.93
-4.98
-2.85
-0.84
0.82
2.00
2.66
2.84
2.60
2.04
1.27
0.38
-0.53
-1.36
-2.04
-2.53
-2.92
-3.37
-4.02
-4.89
-5.83
-6.55
-6.75
-6.31
-5.39
-4.30
-3.37
-2.79
-2.52
-2.40
-2.25
-2.01
-1.75
-1.59
-1.61
-1.77
-1.95
-2.01
-1.86
-1.49
-1.00
-0.51
-0.17
-0.06
-0.15
-0.35
-0.54
-0.61
-0.48
-0.16
0.32
0.93
1.62
2.39
3.18
3.92
4.48
4.74
4.61
4.12
3.42
2.64
1.94
1.36
0.92
0.58
0.34
0.27
0.45
0.89
1.53
2.19
2.72
2.98
2.94
2.66
2.22
1.69
1.11
0.49
-0.15
-0.83
-1.53
-2.28
-3.05
-3.78
-4.31
-4.52
-4.36
-3.88
-3.29
-2.82
-2.64
-2.77
-3.11
-3.45
-3.66
-3.66
-3.48
-3.17
-2.73
-2.11
-1.29
-0.29
0.78
1.72
2.36
2.63
2.58
2.33
2.02
1.70
1.38
1.01
0.58
0.16
-0.14
-0.22
-0.04
0.31
0.67
0.87
0.85
0.64
0.39
0.24
0.29
0.51
0.77
0.92
0.87
0.63
0.31
-0.01
-0.26
-0.48
-0.69
-0.94
-1.20
-1.42
-1.60
-1.71
-1.80
-1.93
-2.15
-2.50
-3.02
-3.70
-4.52
-5.42
-6.30
-7.05
-7.57
-7.74
-7.46
-6.69
-5.41
-3.72
-1.81
0.05
1.60
2.68
3.29
3.57
3.73
3.97
4.35
4.84
5.30
5.62
5.75
5.74
5.68
5.62
5.54
5.37
5.06
4.61
4.12
3.71
3.45
3.35
3.35
3.31
3.16
2.84
2.37
1.79
1.20
0.69
0.30
0.04
-0.17
-0.43
-0.79
-1.27
-1.78
-2.24
-2.63
-2.98
-3.38
-3.85
-4.35
-4.78
-5.07
-5.24
-5.41
-5.72
-6.21
-6.78
-7.20
-7.26
-6.85
-6.02
-4.95
-3.82
-2.75
-1.72
-0.70
0.35
1.37
2.27
2.96
3.40
3.64
3.77
3.87
3.99
4.13
4.29
4.47
4.63
4.76
4.82
4.77
4.60
4.36
4.10
3.86
3.65
3.47
3.28
3.09
2.88
2.64
2.35
1.96
1.49
0.99
0.52
0.12
-0.22
-0.55
-0.89
-1.24
-1.56
-1.79
-1.92
-2.03
-2.24
-2.68
-3.42
-4.40
-5.51
-6.53
-7.24
-7.43
-7.00
-5.98
-4.55
-2.98
-1.57
-0.48
0.25
0.75
1.19
1.66
2.12
2.47
2.59
2.48
2.26
2.09
2.07
2.21
2.42
2.60
2.68
2.72
2.80
2.94
3.11
3.19
3.11
2.85
2.51
2.17
1.86
1.53
1.10
0.51
-0.19
-0.91
-1.50
-1.90
-2.13
-2.28
-2.46
-2.77
-3.20
-3.66
-4.05
-4.29
-4.38
-4.42
-4.58
-5.01
-5.75
-6.70
-7.61
-8.18
-8.21
-7.62
-6.52
-5.12
-3.65
-2.28
-1.10
-0.10
0.75
1.47
2.09
2.60
3.01
3.33
3.58
3.79
3.97
4.10
4.15
4.13
4.09
4.08
4.18
4.40
4.65
4.85
4.89
4.75
4.44
4.08
3.74
3.47
3.25
3.02
2.71
2.30
1.81
1.31
0.87
0.48
0.10
-0.36
-0.96
-1.71
-2.47
-3.09
-3.45
-3.56
-3.56
-3.62
-3.91
-4.46
-5.17
-5.89
-6.51
-6.95
-7.15
-7.03
-6.51
-5.54
-4.20
-2.69
-1.26
-0.09
0.79
1.47
2.07
2.69
3.27
3.69
3.87
3.78
3.52
3.25
3.06
2.97
2.93
2.83
2.62
2.32
2.06
1.98
2.16
2.57
3.05
3.39
3.41
3.07
2.48
1.80
1.20
0.77
0.46
0.20
-0.07
-0.35
-0.58
-0.75
-0.88
-1.07
-1.45
-2.07
-2.87
-3.74
-4.53
-5.17
-5.66
-6.06
-6.43
-6.75
-6.92
-6.81
-6.30
-5.39
-4.18
-2.86
-1.62
-0.58
0.26
0.99
1.70
2.40
3.04
3.48
3.64
3.58
3.43
3.41
3.62
4.03
4.48
4.81
4.91
4.81
4.59
4.37
4.19
4.03
3.83
3.54
3.12
2.57
1.95
1.34
0.83
0.52
0.43
0.52
0.64
0.66
0.45
-0.00
-0.60
-1.21
-1.72
-2.13
-2.48
-2.88
-3.34
-3.82
-4.22
-4.45
-4.51
-4.53
-4.68
-5.07
-5.65
-6.21
-6.48
-6.28
-5.61
-4.63
-3.57
-2.61
-1.76
-0.95
-0.12
0.76
1.61
2.31
2.78
3.01
3.06
3.02
2.92
2.79
2.63
2.46
2.30
2.20
2.16
2.17
2.22
2.29
2.39
2.52
2.68
2.85
3.00
3.05
2.98
2.75
2.39
1.95
1.56
1.28
1.17
1.23
1.38
1.52
1.56
1.44
1.14
0.71
0.25
-0.13
-0.35
-0.41
-0.40
-0.46
-0.76
-1.40
-2.37
-3.49
-4.51
-5.21
-5.42
-5.13
-4.45
-3.53
-2.54
-1.55
-0.64
0.19
0.93
1.61
2.24
2.83
3.39
3.87
4.21
4.36
4.33
4.18
4.03
3.96
3.96
4.00
4.01
3.95
3.84
3.73
3.63
3.53
3.38
3.17
2.88
2.52
2.09
1.59
1.03
0.45
-0.10
-0.56
-0.93
-1.24
-1.53
-1.85
-2.17
-2.47
-2.75
-3.05
-3.44
-3.98
-4.62
-5.25
-5.74
-6.02
-6.13
-6.20
-6.35
-6.61
-6.89
-7.01
-6.79
-6.12
-5.06
-3.75
-2.42
-1.26
-0.38
0.20
0.56
0.82
1.06
1.32
1.57
1.78
1.92
2.00
2.05
2.10
2.18
2.28
2.38
2.48
2.57
2.66
2.77
2.91
3.08
3.23
3.30
3.21
2.87
2.22
1.30
0.19
-0.96
-2.03
-2.92
-3.62
-4.16
-4.57
-4.83
-4.93
-4.81
-4.46
-3.90
-3.17
-2.40
-1.69
-1.09
-0.67
-0.44
-0.37
-0.44
-0.64
-0.94
-1.36
-1.87
-2.46
-3.08
-3.64
-4.06
-4.25
-4.11
-3.62
-2.77
-1.63
-0.33
0.98
2.16
3.13
3.84
4.31
4.59
4.75
4.90
5.09
5.37
5.67
5.91
5.93
5.64
5.03
4.21
3.39
2.75
2.40
2.32
2.41
2.52
2.54
2.38
2.04
1.56
1.02
0.55
0.23
0.12
0.21
0.39
0.54
0.58
0.46
0.22
-0.07
-0.37
-0.65
-0.94
-1.25
-1.62
-2.00
-2.36
-2.61
-2.73
-2.75
-2.74
-2.75
-2.82
-2.92
-3.00
-3.02
-2.97
-2.86
-2.69
-2.43
-1.99
-1.31
-0.42
0.53
1.35
1.85
1.97
1.77
1.40
0.99
0.62
0.33
0.14
0.05
0.07
0.15
0.22
0.17
-0.05
-0.39
-0.73
-0.92
-0.88
-0.65
-0.35
-0.13
-0.04
-0.04
-0.03
0.08
0.30
0.58
0.82
0.94
0.93
0.82
0.68
0.56
0.47
0.39
0.30
0.15
-0.07
-0.39
-0.84
-1.46
-2.20
-2.98
-3.64
-4.06
-4.20
-4.08
-3.84
-3.56
-3.28
-2.91
-2.34
-1.47
-0.31
1.01
2.30
3.35
4.03
4.32
4.32
4.17
4.03
3.96
3.94
3.92
3.83
3.69
3.53
3.43
3.41
3.42
3.39
3.25
2.99
2.67
2.36
2.11
1.90
1.70
1.48
1.25
1.02
0.83
0.66
0.44
0.15
-0.21
-0.53
-0.75
-0.82
-0.82
-0.89
-1.20
-1.79
-2.61
-3.47
-4.21
-4.75
-5.12
-5.46
-5.88
-6.40
-6.93
-7.28
-7.29
-6.86
-5.99
-4.80
-3.42
-2.02
-0.73
0.35
1.18
1.73
2.05
2.22
2.32
2.41
2.52
2.63
2.73
2.80
2.89
3.03
3.24
3.50
3.76
3.93
3.98
3.92
3.80
3.65
3.51
3.38
3.25
3.09
2.93
2.77
2.64
2.54
2.44
2.32
2.12
1.85
1.49
1.07
0.63
0.24
-0.08
-0.32
-0.51
-0.71
-0.99
-1.40
-1.95
-2.63
-3.38
-4.15
-4.88
-5.50
-5.91
-6.00
-5.72
-5.11
-4.28
-3.39
-2.55
-1.80
-1.08
-0.31
0.51
1.29
1.92
2.28
2.38
2.34
2.30
2.33
2.43
2.51
2.49
2.34
2.11
1.89
1.75
1.74
1.87
2.08
2.30
2.45
2.47
2.32
2.02
1.64
1.26
0.96
0.75
0.62
0.52
0.42
0.27
0.08
-0.15
-0.42
-0.76
-1.19
-1.70
-2.29
-2.90
-3.49
-4.01
-4.49
-4.97
-5.48
-6.03
-6.57
-7.01
-7.23
-7.15
-6.69
-5.89
-4.82
-3.65
-2.55
-1.64
-0.96
-0.45
-0.01
0.46
1.00
1.53
2.01
2.35
2.57
2.73
2.87
3.04
3.18
3.27
3.25
3.16
3.09
3.11
3.23
3.41
3.55
3.55
3.36
3.02
2.63
2.26
1.97
1.73
1.50
1.22
0.90
0.57
0.28
0.05
-0.12
-0.27
-0.44
-0.65
-0.91
-1.20
-1.51
-1.83
-2.19
-2.63
-3.23
-3.98
-4.87
-5.77
-6.53
-7.05
-7.27
-7.24
-7.06
-6.78
-6.39
-5.84
-5.07
-4.10
-2.99
-1.86
-0.79
0.14
0.93
1.57
2.07
2.44
2.71
2.95
3.16
3.35
3.46
3.48
3.40
3.29
3.24
3.25
3.32
3.35
3.29
3.15
3.00
2.95
3.05
3.28
3.52
3.63
3.53
3.20
2.67
2.03
1.34
0.70
0.19
-0.13
-0.23
-0.13
0.03
0.10
-0.07
-0.56
-1.31
-2.21
-3.13
-3.97
-4.68
-5.28
-5.78
-6.19
-6.49
-6.65
-6.66
-6.49
-6.13
-5.54
-4.74
-3.76
-2.67
-1.56
-0.52
0.40
1.15
1.73
2.15
2.43
2.61
2.75
2.88
3.00
3.10
3.17
3.20
3.22
3.27
3.38
3.54
3.68
3.74
3.62
3.32
2.87
2.35
1.87
1.49
1.24
1.12
1.07
1.05
1.05
1.01
0.90
0.67
0.32
-0.13
-0.62
-1.10
-1.55
-2.01
-2.52
-3.10
-3.71
-4.27
-4.72
-5.07
-5.37
-5.64
-5.84
-5.84
-5.52
-4.82
-3.80
-2.64
-1.49
-0.46
0.44
1.27
2.08
2.86
3.53
3.97
4.12
4.02
3.80
3.62
3.57
3.66
3.83
3.99
4.12
4.23
4.38
4.55
4.70
4.71
4.52
4.09
3.49
2.86
2.30
1.93
1.74
1.68
1.63
1.45
1.05
0.44
-0.27
-0.94
-1.41
-1.63
-1.68
-1.70
-1.83
-2.15
-2.61
-3.13
-3.63
-4.10
-4.57
-5.09
-5.66
-6.20
-6.55
-6.58
-6.22
-5.49
-4.52
-3.44
-2.37
-1.36
-0.43
0.41
1.17
1.79
2.30
2.72
3.09
3.44
3.72
3.86
3.78
3.49
3.08
2.71
2.55
2.68
3.05
3.52
3.93
4.17
4.26
4.25
4.22
4.20
4.18
4.10
3.90
3.55
3.05
2.46
1.82
1.20
0.65
0.20
-0.13
-0.32
-0.40
-0.45
-0.55
-0.75
-1.07
-1.50
-1.96
-2.41
-2.83
-3.23
-3.65
-4.10
-4.57
-5.06
-5.52
-5.92
-6.18
-6.18
-5.83
-5.08
-3.97
-2.63
-1.22
0.14
1.38
2.48
3.37
4.00
4.25
4.13
3.70
3.19
2.83
2.78
3.08
3.60
4.17
4.62
4.85
4.86
4.69
4.40
4.06
3.71
3.36
3.03
2.75
2.51
2.31
2.13
1.96
1.77
1.51
1.20
0.83
0.45
0.08
-0.25
-0.58
-0.96
-1.42
-1.98
-2.57
-3.10
-3.46
-3.62
-3.63
-3.63
-3.78
-4.16
-4.75
-5.42
-5.97
-6.25
-6.16
-5.73
-5.02
-4.10
-3.03
-1.87
-0.70
0.38
1.26
1.86
2.16
2.22
2.13
2.02
1.98
2.03
2.18
2.40
2.65
2.92
3.20
3.44
3.63
3.71
3.67
3.50
3.24
2.93
2.63
2.34
2.06
1.75
1.41
1.02
0.64
0.28
-0.02
-0.26
-0.47
-0.66
-0.88
-1.15
-1.51
-1.96
-2.48
-3.02
-3.53
-3.93
-4.20
-4.36
-4.49
-4.68
-5.03
-5.56
-6.21
-6.85
-7.31
-7.44
-7.14
-6.44
-5.44
-4.28
-3.08
-1.92
-0.79
0.30
1.34
2.27
2.98
3.42
3.60
3.62
3.63
3.72
3.89
4.10
4.30
4.43
4.52
4.60
4.66
4.66
4.53
4.23
3.82
3.38
3.04
2.86
2.83
2.90
2.96
2.92
2.76
2.51
2.22
1.97
1.77
1.57
1.24
0.73
0.03
-0.74
-1.43
-1.93
-2.25
-2.51
-2.86
-3.38
-3.98
-4.52
-4.87
-5.02
-5.10
-5.29
-5.71
-6.35
-7.04
-7.56
-7.77
-7.62
-7.16
-6.43
-5.49
-4.35
-2.99
-1.47
0.09
1.52
2.64
3.35
3.66
3.69
3.60
3.57
3.68
3.89
4.12
4.24
4.18
3.99
3.78
3.69
3.78
4.03
4.33
4.51
4.49
4.25
3.85
3.41
2.99
2.63
2.30
1.95
1.53
1.06
0.61
0.26
0.07
0.01
-0.02
-0.12
-0.36
-0.71
-1.06
-1.34
-1.52
-1.70
-2.03
-2.61
-3.43
-4.36
-5.24
-5.93
-6.37
-6.56
-6.52
-6.26
-5.77
-5.04
-4.09
-3.02
-1.90
-0.82
0.18
1.10
1.91
2.56
3.02
3.28
3.37
3.36
3.32
3.28
3.23
3.15
3.04
2.96
2.96
3.11
3.36
3.60
3.68
3.50
3.04
2.39
1.68
1.03
0.51
0.13
-0.10
-0.20
-0.22
-0.21
-0.26
-0.47
-0.88
-1.48
-2.18
-2.85
-3.39
-3.75
-3.99
-4.20
-4.50
-4.95
-5.58
-6.34
-7.09
-7.66
-7.85
-7.55
-6.72
-5.50
-4.12
-2.79
-1.68
-0.80
-0.06
0.66
1.40
2.13
2.77
3.23
3.51
3.68
3.81
3.96
4.09
4.16
4.11
3.95
3.71
3.42
3.13
2.82
2.54
2.30
2.19
2.22
2.34
2.43
2.32
1.87
1.05
-0.06
-1.26
-2.33
-3.09
-3.51
-3.66
-3.67
-3.67
-3.76
-3.94
-4.19
-4.46
-4.72
-4.97
-5.20
-5.40
-5.52
-5.58
-5.60
-5.62
-5.68
-5.73
-5.66
-5.32
-4.62
-3.57
-2.25
-0.83
0.52
1.70
2.65
3.35
3.84
4.14
4.30
4.38
4.50
4.73
5.10
5.60
6.13
6.57
6.79
6.76
6.52
6.15
5.78
5.51
5.33
5.23
5.12
4.94
4.65
4.27
3.86
3.43
3.01
2.58
2.15
1.75
1.37
1.06
0.79
0.52
0.19
-0.20
-0.67
-1.16
-1.65
-2.12
-2.57
-3.04
-3.54
-4.11
-4.78
-5.55
-6.43
-7.34
-8.13
-8.60
-8.58
-8.00
-6.92
-5.53
-4.01
-2.51
-1.11
0.22
1.46
2.58
3.46
4.05
4.34
4.45
4.54
4.76
5.13
5.55
5.89
6.05
6.02
5.87
5.72
5.65
5.67
5.75
5.83
5.86
5.82
5.66
5.40
5.02
4.54
4.02
3.50
3.00
2.51
2.00
1.46
0.92
0.42
0.02
-0.28
-0.52
-0.78
-1.12
-1.56
-2.03
-2.46
-2.83
-3.14
-3.49
-3.93
-4.51
-5.18
-5.87
-6.44
-6.79
-6.85
-6.59
-5.99
-5.10
-3.96
-2.68
-1.35
-0.08
1.06
2.02
2.79
3.38
3.79
4.04
4.11
4.05
3.89
3.71
3.55
3.44
3.37
3.32
3.27
3.21
3.16
3.12
3.07
2.98
2.84
2.61
2.31
1.98
1.65
1.35
1.09
0.86
0.60
0.25
-0.21
-0.78
-1.41
-2.08
-2.74
-3.39
-4.01
-4.55
-4.99
-5.28
-5.49
-5.70
-6.01
-6.45
-6.90
-7.16
-7.00
-6.29
-5.08
-3.56
-1.96
-0.50
0.69
1.55
2.11
2.41
2.49
2.47
2.45
2.52
2.73
3.08
3.47
3.82
4.05
4.13
4.07
3.90
3.70
3.50
3.32
3.18
3.03
2.84
2.58
2.26
1.87
1.42
0.87
0.23
-0.45
-1.10
-1.60
-1.92
-2.09
-2.26
-2.58
-3.12
-3.84
-4.57
-5.14
-5.45
-5.50
-5.40
-5.24
-5.08
-4.93
-4.80
-4.71
-4.69
-4.73
-4.76
-4.63
-4.23
-3.51
-2.51
-1.39
-0.28
0.73
1.64
2.50
3.35
4.16
4.89
5.45
5.76
5.83
5.67
5.36
5.00
4.66
4.41
4.28
4.26
4.33
4.45
4.60
4.76
4.90
4.98
4.96
4.82
4.54
4.17
3.75
3.33
2.93
2.52
2.08
1.58
1.04
0.53
0.12
-0.14
-0.25
-0.30
-0.42
-0.72
-1.22
-1.86
-2.54
-3.15
-3.65
-4.09
-4.51
-4.98
-5.51
-6.07
-6.63
-7.14
-7.52
-7.63
-7.34
-6.56
-5.28
-3.68
-1.99
-0.48
0.72
1.56
2.13
2.53
2.86
3.10
3.25
3.30
3.27
3.27
3.37
3.62
4.00
4.38
4.65
4.72
4.57
4.25
3.89
3.55
3.28
3.07
2.88
2.65
2.35
1.96
1.50
1.03
0.59
0.22
-0.08
-0.35
-0.61
-0.91
-1.22
-1.57
-1.92
-2.27
-2.59
-2.86
-3.08
-3.30
-3.60
-4.05
-4.67
-5.38
-6.04
-6.48
-6.60
-6.38
-5.87
-5.12
-4.13
-2.93
-1.56
-0.18
1.01
1.85
2.26
2.34
2.26
2.24
2.35
2.58
2.82
2.97
3.00
2.95
2.90
2.88
2.91
2.94
2.96
2.97
3.01
3.11
3.22
3.26
3.14
2.77
2.16
1.40
0.61
-0.09
-0.64
-1.03
-1.28
-1.46
-1.61
-1.79
-2.04
-2.38
-2.79
-3.23
-3.68
-4.15
-4.69
-5.34
-6.08
-6.83
-7.40
-7.61
-7.31
-6.51
-5.31
-3.91
-2.51
-1.26
-0.24
0.54
1.10
1.45
1.67
1.81
1.97
2.22
2.63
3.18
3.82
4.43
4.85
5.01
4.91
4.64
4.38
4.26
4.33
4.49
4.55
4.33
3.79
3.00
2.15
1.42
0.94
0.72
0.70
0.78
0.87
0.88
0.74
0.41
-0.14
-0.87
-1.70
-2.53
-3.28
-3.88
-4.31
-4.61
-4.79
-4.91
-5.07
-5.35
-5.85
-6.55
-7.32
-7.91
-8.07
-7.62
-6.56
-5.07
-3.44
-1.92
-0.66
0.30
1.06
1.69
2.21
2.62
2.91
3.12
3.33
3.63
4.05
4.54
4.97
5.21
5.20
4.96
4.61
4.27
4.05
3.96
3.95
3.96
3.96
3.93
3.86
3.75
3.55
3.20
2.67
1.97
1.16
0.37
-0.26
-0.64
-0.74
-0.63
-0.46
-0.43
-0.67
-1.23
-2.03
-2.92
-3.74
-4.37
-4.81
-5.12
-5.36
-5.60
-5.82
-5.97
-5.95
-5.67
-5.07
-4.16
-3.02
-1.80
-0.67
0.28
1.01
1.58
2.03
2.39
2.60
2.62
2.46
2.24
2.13
2.27
2.68
3.23
3.72
3.96
3.90
3.61
3.31
3.14
3.15
3.23
3.18
2.87
2.28
1.53
0.79
0.21
-0.19
-0.47
-0.72
-0.97
-1.22
-1.40
-1.50
-1.57
-1.69
-1.98
-2.47
-3.17
-4.00
-4.85
-5.64
-6.27
-6.68
-6.84
-6.75
-6.41
-5.83
-5.00
-3.93
-2.68
-1.33
-0.03
1.07
1.88
2.36
2.59
2.68
2.74
2.82
2.91
3.00
3.07
3.14
3.25
3.42
3.61
3.74
3.72
3.54
3.24
2.96
2.83
2.89
3.07
3.23
3.19
2.87
2.32
1.65
1.02
0.50
0.11
-0.18
-0.45
-0.71
-1.00
-1.35
-1.78
-2.32
-2.95
-3.59
-4.19
-4.70
-5.12
-5.53
-5.97
-6.46
-6.96
-7.38
-7.58
-7.46
-6.95
-6.04
-4.79
-3.32
-1.78
-0.33
0.91
1.83
2.40
2.67
2.71
2.66
2.65
2.80
3.12
3.58
4.04
4.39
4.56
4.55
4.44
4.30
4.18
4.11
4.06
4.00
3.95
3.89
3.83
3.74
3.57
3.28
2.85
2.32
1.73
1.12
0.54
0.01
-0.43
-0.78
-1.03
-1.23
-1.44
-1.72
-2.12
-2.65
-3.27
-3.94
-4.58
-5.15
-5.65
-6.12
-6.62
-7.17
-7.70
-8.02
-7.92
-7.22
-5.96
-4.35
-2.70
-1.26
-0.11
0.87
1.80
2.74
3.55
4.06
4.16
3.92
3.60
3.48
3.68
4.11
4.58
4.87
4.93
4.84
4.74
4.71
4.70
4.60
4.32
3.88
3.40
3.01
2.83
2.83
2.90
2.90
2.69
2.23
1.56
0.77
0.00
-0.63
-1.10
-1.44
-1.73
-2.06
-2.48
-2.99
-3.56
-4.14
-4.70
-5.23
-5.74
-6.21
-6.58
-6.76
-6.66
-6.26
-5.58
-4.72
-3.78
-2.81
-1.84
-0.87
0.08
0.96
1.69
2.23
2.56
2.76
2.93
3.15
3.44
3.78
4.10
4.37
4.54
4.60
4.54
4.35
4.05
3.66
3.22
2.76
2.30
1.83
1.38
0.99
0.70
0.53
0.49
0.48
0.44
0.27
-0.03
-0.43
-0.85
-1.26
-1.66
-2.05
-2.47
-2.89
-3.27
-3.60
-3.89
-4.23
-4.72
-5.40
-6.20
-6.94
-7.41
-7.41
-6.86
-5.78
-4.29
-2.57
-0.84
0.71
1.91
2.71
3.15
3.36
3.47
3.58
3.72
3.84
3.93
4.00
4.10
4.26
4.44
4.59
4.64
4.60
4.56
4.58
4.67
4.77
4.76
4.54
4.13
3.61
3.10
2.71
2.42
2.18
1.88
1.47
0.94
0.33
-0.27
-0.80
-1.22
-1.53
-1.77
-2.01
-2.30
-2.66
-3.10
-3.59
-4.11
-4.64
-5.18
-5.71
-6.22
-6.69
-7.10
-7.39
-7.47
-7.29
-6.79
-5.99
-4.94
-3.74
-2.50
-1.27
-0.08
1.05
2.09
2.98
3.63
4.03
4.19
4.22
4.25
4.36
4.54
4.73
4.80
4.70
4.47
4.23
4.13
4.24
4.50
4.78
4.92
4.86
4.61
4.26
3.89
3.51
3.06
2.53
1.93
1.36
0.90
0.60
0.42
0.28
0.08
-0.23
-0.67
-1.21
-1.79
-2.35
-2.86
-3.27
-3.61
-3.88
-4.15
-4.48
-4.93
-5.54
-6.30
-7.15
-7.96
-8.52
-8.63
-8.14
-7.04
-5.51
-3.83
-2.23
-0.87
0.31
1.36
2.34
3.15
3.65
3.74
3.52
3.23
3.14
3.40
3.91
4.38
4.57
4.40
4.02
3.72
3.71
3.97
4.32
4.48
4.31
3.85
3.31
2.89
2.68
2.62
2.53
2.28
1.85
1.31
0.79
0.35
0.02
-0.29
-0.62
-0.99
-1.37
-1.69
-1.92
-2.09
-2.31
-2.67
-3.21
-3.91
-4.71
-5.53
-6.29
-6.96
-7.49
-7.83
-7.90
-7.62
-6.92
-5.82
-4.39
-2.80
-1.24
0.14
1.20
1.94
2.39
2.62
2.70
2.69
2.61
2.49
2.41
2.42
2.55
2.77
2.97
3.06
2.98
2.77
2.52
2.35
2.30
2.37
2.48
2.55
2.50
2.32
1.97
1.47
0.82
0.10
-0.62
-1.24
-1.70
-2.05
-2.36
-2.71
-3.11
-3.52
-3.87
-4.12
-4.27
-4.45
-4.77
-5.29
-6.01
-6.83
-7.61
-8.21
-8.50
-8.39
-7.87
-6.98
-5.86
-4.63
-3.42
-2.27
-1.15
-0.05
1.03
2.02
2.83
3.39
3.69
3.79
3.81
3.85
3.97
4.18
4.41
4.60
4.69
4.68
4.62
4.58
4.59
4.65
4.66
4.55
4.26
3.81
3.30
2.80
2.37
1.99
1.64
1.30
0.95
0.64
0.35
0.03
-0.39
-0.94
-1.60
-2.28
-2.90
-3.40
-3.81
-4.22
-4.73
-5.36
-6.08
-6.81
-7.48
-8.07
-8.60
-9.09
-9.51
-9.76
-9.72
-9.24
-8.30
-6.96
-5.37
-3.72
-2.14
-0.75
0.46
1.50
2.40
3.16
3.75
4.18
4.50
4.82
5.22
5.73
6.29
6.77
7.07
7.19
7.18
7.12
7.06
6.94
6.67
6.20
5.59
4.98
4.55
4.35
4.35
4.40
4.38
4.21
3.89
3.46
2.96
2.41
1.80
1.15
0.51
-0.05
-0.48
-0.80
-1.08
-1.38
-1.78
-2.28
-2.85
-3.44
-4.03
-4.65
-5.31
-6.07
-6.89
-7.68
-8.30
-8.58
-8.41
-7.77
-6.72
-5.37
-3.86
-2.27
-0.71
0.76
2.08
3.17
3.98
4.49
4.72
4.76
4.73
4.73
4.83
5.06
5.37
5.71
6.00
6.18
6.19
6.01
5.66
5.15
4.56
3.95
3.42
3.03
2.80
2.69
2.65
2.59
2.43
2.15
1.75
1.26
0.77
0.30
-0.11
-0.51
-0.92
-1.40
-1.92
-2.46
-2.96
-3.43
-3.90
-4.44
-5.10
-5.84
-6.57
-7.13
-7.34
-7.12
-6.43
-5.33
-3.95
-2.43
-0.93
0.38
1.43
2.18
2.67
3.00
3.26
3.53
3.82
4.12
4.38
4.58
4.74
4.89
5.02
5.12
5.12
4.94
4.58
4.07
3.51
2.99
2.55
2.15
1.71
1.19
0.63
0.10
-0.30
-0.55
-0.71
-0.90
-1.23
-1.71
-2.28
-2.80
-3.17
-3.36
-3.44
-3.54
-3.81
-4.31
-5.07
-6.03
-7.06
-8.04
-8.79
-9.15
-8.95
-8.13
-6.72
-4.86
-2.81
-0.84
0.83
2.09
2.93
3.41
3.61
3.64
3.60
3.60
3.73
4.03
4.49
5.04
5.53
5.86
5.95
5.81
5.51
5.17
4.83
4.51
4.16
3.71
3.16
2.55
1.98
1.55
1.31
1.21
1.14
0.97
0.64
0.15
-0.45
-1.12
-1.81
-2.49
-3.15
-3.72
-4.16
-4.44
-4.62
-4.81
-5.17
-5.81
-6.71
-7.73
-8.65
-9.20
-9.18
-8.51
-7.26
-5.60
-3.76
-1.97
-0.38
0.94
1.98
2.78
3.40
3.87
4.22
4.45
4.61
4.76
4.93
5.14
5.37
5.57
5.65
5.62
5.49
5.32
5.19
5.11
5.03
4.86
4.54
4.07
3.50
2.91
2.38
1.92
1.53
1.23
1.01
0.86
0.75
0.60
0.30
-0.16
-0.76
-1.40
-1.98
-2.43
-2.78
-3.10
-3.45
-3.89
-4.43
-5.09
-5.85
-6.64
-7.34
-7.75
-7.68
-7.02
-5.83
-4.27
-2.62
-1.13
0.06
0.92
1.53
1.95
2.28
2.54
2.73
2.89
3.00
3.13
3.30
3.54
3.83
4.12
4.31
4.36
4.24
3.98
3.68
3.41
3.21
3.06
2.92
2.70
2.36
1.91
1.40
0.89
0.42
-0.01
-0.42
-0.85
-1.30
-1.76
-2.19
-2.57
-2.89
-3.18
-3.46
-3.78
-4.16
-4.63
-5.16
-5.70
-6.14
-6.37
-6.27
-5.80
-4.99
-3.93
-2.74
-1.51
-0.32
0.74
1.63
2.27
2.67
2.86
2.96
3.11
3.38
3.74
4.06
4.20
4.06
3.69
3.24
2.93
2.87
3.06
3.35
3.55
3.54
3.29
2.88
2.41
1.97
1.55
1.12
0.66
0.17
-0.30
-0.69
-1.02
-1.30
-1.62
-2.01
-2.48
-2.97
-3.42
-3.81
-4.13
-4.47
-4.91
-5.51
-6.26
-7.05
-7.72
-8.08
-7.99
-7.41
-6.39
-5.04
-3.50
-1.90
-0.36
1.05
2.28
3.27
3.99
4.43
4.62
4.61
4.49
4.36
4.29
4.33
4.45
4.61
4.74
4.78
4.75
4.68
4.58
4.47
4.26
3.89
3.30
2.57
1.87
1.37
1.21
1.36
1.64
1.85
1.79
1.38
0.70
-0.11
-0.91
-1.60
-2.16
-2.62
-3.02
-3.39
-3.75
-4.08
-4.38
-4.67
-4.97
-5.36
-5.87
-6.52
-7.18
-7.68
-7.77
-7.30
-6.28
-4.85
-3.29
-1.81
-0.51
0.63
1.69
2.68
3.54
4.12
4.33
4.24
4.04
3.95
4.13
4.58
5.15
5.63
5.87
5.78
5.43
4.91
4.37
3.90
3.56
3.34
3.17
2.99
2.73
2.38
1.98
1.57
1.19
0.86
0.58
0.36
0.18
-0.01
-0.22
-0.49
-0.80
-1.17
-1.59
-2.04
-2.51
-2.98
-3.42
-3.84
-4.24
-4.67
-5.15
-5.65
-6.06
-6.25
-6.07
-5.46
-4.47
-3.23
-1.91
-0.66
0.42
1.26
1.82
2.07
2.02
1.77
1.46
1.31
1.42
1.83
2.46
3.13
3.68
3.99
4.04
3.88
3.56
3.16
2.73
2.33
2.02
1.82
1.72
1.65
1.51
1.23
0.80
0.26
-0.27
-0.75
-1.16
-1.55
-1.96
-2.45
-3.01
-3.58
-4.09
-4.50
-4.79
-5.04
-5.34
-5.72
-6.18
-6.60
-6.82
-6.70
-6.14
-5.18
-3.93
-2.58
-1.29
-0.18
0.75
1.51
2.17
2.76
3.26
3.61
3.78
3.79
3.72
3.71
3.82
4.06
4.32
4.48
4.44
4.20
3.82
3.39
3.00
2.67
2.41
2.21
2.02
1.81
1.52
1.11
0.61
0.10
-0.32
-0.58
-0.70
-0.79
-1.01
-1.45
-2.09
-2.84
-3.54
-4.08
-4.43
-4.66
-4.86
-5.08
-5.40
-5.83
-6.38
-7.02
-7.68
-8.22
-8.47
-8.26
-7.50
-6.23
-4.58
-2.76
-0.99
0.60
1.91
2.92
3.62
4.02
4.14
4.07
3.93
3.86
3.98
4.34
4.89
5.49
5.95
6.13
5.97
5.54
4.96
4.43
4.09
3.98
4.03
4.10
4.04
3.74
3.22
2.54
1.83
1.21
0.74
0.44
0.25
0.08
-0.13
-0.44
-0.85
-1.30
-1.72
-2.09
-2.41
-2.76
-3.19
-3.75
-4.42
-5.15
-5.90
-6.66
-7.42
-8.15
-8.76
-9.11
-9.03
-8.42
-7.29
-5.75
-3.98
-2.16
-0.43
1.10
2.39
3.40
4.11
4.48
4.55
4.42
4.21
4.09
4.14
4.40
4.80
5.23
5.58
5.79
5.85
5.78
5.59
5.31
4.97
4.61
4.30
4.08
3.96
3.89
3.79
3.56
3.13
2.51
1.74
0.93
0.20
-0.33
-0.59
-0.64
-0.59
-0.61
-0.85
-1.35
-2.08
-2.89
-3.64
-4.21
-4.58
-4.74
-4.78
-4.80
-4.90
-5.12
-5.47
-5.82
-5.99
-5.82
-5.21
-4.23
-3.04
-1.83
-0.74
0.19
1.01
1.76
2.45
2.99
3.25
3.18
2.85
2.45
2.21
2.29
2.67
3.20
3.65
3.83
3.68
3.33
2.93
2.66
2.59
2.65
2.74
2.74
2.58
2.25
1.80
1.23
0.61
-0.05
-0.69
-1.25
-1.69
-2.01
-2.25
-2.47
-2.70
-2.98
-3.25
-3.51
-3.77
-4.11
-4.61
-5.29
-6.08
-6.82
-7.30
-7.36
-6.96
-6.13
-5.00
-3.69
-2.32
-0.98
0.23
1.23
1.97
2.45
2.78
3.05
3.35
3.70
4.05
4.33
4.48
4.49
4.39
4.23
4.08
3.99
3.98
4.05
4.12
4.11
3.95
3.62
3.18
2.70
2.26
1.87
1.48
1.04
0.58
0.17
-0.09
-0.18
-0.16
-0.20
-0.47
-1.06
-1.91
-2.85
-3.67
-4.24
-4.52
-4.64
-4.78
-5.10
-5.68
-6.53
-7.56
-8.61
-9.50
-9.99
-9.92
-9.21
-7.94
-6.29
-4.55
-2.93
-1.56
-0.42
0.58
1.53
2.48
3.39
4.22
4.88
5.34
5.61
5.73
5.81
5.95
6.21
6.60
6.95
7.11
6.91
6.34
5.53
4.72
4.11
3.78
3.67
3.64
3.55
3.33
3.02
2.67
2.33
2.00
1.63
1.21
0.71
0.16
-0.41
-0.97
-1.51
-2.04
-2.56
-3.05
-3.50
-3.89
-4.24
-4.61
-5.07
-5.64
-6.31
-7.00
-7.61
-8.03
-8.17
-7.95
-7.31
-6.22
-4.69
-2.83
-0.84
1.04
2.57
3.63
4.26
4.54
4.64
4.66
4.68
4.72
4.78
4.88
5.04
5.25
5.47
5.61
5.62
5.45
5.11
4.69
4.28
3.96
3.76
3.65
3.58
3.51
3.41
3.28
3.12
2.89
2.55
2.04
1.34
0.52
-0.30
-0.99
-1.50
-1.85
-2.14
-2.45
-2.82
-3.23
-3.64
-4.04
-4.50
-5.07
-5.75
-6.44
-6.94
-7.04
-6.64
-5.78
-4.61
-3.32
-2.05
-0.86
0.26
1.29
2.21
2.89
3.26
3.28
3.06
2.76
2.56
2.57
2.76
3.02
3.23
3.28
3.15
2.90
2.60
2.34
2.20
2.18
2.25
2.35
2.37
2.23
1.86
1.27
0.51
-0.35
-1.21
-2.02
-2.72
-3.27
-3.63
-3.82
-3.88
-3.91
-4.03
-4.32
-4.80
-5.40
-5.99
-6.45
-6.65
-6.54
-6.11
-5.37
-4.39
-3.23
-2.02
-0.84
0.21
1.08
1.76
2.26
2.62
2.85
2.97
3.00
2.98
2.94
2.92
2.91
2.92
2.97
3.09
3.30
3.58
3.85
4.00
3.93
3.62
3.14
2.63
2.16
1.80
1.49
1.17
0.79
0.33
-0.19
-0.75
-1.35
-1.97
-2.56
-3.06
-3.42
-3.66
-3.84
-4.10
-4.56
-5.27
-6.16
-7.09
-7.90
-8.40
-8.50
-8.16
-7.41
-6.31
-4.98
-3.54
-2.08
-0.68
0.64
1.83
2.88
3.75
4.42
4.83
4.99
4.90
4.65
4.34
4.11
4.06
4.21
4.50
4.78
4.90
4.78
4.45
4.02
3.62
3.31
3.07
2.86
2.60
2.28
1.92
1.56
1.19
0.81
0.35
-0.21
-0.87
-1.62
-2.39
-3.08
-3.60
-3.90
-3.96
-3.89
-3.84
-4.01
-4.55
-5.51
-6.76
-8.04
-9.02
-9.42
-9.04
-7.88
-6.12
-4.05
-2.00
-0.21
1.17
2.13
2.78
3.27
3.73
4.22
4.73
5.20
5.58
5.83
5.97
6.00
5.97
5.88
5.76
5.63
5.53
5.45
5.34
5.16
4.85
4.43
3.94
3.43
2.92
2.40
1.85
1.32
0.87
0.59
0.49
0.47
0.37
0.01
-0.67
-1.57
-2.48
-3.19
-3.60
-3.75
-3.78
-3.90
-4.26
-4.88
-5.71
-6.63
-7.51
-8.19
-8.52
-8.41
-7.78
-6.66
-5.20
-3.61
-2.10
-0.82
0.20
0.98
1.64
2.24
2.83
3.40
3.90
4.31
4.60
4.75
4.76
4.64
4.45
4.21
3.97
3.76
3.59
3.46
3.36
3.24
3.07
2.82
2.49
2.13
1.81
1.56
1.35
1.14
0.87
0.49
0.01
-0.53
-1.09
-1.64
-2.15
-2.60
-2.99
-3.32
-3.62
-3.96
-4.42
-5.10
-6.00
-6.98
-7.79
-8.16
-7.87
-6.90
-5.42
-3.70
-2.04
-0.58
0.63
1.65
2.51
3.19
3.60
3.75
3.71
3.60
3.53
3.57
3.65
3.69
3.64
3.51
3.38
3.32
3.37
3.49
3.59
3.56
3.34
2.92
2.32
1.61
0.87
0.19
-0.36
-0.75
-1.01
-1.20
-1.39
-1.63
-1.93
-2.27
-2.62
-2.98
-3.38
-3.88
-4.55
-5.43
-6.48
-7.57
-8.48
-9.00
-8.96
-8.32
-7.16
-5.69
-4.10
-2.53
-1.08
0.24
1.40
2.34
3.01
3.41
3.58
3.63
3.68
3.85
4.15
4.52
4.86
5.05
5.05
4.86
4.58
4.29
4.03
3.79
3.49
3.08
2.51
1.85
1.17
0.56
0.05
-0.37
-0.77
-1.22
-1.73
-2.25
-2.72
-3.08
-3.32
-3.52
-3.74
-4.01
-4.32
-4.61
-4.82
-4.98
-5.16
-5.49
-6.03
-6.73
-7.37
-7.70
-7.47
-6.57
-5.08
-3.21
-1.24
0.59
2.16
3.45
4.52
5.45
6.27
6.95
7.45
7.71
7.73
7.56
7.30
7.07
6.96
6.98
7.10
7.24
7.33
7.32
7.20
7.00
6.74
6.44
6.11
5.72
5.26
4.70
4.03
3.28
2.53
1.85
1.29
0.82
0.37
-0.12
-0.69
-1.30
-1.88
-2.36
-2.72
-3.01
-3.30
-3.62
-4.00
-4.45
-4.98
-5.66
-6.50
-7.48
-8.40
-9.03
-9.16
-8.67
-7.64
-6.27
-4.78
-3.32
-1.97
-0.71
0.49
1.65
2.73
3.69
4.46
4.97
5.24
5.29
5.23
5.16
5.18
5.30
5.46
5.59
5.63
5.54
5.35
5.12
4.86
4.58
4.28
3.99
3.72
3.51
3.35
3.18
2.98
2.69
2.30
1.81
1.23
0.63
0.11
-0.24
-0.37
-0.33
-0.26
-0.35
-0.72
-1.36
-2.18
-3.01
-3.74
-4.34
-4.83
-5.30
-5.80
-6.34
-6.90
-7.40
-7.76
-7.85
-7.56
-6.82
-5.66
-4.16
-2.50
-0.89
0.48
1.51
2.15
2.48
2.62
2.69
2.80
2.99
3.26
3.58
3.93
4.27
4.58
4.81
4.91
4.90
4.79
4.64
4.46
4.25
3.95
3.51
2.91
2.22
1.59
1.14
0.93
0.90
0.89
0.73
0.34
-0.29
-1.01
-1.68
-2.17
-2.47
-2.66
-2.88
-3.21
-3.68
-4.26
-4.90
-5.58
-6.30
-7.06
-7.78
-8.31
-8.46
-8.09
-7.19
-5.91
-4.45
-3.03
-1.75
-0.65
0.36
1.33
2.26
3.10
3.76
4.17
4.29
4.18
3.93
3.71
3.65
3.81
4.15
4.53
4.76
4.70
4.34
3.80
3.26
2.87
2.66
2.59
2.54
2.45
2.28
2.05
1.77
1.42
0.99
0.44
-0.24
-1.01
-1.84
-2.66
-3.42
-4.08
-4.59
-4.96
-5.26
-5.55
-5.95
-6.50
-7.16
-7.83
-8.33
-8.52
-8.34
-7.78
-6.87
-5.68
-4.28
-2.74
-1.16
0.37
1.74
2.88
3.73
4.28
4.53
4.54
4.39
4.18
4.03
4.03
4.19
4.50
4.87
5.19
5.37
5.36
5.16
4.80
4.38
4.00
3.77
3.73
3.81
3.91
3.86
3.59
3.09
2.46
1.82
1.25
0.75
0.23
-0.40
-1.17
-2.03
-2.88
-3.57
-4.04
-4.28
-4.37
-4.43
-4.57
-4.92
-5.53
-6.40
-7.43
-8.46
-9.32
-9.82
-9.86
-9.36
-8.33
-6.86
-5.11
-3.28
-1.57
-0.12
1.03
1.92
2.61
3.16
3.59
3.93
4.16
4.34
4.50
4.67
4.84
4.99
5.10
5.17
5.21
5.25
5.26
5.25
5.20
5.14
5.07
4.98
4.83
4.56
4.14
3.55
2.85
2.16
1.56
1.10
0.76
0.48
0.16
-0.23
-0.67
-1.12
-1.58
-2.05
-2.57
-3.16
-3.79
-4.39
-4.94
-5.44
-5.99
-6.63
-7.34
-7.97
-8.26
-8.02
-7.18
-5.86
-4.31
-2.79
-1.50
-0.47
0.35
1.09
1.85
2.66
3.49
4.20
4.69
4.89
4.84
4.64
4.43
4.31
4.28
4.25
4.13
3.88
3.53
3.20
2.97
2.86
2.82
2.72
2.48
2.08
1.56
1.00
0.45
-0.05
-0.48
-0.81
-1.02
-1.13
-1.20
-1.33
-1.66
-2.24
-3.07
-4.03
-4.99
-5.84
-6.55
-7.11
-7.56
-7.89
-8.01
-7.84
-7.29
-6.34
-5.08
-3.65
-2.21
-0.90
0.21
1.15
1.96
2.68
3.30
3.76
4.02
4.08
4.03
4.00
4.09
4.30
4.57
4.74
4.70
4.44
4.05
3.69
3.44
3.32
3.27
3.18
3.02
2.76
2.47
2.16
1.87
1.53
1.13
0.66
0.14
-0.36
-0.83
-1.26
-1.71
-2.21
-2.79
-3.41
-4.03
-4.62
-5.21
-5.86
-6.64
-7.55
-8.49
-9.21
-9.44
-8.95
-7.72
-5.90
-3.81
-1.78
-0.05
1.31
2.32
3.08
3.64
4.03
4.24
4.28
4.23
4.18
4.24
4.47
4.89
5.44
5.97
6.35
6.44
6.20
5.71
5.11
4.60
4.27
4.14
4.10
4.02
3.79
3.40
2.92
2.43
1.94
1.45
0.90
0.27
-0.41
-1.09
-1.70
-2.20
-2.59
-2.89
-3.14
-3.33
-3.48
-3.61
-3.81
-4.17
-4.76
-5.62
-6.66
-7.74
-8.61
-9.05
-8.90
-8.12
-6.80
-5.12
-3.32
-1.59
-0.07
1.20
2.23
3.03
3.63
4.05
4.31
4.48
4.65
4.86
5.15
5.47
5.75
5.90
5.91
5.79
5.63
5.52
5.49
5.52
5.51
5.38
5.07
4.59
4.00
3.36
2.73
2.11
1.53
1.00
0.55
0.19
-0.11
-0.43
-0.84
-1.33
-1.87
-2.34
-2.69
-2.90
-3.07
-3.28
-3.60
-4.04
-4.53
-5.03
-5.53
-6.06
-6.64
-7.21
-7.61
-7.65
-7.19
-6.24
-4.94
-3.54
-2.25
-1.20
-0.35
0.42
1.23
2.10
2.95
3.65
4.08
4.26
4.27
4.27
4.35
4.48
4.55
4.44
4.07
3.51
2.91
2.47
2.31
2.45
2.74
3.00
3.03
2.76
2.22
1.54
0.89
0.36
-0.01
-0.28
-0.51
-0.74
-1.00
-1.29
-1.62
-2.03
-2.57
-3.19
-3.84
-4.42
-4.86
-5.19
-5.53
-6.01
-6.69
-7.46
-8.11
-8.37
-8.06
-7.13
-5.69
-3.95
-2.14
-0.44
1.00
2.12
2.88
3.32
3.51
3.54
3.54
3.57
3.67
3.82
3.99
4.16
4.28
4.32
4.25
4.07
3.78
3.47
3.21
3.05
2.95
2.83
2.61
2.23
1.77
1.33
1.00
0.80
0.64
0.40
-0.04
-0.65
-1.37
-2.06
-2.64
-3.05
-3.34
-3.56
-3.75
-3.98
-4.27
-4.64
-5.10
-5.63
-6.23
-6.90
-7.62
-8.35
-8.95
-9.25
-9.08
-8.35
-7.11
-5.54
-3.83
-2.14
-0.52
1.04
2.49
3.73
4.60
4.96
4.84
4.40
3.95
3.77
4.02
4.64
5.44
6.15
6.56
6.62
6.41
6.10
5.81
5.57
5.35
5.05
4.66
4.22
3.80
3.45
3.17
2.84
2.38
1.73
0.96
0.24
-0.29
-0.52
-0.52
-0.44
-0.44
-0.66
-1.14
-1.82
-2.62
-3.43
-4.17
-4.80
-5.30
-5.67
-5.96
-6.27
-6.70
-7.30
-8.05
-8.78
-9.28
-9.34
-8.85
-7.82
-6.38
-4.71
-2.98
-1.36
0.09
1.34
2.41
3.34
4.12
4.69
5.00
5.03
4.87
4.68
4.66
4.90
5.35
5.81
6.10
6.09
5.80
5.39
5.01
4.76
4.67
4.67
4.71
4.71
4.63
4.41
4.03
3.46
2.72
1.89
1.07
0.37
-0.16
-0.51
-0.71
-0.83
-0.93
-1.09
-1.38
-1.84
-2.48
-3.24
-4.02
-4.74
-5.33
-5.80
-6.24
-6.70
-7.22
-7.72
-8.05
-8.04
-7.55
-6.59
-5.26
-3.74
-2.19
-0.76
0.48
1.50
2.32
2.93
3.36
3.63
3.81
3.94
4.04
4.13
4.17
4.16
4.11
4.04
3.98
3.95
3.94
3.95
3.99
4.04
4.07
4.03
3.85
3.49
2.96
2.34
1.71
1.16
0.75
0.47
0.29
0.16
0.00
-0.24
-0.60
-1.12
-1.76
-2.49
-3.24
-3.93
-4.53
-5.02
-5.44
-5.83
-6.24
-6.69
-7.16
-7.57
-7.81
-7.74
-7.26
-6.27
-4.82
-3.04
-1.15
0.55
1.85
2.67
3.07
3.21
3.26
3.32
3.40
3.47
3.52
3.60
3.79
4.09
4.48
4.84
5.05
5.05
4.87
4.59
4.30
4.04
3.78
3.50
3.21
2.95
2.75
2.62
2.50
2.31
2.01
1.59
1.11
0.61
0.11
-0.42
-0.99
-1.61
-2.24
-2.79
-3.23
-3.57
-3.87
-4.21
-4.66
-5.23
-5.91
-6.65
-7.42
-8.16
-8.83
-9.31
-9.43
-9.02
-8.01
-6.48
-4.63
-2.74
-1.05
0.34
1.42
2.28
3.00
3.62
4.14
4.52
4.71
4.75
4.67
4.56
4.49
4.49
4.56
4.65
4.71
4.66
4.49
4.26
4.01
3.80
3.61
3.40
3.11
2.72
2.28
1.88
1.59
1.46
1.45
1.45
1.34
1.02
0.48
-0.22
-0.97
-1.67
-2.28
-2.78
-3.20
-3.54
-3.81
-4.06
-4.35
-4.83
-5.58
-6.62
-7.80
-8.88
-9.60
-9.79
-9.47
-8.73
-7.71
-6.54
-5.27
-3.89
-2.42
-0.90
0.56
1.83
2.74
3.19
3.16
2.77
2.26
1.86
1.77
2.04
2.55
3.12
3.56
3.81
3.88
3.88
3.88
3.90
3.88
3.76
3.48
3.07
2.55
1.98
1.36
0.71
0.01
-0.67
-1.27
-1.71
-1.98
-2.15
-2.35
-2.71
-3.29
-4.03
-4.78
-5.42
-5.89
-6.27
-6.71
-7.34
-8.20
-9.12
-9.86
-10.10
-9.63
-8.42
-6.60
-4.45
-2.27
-0.31
1.33
2.61
3.59
4.32
4.79
5.02
5.02
4.85
4.62
4.50
4.57
4.87
5.30
5.72
5.98
6.00
5.83
5.54
5.25
5.03
4.87
4.71
4.44
4.02
3.44
2.75
2.07
1.47
0.96
0.52
0.09
-0.42
-1.04
-1.75
-2.50
-3.19
-3.79
-4.32
-4.87
-5.55
-6.43
-7.46
-8.51
-9.37
-9.82
-9.70
-8.96
-7.64
-5.87
-3.84
-1.78
0.12
1.71
2.94
3.87
4.62
5.28
5.86
6.33
6.64
6.78
6.83
6.88
6.98
7.14
7.30
7.43
7.49
7.53
7.57
7.62
7.63
7.50
7.18
6.66
5.97
5.21
4.48
3.84
3.33
2.92
2.56
2.16
1.66
1.05
0.35
-0.35
-0.99
-1.54
-2.06
-2.63
-3.32
-4.16
-5.11
-6.09
-7.06
-7.95
-8.68
-9.15
-9.22
-8.79
-7.82
-6.40
-4.65
-2.74
-0.82
1.03
2.73
4.22
5.40
6.22
6.65
6.72
6.53
6.16
5.73
5.31
5.01
4.93
5.12
5.53
6.03
6.40
6.45
6.12
5.47
4.65
3.82
3.11
2.50
1.96
1.44
0.95
0.56
0.29
0.13
-0.02
-0.27
-0.73
-1.41
-2.23
-3.07
-3.79
-4.36
-4.78
-5.17
-5.65
-6.30
-7.08
-7.85
-8.39
-8.46
-7.92
-6.77
-5.15
-3.26
-1.31
0.50
2.06
3.28
4.14
4.66
4.89
4.95
4.92
4.86
4.79
4.69
4.56
4.42
4.32
4.31
4.37
4.44
4.42
4.26
3.92
3.45
2.93
2.41
1.94
1.50
1.07
0.64
0.23
-0.16
-0.56
-1.03
-1.61
-2.33
-3.14
-3.96
-4.67
-5.23
-5.66
-6.07
-6.57
-7.20
-7.90
-8.50
-8.79
-8.58
-7.82
-6.55
-4.91
-3.10
-1.29
0.40
1.91
3.17
4.14
4.76
5.04
5.02
4.85
4.67
4.59
4.66
4.82
4.99
5.06
5.02
4.89
4.77
4.68
4.60
4.43
4.07
3.50
2.78
2.05
1.45
1.03
0.74
0.45
0.06
-0.45
-1.05
-1.65
-2.22
-2.80
-3.43
-4.14
-4.88
-5.51
-5.96
-6.25
-6.52
-7.01
-7.84
-8.95
-10.06
-10.79
-10.80
-10.00
-8.51
-6.63
-4.66
-2.82
-1.16
0.35
1.77
3.09
4.25
5.13
5.67
5.88
5.88
5.80
5.77
5.81
5.89
5.93
5.89
5.78
5.66
5.59
5.53
5.42
5.13
4.63
3.96
3.22
2.54
1.99
1.58
1.26
0.95
0.62
0.25
-0.17
-0.62
-1.10
-1.61
-2.16
-2.73
-3.31
-3.85
-4.31
-4.70
-5.04
-5.43
-5.97
-6.72
-7.62
-8.48
-9.01
-8.93
-8.15
-6.74
-5.00
-3.24
-1.70
-0.39
0.81
2.03
3.28
4.41
5.21
5.54
5.46
5.19
4.99
5.00
5.16
5.34
5.35
5.16
4.84
4.54
4.32
4.18
4.02
3.75
3.31
2.75
2.16
1.63
1.23
0.96
0.77
0.57
0.26
-0.19
-0.81
-1.55
-2.31
-3.04
-3.66
-4.15
-4.56
-4.94
-5.39
-5.96
-6.65
-7.40
-8.05
-8.42
-8.32
-7.65
-6.42
-4.77
-2.94
-1.16
0.37
1.58
2.48
3.14
3.66
4.10
4.53
4.96
5.40
5.81
6.11
6.22
6.12
5.83
5.40
4.94
4.51
4.13
3.79
3.49
3.25
3.08
2.97
2.83
2.57
2.14
1.58
0.99
0.45
-0.00
-0.43
-0.95
-1.62
-2.38
-3.13
-3.72
-4.09
-4.28
-4.41
-4.61
-5.00
-5.59
-6.36
-7.23
-8.07
-8.69
-8.89
-8.52
-7.56
-6.11
-4.39
-2.61
-0.91
0.66
2.08
3.31
4.28
4.90
5.14
5.09
4.91
4.78
4.80
4.98
5.24
5.46
5.57
5.54
5.41
5.22
5.02
4.84
4.69
4.58
4.46
4.24
3.87
3.32
2.66
2.01
1.49
1.16
0.96
0.72
0.30
-0.37
-1.17
-1.93
-2.50
-2.83
-3.03
-3.28
-3.74
-4.43
-5.26
-6.10
-6.87
-7.58
-8.24
-8.85
-9.31
-9.44
-9.09
-8.19
-6.83
-5.17
-3.41
-1.66
0.02
1.60
3.01
4.16
4.94
5.28
5.24
5.00
4.75
4.68
4.85
5.23
5.69
6.07
6.24
6.17
5.94
5.66
5.44
5.31
5.18
4.94
4.49
3.86
3.15
2.53
2.09
1.81
1.56
1.19
0.63
-0.07
-0.74
-1.22
-1.44
-1.47
-1.48
-1.64
-2.03
-2.62
-3.31
-3.98
-4.55
-5.03
-5.48
-5.99
-6.59
-7.27
-7.93
-8.44
-8.67
-8.52
-7.95
-6.96
-5.63
-4.06
-2.40
-0.79
0.66
1.86
2.79
3.48
3.98
4.36
4.66
4.88
4.99
4.98
4.87
4.70
4.54
4.43
4.36
4.34
4.33
4.31
4.28
4.22
4.09
3.80
3.28
2.51
1.59
0.66
-0.09
-0.57
-0.81
-0.92
-1.05
-1.29
-1.67
-2.12
-2.60
-3.10
-3.64
-4.23
-4.84
-5.39
-5.81
-6.14
-6.47
-6.90
-7.46
-8.01
-8.30
-8.10
-7.31
-6.04
-4.53
-3.01
-1.61
-0.35
0.81
1.88
2.77
3.37
3.62
3.57
3.37
3.20
3.21
3.42
3.75
4.11
4.40
4.59
4.67
4.65
4.52
4.28
3.92
3.51
3.13
2.86
2.76
2.76
2.78
2.64
2.25
1.59
0.79
-0.00
-0.64
-1.09
-1.42
-1.74
-2.16
-2.70
-3.31
-3.88
-4.36
-4.72
-4.99
-5.27
-5.66
-6.21
-6.94
-7.81
-8.70
-9.48
-10.00
-10.11
-9.74
-8.89
-7.61
-5.99
-4.15
-2.22
-0.37
1.26
2.53
3.40
3.94
4.31
4.66
5.11
5.62
6.09
6.40
6.45
6.29
6.04
5.86
5.81
5.83
5.80
5.58
5.13
4.56
4.04
3.71
3.65
3.77
3.93
3.95
3.72
3.23
2.54
1.74
0.94
0.20
-0.44
-0.96
-1.38
-1.73
-2.06
-2.40
-2.81
-3.27
-3.73
-4.11
-4.37
-4.48
-4.53
-4.67
-5.06
-5.78
-6.80
-7.95
-9.01
-9.77
-10.07
-9.84
-9.05
-7.74
-6.01
-4.00
-1.95
-0.07
1.45
2.54
3.27
3.76
4.14
4.48
4.77
4.96
5.00
4.93
4.79
4.70
4.72
4.87
5.14
5.45
5.75
5.98
6.09
6.02
5.76
5.32
4.76
4.21
3.76
3.46
3.29
3.17
2.97
2.63
2.14
1.56
0.99
0.48
0.10
-0.19
-0.42
-0.68
-1.04
-1.55
-2.21
-2.95
-3.66
-4.29
-4.81
-5.26
-5.73
-6.29
-6.96
-7.65
-8.22
-8.50
-8.33
-7.63
-6.44
-4.86
-3.09
-1.33
0.24
1.53
2.47
3.11
3.48
3.67
3.77
3.89
4.08
4.37
4.71
5.00
5.17
5.18
5.09
4.95
4.84
4.77
4.67
4.49
4.16
3.68
3.11
2.52
1.95
1.44
0.97
0.54
0.17
-0.11
-0.29
-0.41
-0.58
-0.90
-1.43
-2.13
-2.86
-3.49
-3.92
-4.16
-4.36
-4.66
-5.16
-5.89
-6.77
-7.66
-8.43
-8.93
-9.05
-8.71
-7.86
-6.54
-4.85
-2.96
-1.05
0.70
2.18
3.31
4.06
4.44
4.49
4.32
4.06
3.90
3.98
4.35
4.92
5.48
5.83
5.82
5.44
4.83
4.18
3.67
3.41
3.38
3.52
3.71
3.84
3.82
3.59
3.14
2.51
1.78
1.07
0.47
0.01
-0.36
-0.77
-1.31
-2.01
-2.78
-3.49
-4.05
-4.47
-4.83
-5.27
-5.87
-6.60
-7.37
-8.08
-8.69
-9.17
-9.51
-9.60
-9.35
-8.62
-7.41
-5.81
-3.99
-2.15
-0.45
1.08
2.44
3.65
4.70
5.52
6.02
6.14
5.95
5.59
5.28
5.16
5.31
5.64
5.97
6.11
5.95
5.53
4.99
4.51
4.21
4.11
4.09
4.01
3.77
3.32
2.74
2.15
1.66
1.32
1.10
0.94
0.76
0.54
0.24
-0.16
-0.69
-1.34
-2.09
-2.85
-3.54
-4.12
-4.61
-5.10
-5.66
-6.34
-7.15
-8.03
-8.89
-9.60
-10.01
-9.99
-9.45
-8.39
-6.91
-5.19
-3.41
-1.72
-0.19
1.14
2.28
3.23
3.99
4.55
4.91
5.10
5.16
5.14
5.10
5.09
5.12
5.18
5.22
5.20
5.10
4.96
4.82
4.72
4.61
4.46
4.18
3.76
3.22
2.66
2.16
1.78
1.50
1.24
0.89
0.39
-0.29
-1.09
-1.92
-2.68
-3.27
-3.67
-3.91
-4.07
-4.27
-4.63
-5.24
-6.09
-7.07
-7.98
-8.60
-8.76
-8.40
-7.54
-6.29
-4.79
-3.17
-1.58
-0.12
1.13
2.13
2.88
3.38
3.69
3.87
3.97
4.04
4.16
4.35
4.62
4.90
5.12
5.21
5.13
4.90
4.53
4.04
3.47
2.85
2.28
1.86
1.68
1.71
1.83
1.84
1.52
0.84
-0.11
-1.08
-1.89
-2.42
-2.75
-3.02
-3.38
-3.86
-4.43
-5.06
-5.74
-6.50
-7.35
-8.20
-8.87
-9.13
-8.83
-7.93
-6.57
-4.94
-3.22
-1.53
0.06
1.51
2.77
3.75
4.39
4.69
4.72
4.64
4.62
4.77
5.13
5.63
6.12
6.48
6.63
6.59
6.43
6.23
6.03
5.80
5.49
5.07
4.54
3.95
3.37
2.84
2.36
1.92
1.46
0.95
0.36
-0.30
-1.00
-1.71
-2.35
-2.92
-3.39
-3.82
-4.25
-4.72
-5.25
-5.86
-6.55
-7.34
-8.23
-9.11
-9.82
-10.15
-9.92
-9.06
-7.64
-5.87
-3.97
-2.12
-0.47
0.92
2.05
2.91
3.52
3.92
4.16
4.33
4.51
4.73
5.00
5.30
5.57
5.78
5.86
5.79
5.57
5.24
4.89
4.59
4.37
4.20
4.01
3.70
3.23
2.65
2.07
1.57
1.19
0.89
0.56
0.12
-0.42
-1.00
-1.55
-2.03
-2.51
-3.08
-3.82
-4.68
-5.56
-6.31
-6.86
-7.28
-7.72
-8.32
-9.10
-9.93
-10.52
-10.60
-10.03
-8.81
-7.12
-5.19
-3.22
-1.37
0.29
1.67
2.73
3.40
3.73
3.81
3.84
3.96
4.26
4.74
5.33
5.92
6.40
6.71
6.81
6.71
6.45
6.08
5.68
5.29
4.94
4.58
4.16
3.64
3.01
2.29
1.59
0.96
0.44
0.02
-0.36
-0.75
-1.20
-1.68
-2.17
-2.60
-2.99
-3.38
-3.85
-4.48
-5.30
-6.27
-7.34
-8.43
-9.42
-10.20
-10.61
-10.47
-9.69
-8.27
-6.37
-4.23
-2.08
-0.10
1.61
3.05
4.19
5.02
5.50
5.66
5.61
5.49
5.49
5.68
6.07
6.55
6.97
7.22
7.22
6.97
6.50
5.87
5.20
4.57
4.08
3.76
3.55
3.35
3.02
2.49
1.74
0.85
-0.07
-0.91
-1.60
-2.08
-2.37
-2.54
-2.71
-3.06
-3.72
-4.77
-6.13
-7.61
-8.96
-9.92
-10.34
-10.13
-9.31
-7.95
-6.14
-4.04
-1.82
0.32
2.22
3.78
4.96
5.78
6.27
6.46
6.42
6.22
6.00
5.89
5.99
6.31
6.77
7.21
7.50
7.52
7.25
6.75
6.12
5.46
4.87
4.40
4.03
3.72
3.44
3.17
2.90
2.61
2.27
1.81
1.13
0.23
-0.82
-1.89
-2.82
-3.56
-4.15
-4.73
-5.41
-6.23
-7.14
-8.08
-9.02
-9.96
-10.89
-11.69
-12.10
-11.82
-10.65
-8.60
-5.91
-2.99
-0.24
2.09
3.90
5.27
6.27
6.97
7.38
7.50
7.39
7.14
6.86
6.65
6.55
6.59
6.73
6.92
7.05
7.05
6.86
6.51
6.09
5.68
5.35
5.05
4.69
4.16
3.45
2.66
1.97
1.48
1.20
0.98
0.63
0.04
-0.81
-1.77
-2.69
-3.44
-3.97
-4.34
-4.62
-4.89
-5.22
-5.66
-6.24
-6.98
-7.91
-8.96
-10.03
-10.89
-11.32
-11.09
-10.09
-8.39
-6.18
-3.76
-1.40
0.71
2.48
3.90
5.00
5.80
6.28
6.45
6.35
6.06
5.73
5.48
5.39
5.48
5.73
6.01
6.25
6.34
6.26
6.02
5.65
5.22
4.79
4.40
4.04
3.66
3.22
2.64
1.93
1.16
0.41
-0.21
-0.67
-0.99
-1.24
-1.48
-1.79
-2.19
-2.69
-3.27
-3.95
-4.70
-5.54
-6.46
-7.45
-8.44
-9.26
-9.72
-9.64
-8.91
-7.58
-5.82
-3.86
-1.90
-0.07
1.55
2.91
3.95
4.62
4.91
4.87
4.70
4.57
4.62
4.88
5.19
5.39
5.33
5.03
4.59
4.20
3.97
3.88
3.84
3.68
3.34
2.83
2.28
1.81
1.50
1.35
1.27
1.14
0.87
0.43
-0.17
-0.91
-1.73
-2.60
-3.49
-4.35
-5.13
-5.78
-6.27
-6.66
-7.03
-7.52
-8.21
-9.03
-9.81
-10.25
-10.12
-9.28
-7.80
-5.86
-3.72
-1.60
0.33
1.98
3.30
4.27
4.89
5.22
5.32
5.31
5.27
5.28
5.35
5.48
5.63
5.75
5.79
5.72
5.56
5.32
5.05
4.78
4.47
4.11
3.68
3.19
2.67
2.17
1.71
1.28
0.86
0.41
-0.09
-0.64
-1.17
-1.63
-1.98
-2.27
-2.58
-3.03
-3.66
-4.44
-5.23
-5.93
-6.46
-6.91
-7.39
-7.99
-8.71
-9.39
-9.82
-9.82
-9.26
-8.15
-6.56
-4.66
-2.65
-0.72
0.98
2.36
3.43
4.23
4.80
5.17
5.34
5.32
5.12
4.84
4.59
4.44
4.42
4.49
4.59
4.67
4.73
4.79
4.89
5.03
5.15
5.18
5.04
4.70
4.17
3.53
2.86
2.20
1.59
1.02
0.47
-0.08
-0.63
-1.18
-1.70
-2.20
-2.64
-3.03
-3.34
-3.61
-3.91
-4.32
-4.94
-5.82
-6.93
-8.13
-9.21
-9.93
-10.04
-9.43
-8.10
-6.23
-4.08
-1.95
-0.11
1.33
2.33
3.00
3.43
3.73
3.94
4.09
4.21
4.32
4.44
4.55
4.63
4.65
4.57
4.43
4.25
4.06
3.89
3.72
3.53
3.31
3.05
2.78
2.48
2.15
1.78
1.38
0.94
0.45
-0.12
-0.81
-1.62
-2.51
-3.39
-4.14
-4.67
-4.97
-5.11
-5.22
-5.46
-5.93
-6.66
-7.53
-8.37
-8.93
-8.99
-8.42
-7.23
-5.56
-3.63
-1.69
0.06
1.48
2.54
3.25
3.68
3.88
3.92
3.88
3.84
3.88
4.04
4.30
4.58
4.80
4.89
4.86
4.76
4.62
4.48
4.30
4.06
3.69
3.20
2.65
2.11
1.67
1.36
1.14
0.95
0.70
0.37
-0.02
-0.41
-0.79
-1.17
-1.65
-2.29
-3.11
-4.02
-4.83
-5.40
-5.69
-5.78
-5.90
-6.28
-7.04
-8.15
-9.40
-10.45
-11.01
-10.88
-10.05
-8.68
-6.99
-5.23
-3.52
-1.92
-0.41
1.03
2.33
3.42
4.24
4.79
5.15
5.42
5.66
5.87
6.02
6.10
6.11
6.11
6.14
6.21
6.28
6.28
6.17
5.94
5.63
5.31
5.01
4.69
4.31
3.78
3.11
2.32
1.52
0.85
0.37
0.10
-0.07
-0.27
-0.58
-1.05
-1.62
-2.23
-2.80
-3.34
-3.84
-4.33
-4.84
-5.39
-6.00
-6.70
-7.52
-8.43
-9.35
-10.12
-10.57
-10.55
-9.97
-8.83
-7.21
-5.25
-3.16
-1.15
0.60
1.98
2.98
3.68
4.17
4.56
4.88
5.17
5.43
5.69
5.98
6.28
6.55
6.69
6.62
6.34
5.91
5.43
5.03
4.72
4.52
4.35
4.18
3.97
3.70
3.36
2.93
2.41
1.83
1.22
0.63
0.10
-0.36
-0.74
-1.03
-1.27
-1.48
-1.71
-2.03
-2.51
-3.17
-3.94
-4.75
-5.50
-6.16
-6.74
-7.31
-7.89
-8.41
-8.70
-8.57
-7.85
-6.51
-4.72
-2.73
-0.87
0.65
1.75
2.49
2.97
3.30
3.51
3.60
3.57
3.49
3.47
3.62
4.00
4.52
5.05
5.38
5.41
5.13
4.69
4.25
3.92
3.73
3.58
3.30
2.78
2.04
1.20
0.49
0.04
-0.09
-0.04
0.02
-0.09
-0.45
-1.03
-1.73
-2.44
-3.08
-3.64
-4.12
-4.58
-5.09
-5.72
-6.49
-7.37
-8.23
-8.87
-9.08
-8.72
-7.72
-6.17
-4.27
-2.25
-0.39
1.13
2.19
2.82
3.13
3.28
3.42
3.60
3.81
4.00
4.12
4.20
4.30
4.46
4.66
4.84
4.91
4.82
4.60
4.33
4.12
3.99
3.85
3.60
3.18
2.59
1.96
1.44
1.11
0.93
0.78
0.50
-0.00
-0.72
-1.54
-2.31
-2.88
-3.21
-3.37
-3.49
-3.73
-4.22
-4.98
-5.98
-7.12
-8.28
-9.27
-9.95
-10.15
-9.75
-8.75
-7.24
-5.43
-3.56
-1.81
-0.26
1.12
2.37
3.49
4.41
5.03
5.31
5.27
5.07
4.88
4.85
5.04
5.41
5.82
6.15
6.29
6.21
5.92
5.54
5.18
4.95
4.89
4.92
4.90
4.70
4.23
3.56
2.81
2.12
1.56
1.07
0.54
-0.10
-0.81
-1.44
-1.85
-1.99
-1.98
-2.04
-2.37
-3.05
-3.98
-4.94
-5.77
-6.40
-6.90
-7.35
-7.78
-8.10
-8.15
-7.79
-6.98
-5.79
-4.38
-2.92
-1.50
-0.18
1.03
2.09
2.99
3.65
4.05
4.19
4.14
4.03
4.01
4.19
4.57
5.09
5.58
5.89
5.93
5.69
5.28
4.83
4.46
4.21
4.05
3.87
3.58
3.14
2.59
1.98
1.37
0.76
0.11
-0.60
-1.37
-2.11
-2.72
-3.12
-3.32
-3.39
-3.48
-3.70
-4.12
-4.71
-5.40
-6.09
-6.69
-7.11
-7.30
-7.17
-6.68
-5.79
-4.55
-3.08
-1.58
-0.22
0.91
1.80
2.56
3.28
4.00
4.67
5.15
5.36
5.25
4.90
4.46
4.06
3.76
3.58
3.45
3.34
3.28
3.34
3.55
3.85
4.10
4.09
3.72
3.02
2.17
1.38
0.80
0.44
0.20
-0.07
-0.49
-1.09
-1.83
-2.61
-3.35
-4.00
-4.56
-5.06
-5.51
-5.97
-6.44
-6.94
-7.45
-7.91
-8.23
-8.35
-8.17
-7.66
-6.79
-5.61
-4.23
-2.76
-1.34
-0.02
1.13
2.12
2.94
3.57
4.02
4.28
4.38
4.38
4.37
4.43
4.61
4.92
5.29
5.63
5.85
5.90
5.80
5.55
5.18
4.70
4.13
3.51
2.95
2.53
2.29
2.17
2.03
1.72
1.19
0.47
-0.30
-1.00
-1.60
-2.14
-2.71
-3.32
-3.95
-4.51
-4.93
-5.20
-5.39
-5.61
-5.98
-6.56
-7.33
-8.16
-8.85
-9.18
-9.02
-8.32
-7.18
-5.73
-4.09
-2.37
-0.66
0.92
2.22
3.12
3.58
3.67
3.61
3.60
3.83
4.31
4.95
5.59
6.12
6.45
6.53
6.34
5.94
5.41
4.92
4.61
4.55
4.65
4.76
4.66
4.26
3.60
2.84
2.18
1.71
1.44
1.26
1.05
0.77
0.40
-0.03
-0.50
-1.00
-1.55
-2.12
-2.67
-3.18
-3.60
-3.97
-4.35
-4.81
-5.40
-6.14
-6.98
-7.82
-8.52
-8.89
-8.76
-8.02
-6.71
-5.02
-3.22
-1.57
-0.24
0.76
1.53
2.16
2.72
3.21
3.58
3.82
3.95
4.04
4.16
4.35
4.61
4.88
5.13
5.30
5.38
5.36
5.24
5.01
4.64
4.10
3.41
2.65
1.93
1.35
0.96
0.72
0.56
0.37
0.14
-0.13
-0.40
-0.68
-1.00
-1.45
-2.06
-2.79
-3.60
-4.41
-5.19
-5.91
-6.62
-7.32
-7.99
-8.58
-8.98
-9.11
-8.86
-8.20
-7.15
-5.81
-4.32
-2.80
-1.35
0.04
1.38
2.69
3.91
4.90
5.54
5.74
5.53
5.09
4.69
4.54
4.76
5.27
5.87
6.31
6.43
6.19
5.72
5.17
4.70
4.38
4.21
4.13
4.09
3.99
3.78
3.41
2.88
2.23
1.55
0.93
0.45
0.10
-0.17
-0.45
-0.81
-1.26
-1.75
-2.23
-2.63
-2.95
-3.24
-3.60
-4.08
-4.70
-5.43
-6.19
-6.95
-7.68
-8.34
-8.85
-9.09
-8.89
-8.18
-6.99
-5.46
-3.87
-2.40
-1.15
-0.08
0.92
1.99
3.12
4.23
5.17
5.79
6.03
5.93
5.64
5.34
5.16
5.12
5.18
5.23
5.26
5.26
5.27
5.28
5.27
5.18
4.98
4.68
4.34
3.98
3.61
3.22
2.79
2.36
1.95
1.58
1.24
0.86
0.43
-0.04
-0.47
-0.83
-1.10
-1.36
-1.73
-2.27
-2.96
-3.68
-4.30
-4.73
-4.96
-5.08
-5.24
-5.53
-6.01
-6.59
-7.11
-7.40
-7.31
-6.77
-5.82
-4.54
-3.07
-1.55
-0.13
1.09
2.04
2.72
3.16
3.42
3.53
3.51
3.40
3.28
3.24
3.34
3.58
3.86
4.07
4.12
3.99
3.74
3.44
3.13
2.79
2.40
1.99
1.63
1.39
1.31
1.33
1.35
1.27
1.00
0.55
-0.07
-0.81
-1.63
-2.43
-3.12
-3.60
-3.85
-3.93
-3.95
-4.04
-4.28
-4.73
-5.38
-6.17
-7.02
-7.74
-8.15
-8.08
-7.47
-6.40
-5.07
-3.64
-2.25
-0.94
0.30
1.44
2.41
3.15
3.60
3.82
3.89
3.90
3.89
3.89
3.90
3.95
4.08
4.25
4.41
4.48
4.46
4.39
4.34
4.36
4.38
4.22
3.77
2.98
2.01
1.13
0.55
0.36
0.46
0.62
0.61
0.32
-0.24
-0.98
-1.77
-2.53
-3.25
-3.93
-4.57
-5.15
-5.61
-5.93
-6.16
-6.42
-6.84
-7.52
-8.41
-9.34
-10.00
-10.12
-9.58
-8.41
-6.83
-5.15
-3.58
-2.25
-1.14
-0.17
0.73
1.59
2.39
3.12
3.79
4.43
5.06
5.66
6.18
6.53
6.68
6.60
6.36
6.03
5.74
5.54
5.48
5.52
5.56
5.45
5.11
4.50
3.72
2.92
2.30
1.93
1.81
1.81
1.77
1.56
1.15
0.57
-0.10
-0.75
-1.33
-1.82
-2.25
-2.66
-3.11
-3.62
-4.20
-4.84
-5.52
-6.23
-6.94
-7.59
-8.09
-8.34
-8.25
-7.80
-7.02
-6.00
-4.84
-3.63
-2.38
-1.07
0.33
1.76
3.09
4.11
4.68
4.73
4.40
3.93
3.61
3.59
3.83
4.19
4.49
4.66
4.73
4.81
4.95
5.05
4.96
4.58
3.91
3.12
2.45
2.05
1.93
1.92
1.83
1.52
0.99
0.33
-0.31
-0.83
-1.20
-1.50
-1.82
-2.27
-2.90
-3.67
-4.52
-5.33
-6.02
-6.57
-7.00
-7.35
-7.62
-7.75
-7.60
-7.06
-6.08
-4.72
-3.15
-1.60
-0.28
0.71
1.41
1.95
2.48
3.13
3.90
4.67
5.27
5.60
5.65
5.55
5.47
5.54
5.75
5.99
6.09
5.93
5.49
4.89
4.24
3.67
3.24
2.92
2.67
2.46
2.27
2.11
1.97
1.81
1.54
1.10
0.43
-0.43
-1.39
-2.32
-3.08
-3.60
-3.88
-3.93
-3.88
-3.88
-4.09
-4.65
-5.59
-6.81
-8.04
-8.99
-9.41
-9.20
-8.43
-7.27
-5.91
-4.49
-3.07
-1.67
-0.32
0.93
2.00
2.86
3.49
3.96
4.33
4.68
5.03
5.39
5.72
5.96
6.08
6.09
5.99
5.84
5.69
5.59
5.56
5.63
5.79
5.95
6.06
5.99
5.69
5.14
4.36
3.43
2.45
1.53
0.76
0.19
-0.17
-0.39
-0.57
-0.85
-1.29
-1.92
-2.65
-3.39
-4.03
-4.54
-5.00
-5.51
-6.17
-7.03
-7.97
-8.77
-9.18
-9.01
-8.23
-6.97
-5.47
-3.94
-2.53
-1.26
-0.08
1.04
2.09
2.99
3.65
4.01
4.08
3.93
3.66
3.42
3.33
3.47
3.83
4.31
4.77
5.05
5.11
5.00
4.82
4.65
4.48
4.25
3.89
3.40
2.86
2.38
2.00
1.71
1.45
1.14
0.78
0.39
-0.03
-0.51
-1.11
-1.83
-2.63
-3.40
-4.02
-4.43
-4.66
-4.82
-5.03
-5.37
-5.84
-6.36
-6.81
-7.05
-6.99
-6.54
-5.70
-4.51
-3.08
-1.59
-0.22
0.89
1.70
2.22
2.55
2.79
3.04
3.34
3.67
3.99
4.24
4.32
4.19
3.86
3.41
2.99
2.73
2.69
2.83
3.00
3.07
2.93
2.58
2.10
1.56
1.07
0.65
0.35
0.17
0.10
0.10
0.04
-0.18
-0.67
-1.41
-2.32
-3.20
-3.91
-4.37
-4.63
-4.84
-5.16
-5.68
-6.39
-7.17
-7.85
-8.27
-8.33
-7.97
-7.20
-6.07
-4.64
-3.03
-1.39
0.16
1.48
2.49
3.17
3.57
3.77
3.89
4.02
4.22
4.48
4.74
4.91
4.94
4.82
4.60
4.39
4.30
4.35
4.50
4.68
4.80
4.80
4.63
4.28
3.77
3.16
2.55
2.03
1.66
1.40
1.14
0.74
0.11
-0.71
-1.62
-2.45
-3.07
-3.40
-3.46
-3.31
-3.09
-2.91
-2.92
-3.24
-3.93
-4.95
-6.18
-7.40
-8.35
-8.83
-8.70
-7.96
-6.72
-5.16
-3.47
-1.81
-0.31
0.96
2.00
2.79
3.37
3.76
3.99
4.07
4.01
3.86
3.69
3.58
3.61
3.79
4.07
4.34
4.53
4.60
4.61
4.57
4.51
4.37
4.07
3.57
2.90
2.19
1.58
1.16
0.92
0.78
0.63
0.41
0.12
-0.19
-0.48
-0.78
-1.20
-1.82
-2.70
-3.75
-4.81
-5.69
-6.29
-6.63
-6.81
-6.97
-7.17
-7.38
-7.48
-7.37
-6.96
-6.25
-5.28
-4.12
-2.82
-1.46
-0.09
1.18
2.27
3.10
3.64
3.94
4.07
4.10
4.12
4.11
4.08
3.97
3.76
3.47
3.16
2.90
2.75
2.76
2.89
3.07
3.18
3.10
2.75
2.12
1.31
0.45
-0.29
-0.82
-1.13
-1.30
-1.44
-1.66
-1.98
-2.37
-2.75
-3.07
-3.34
-3.62
-4.02
-4.60
-5.40
-6.38
-7.42
-8.40
-9.14
-9.51
-9.40
-8.77
-7.68
-6.23
-4.60
-2.98
-1.48
-0.15
1.04
2.15
3.23
4.25
5.10
5.67
5.91
5.83
5.55
5.22
4.99
4.95
5.07
5.28
5.47
5.55
5.47
5.22
4.84
4.39
3.91
3.47
3.07
2.70
2.33
1.94
1.54
1.17
0.86
0.59
0.30
-0.13
-0.72
-1.47
-2.28
-3.02
-3.62
-4.08
-4.51
-5.02
-5.71
-6.58
-7.54
-8.46
-9.21
-9.67
-9.78
-9.57
-9.07
-8.31
-7.29
-5.99
-4.38
-2.53
-0.59
1.24
2.78
3.97
4.82
5.43
5.88
6.21
6.39
6.44
6.37
6.24
6.11
6.00
5.91
5.80
5.67
5.53
5.37
5.21
5.01
4.80
4.56
4.33
4.12
3.90
3.60
3.14
2.48
1.67
0.82
0.04
-0.59
-1.05
-1.39
-1.68
-2.01
-2.41
-2.89
-3.41
-3.99
-4.64
-5.41
-6.31
-7.28
-8.20
-8.87
-9.14
-8.89
-8.10
-6.82
-5.19
-3.36
-1.50
0.23
1.72
2.90
3.76
4.36
4.75
5.02
5.27
5.53
5.83
6.13
6.37
6.48
6.40
6.12
5.72
5.34
5.07
4.99
5.04
5.08
4.96
4.59
3.98
3.23
2.50
1.89
1.45
1.16
0.93
0.71
0.42
0.05
-0.41
-0.96
-1.56
-2.20
-2.80
-3.35
-3.85
-4.35
-4.93
-5.69
-6.62
-7.64
-8.53
-9.06
-9.02
-8.34
-7.10
-5.49
-3.73
-1.99
-0.40
1.02
2.25
3.26
4.06
4.64
5.05
5.38
5.71
6.07
6.45
6.78
6.98
6.98
6.77
6.37
5.87
5.39
5.00
4.73
4.55
4.41
4.25
4.03
3.75
3.40
3.02
2.59
2.14
1.65
1.15
0.65
0.15
-0.35
-0.87
-1.41
-1.96
-2.51
-3.01
-3.42
-3.73
-3.98
-4.25
-4.66
-5.31
-6.24
-7.36
-8.49
-9.36
-9.69
-9.33
-8.27
-6.66
-4.76
-2.82
-1.04
0.54
1.91
3.11
4.11
4.84
5.24
5.29
5.12
4.92
4.85
4.97
5.23
5.48
5.61
5.59
5.49
5.44
5.51
5.69
5.87
5.88
5.63
5.09
4.33
3.50
2.72
2.09
1.60
1.24
0.95
0.67
0.39
0.11
-0.20
-0.53
-0.88
-1.26
-1.68
-2.14
-2.67
-3.27
-3.92
-4.60
-5.28
-5.99
-6.76
-7.60
-8.42
-9.06
-9.33
-9.06
-8.19
-6.80
-5.08
-3.23
-1.43
0.20
1.56
2.58
3.22
3.48
3.41
3.17
2.92
2.84
2.99
3.39
3.93
4.45
4.78
4.82
4.53
4.00
3.40
2.90
2.63
2.61
2.76
2.89
2.87
2.59
2.05
1.32
0.52
-0.23
-0.88
-1.41
-1.84
-2.23
-2.59
-2.92
-3.19
-3.41
-3.61
-3.84
-4.17
-4.64
-5.24
-5.93
-6.59
-7.11
-7.41
-7.44
-7.19
-6.65
-5.80
-4.61
-3.15
-1.49
0.18
1.70
2.91
3.76
4.26
4.48
4.50
4.39
4.20
4.04
3.98
4.09
4.34
4.64
4.85
4.88
4.71
4.41
4.07
3.78
3.53
3.31
3.07
2.78
2.44
2.05
1.59
1.06
0.47
-0.12
-0.62
-0.95
-1.11
-1.18
-1.29
-1.59
-2.09
-2.70
-3.24
-3.60
-3.77
-3.88
-4.14
-4.64
-5.37
-6.15
-6.81
-7.31
-7.70
-8.14
-8.66
-9.12
-9.24
-8.73
-7.49
-5.63
-3.46
-1.32
0.54
2.01
3.11
3.86
4.26
4.33
4.15
3.85
3.63
3.65
3.96
4.46
4.96
5.29
5.33
5.08
4.65
4.18
3.79
3.51
3.32
3.12
2.87
2.57
2.24
1.96
1.72
1.48
1.15
0.70
0.12
-0.49
-1.02
-1.38
-1.57
-1.65
-1.70
-1.77
-1.87
-1.97
-2.05
-2.15
-2.33
-2.65
-3.14
-3.76
-4.43
-5.07
-5.64
-6.11
-6.48
-6.67
-6.62
-6.19
-5.32
-4.03
-2.43
-0.71
0.94
2.40
3.59
4.47
5.06
5.34
5.32
5.07
4.68
4.30
4.04
3.92
3.88
3.84
3.70
3.44
3.12
2.82
2.58
2.42
2.28
2.07
1.78
1.41
1.00
0.61
0.25
-0.06
-0.30
-0.46
-0.55
-0.57
-0.57
-0.64
-0.83
-1.18
-1.64
-2.11
-2.48
-2.66
-2.68
-2.63
-2.65
-2.80
-3.05
-3.21
-3.03
-2.31
-0.97
0.89
3.07
5.35
7.57
9.69
11.73
13.70
15.54
17.21
18.63
19.84
20.98
22.23
23.74
25.59
27.74
30.07
32.42
34.61
36.51
37.99
38.93
39.25
38.94
38.00
36.51
34.53
32.09
29.13
25.60
21.38
16.42
10.75
4.46
-2.23
-9.06
-15.76
-22.10
-27.97
-33.51
-39.01
-44.89
-51.48
-58.89
-66.91
-75.15
-83.08
-90.15
-95.90
-99.94
-101.96
-101.83
-99.57
-95.47
-89.98
-83.50
-76.17
-67.87
-58.35
-47.50
-35.51
-22.89
-10.33
1.47
12.09
21.44
29.58
36.60
42.58
47.55
51.66
55.39
58.66
61.04
62.08
61.55
59.55
56.69
53.35
49.84
46.43
43.18
40.08
37.16
34.46
31.99
29.84
28.16
27.16
26.95
27.41
28.24
29.03
29.46
29.45
29.17
28.96
29.13
29.76
30.63
31.42
31.90
32.10
32.35
33.12
34.88
37.99
42.52
48.22
54.30
59.44
61.91
59.94
52.30
38.86
20.75
0.15
-20.40
-38.74
-53.67
-65.15
-74.01
-81.41
-88.26
-94.90
-101.00
-105.94
-109.12
-110.30
-109.69
-107.81
-105.18
-102.10
-98.59
-94.53
-89.92
-84.97
-80.10
-75.72
-72.00
-68.76
-65.54
-61.76
-57.01
-51.20
-44.63
-37.75
-31.00
-24.54
-18.25
-11.79
-4.92
2.32
9.59
16.28
21.83
25.94
28.72
30.52
31.77
32.76
33.54
33.99
33.97
33.50
32.76
32.01
31.45
31.14
31.00
30.89
30.74
30.52
30.24
29.88
29.36
28.57
27.45
26.09
24.65
23.31
22.15
21.13
20.14
19.04
17.78
16.42
15.09
13.91
12.96
12.23
11.62
11.01
10.26
9.31
8.15
6.88
5.65
4.71
4.25
4.46
5.35
6.80
8.53
10.20
11.54
12.41
12.82
12.88
12.71
12.35
11.82
11.10
10.26
9.40
8.65
8.12
7.87
7.88
8.06
8.31
8.50
8.53
8.34
7.95
7.40
6.75
6.03
5.25
4.38
3.48
2.63
1.94
1.47
1.20
1.00
0.71
0.25
-0.37
-1.06
-1.72
-2.27
-2.72
-3.11
-3.48
-3.88
-4.25
-4.52
-4.53
-4.12
-3.18
-1.68
0.29
2.48
4.58
6.29
7.46
8.10
8.37
8.48
8.56
8.61
8.57
8.37
8.04
7.70
7.49
7.49
7.64
7.81
7.83
7.60
7.10
6.39
5.55
4.65
3.72
2.81
1.95
1.23
0.69
0.36
0.16
-0.06
-0.40
-0.93
-1.61
-2.32
-2.93
-3.36
-3.66
-3.92
-4.24
-4.63
-4.99
-5.18
-5.03
-4.49
-3.58
-2.41
-1.12
0.17
1.31
2.22
2.81
3.09
3.05
2.76
2.32
1.85
1.45
1.21
1.19
1.39
1.74
2.12
2.35
2.30
1.90
1.25
0.53
-0.07
-0.43
-0.56
-0.58
-0.60
-0.71
-0.92
-1.21
-1.55
-1.94
-2.41
-2.89
-3.33
-3.61
-3.72
-3.73
-3.74
-3.86
-4.04
-4.14
-3.96
-3.41
-2.52
-1.46
-0.44
0.41
1.07
1.60
2.06
2.46
2.73
2.85
2.82
2.73
2.67
2.68
2.70
2.63
2.39
1.99
1.55
1.18
0.94
0.78
0.56
0.14
-0.50
-1.25
-1.93
-2.40
-2.62
-2.69
-2.75
-2.91
-3.16
-3.43
-3.61
-3.71
-3.75
-3.82
-3.96
-4.13
-4.23
-4.19
-3.94
-3.52
-2.95
-2.31
-1.63
-0.95
-0.29
0.31
0.82
1.23
1.56
1.77
1.83
1.68
1.27
0.65
-0.07
-0.71
-1.10
-1.18
-1.04
-0.86
-0.84
-1.12
-1.65
-2.29
-2.85
-3.22
-3.41
-3.51
-3.65
-3.83
-4.02
-4.16
-4.22
-4.26
-4.40
-4.72
-5.21
-5.82
-6.47
-7.12
-7.81
-8.56
-9.33
-9.92
-10.12
-9.69
-8.57
-6.82
-4.64
-2.25
0.13
2.33
4.21
5.68
6.62
7.02
6.94
6.54
6.00
5.47
5.01
4.57
4.01
3.18
2.04
0.65
-0.79
-1.97
-2.58
-2.46
-1.59
-0.15
1.54
3.17
4.49
5.34
5.68
5.53
4.90
3.86
2.48
0.92
-0.67
-2.15
-3.44
-4.54
-5.50
-6.36
-7.13
-7.74
-8.09
-8.05
-7.55
-6.55
-5.15
-3.50
-1.79
-0.21
1.06
1.93
2.36
2.40
2.13
1.68
1.19
0.80
0.55
0.47
0.49
0.54
0.55
0.54
0.57
0.72
1.05
1.53
2.05
2.43
2.50
2.16
1.48
0.59
-0.33
-1.15
-1.85
-2.45
-2.98
-3.47
-3.89
-4.25
-4.59
-4.96
-5.39
-5.84
-6.15
-6.12
-5.60
-4.56
-3.12
-1.51
0.08
1.53
2.80
3.90
4.77
5.31
5.42
5.09
4.48
3.82
3.38
3.25
3.41
3.66
3.81
3.73
3.43
3.02
2.61
2.25
1.94
1.62
1.22
0.74
0.23
-0.24
-0.64
-0.94
-1.21
-1.51
-1.92
-2.47
-3.15
-3.93
-4.75
-5.55
-6.23
-6.67
-6.74
-6.31
-5.32
-3.83
-1.97
0.08
2.11
4.00
5.64
6.96
7.92
8.50
8.74
8.70
8.48
8.19
7.87
7.52
7.11
6.64
6.16
5.74
5.46
5.36
5.37
5.38
5.29
4.99
4.45
3.71
2.84
1.95
1.15
0.50
-0.01
-0.44
-0.88
-1.39
-1.98
-2.64
-3.32
-3.95
-4.49
-4.88
-5.05
-4.93
-4.50
-3.78
-2.88
-1.90
-0.89
0.10
1.11
2.12
3.07
3.88
4.44
4.71
4.72
4.58
4.39
4.23
4.11
3.98
3.76
3.39
2.90
2.34
1.84
1.47
1.26
1.14
0.99
0.74
0.34
-0.14
-0.58
-0.90
-1.07
-1.17
-1.32
-1.63
-2.12
-2.74
-3.39
-3.97
-4.39
-4.59
-4.55
-4.23
-3.66
-2.90
-2.08
-1.36
-0.83
-0.48
-0.17
0.23
0.83
1.56
2.25
2.72
2.88
2.76
2.50
2.27
2.15
2.13
2.16
2.18
2.14
2.06
1.97
1.86
1.70
1.41
0.95
0.30
-0.48
-1.29
-1.99
-2.47
-2.69
-2.70
-2.66
-2.72
-2.98
-3.42
-3.92
-4.29
-4.38
-4.14
-3.62
-2.93
-2.19
-1.47
-0.79
-0.19
0.31
0.62
0.66
0.40
-0.13
-0.78
-1.39
-1.82
-2.02
-2.02
-1.94
-1.87
-1.86
-1.85
-1.74
-1.47
-1.03
-0.52
-0.04
0.32
0.58
0.80
1.04
1.31
1.54
1.64
1.53
1.22
0.75
0.19
-0.42
-1.05
-1.66
-2.15
-2.36
-2.18
-1.52
-0.45
0.87
2.21
3.34
4.10
4.45
4.44
4.18
3.78
3.29
2.75
2.16
1.52
0.88
0.32
-0.08
-0.28
-0.29
-0.15
0.07
0.27
0.39
0.36
0.16
-0.20
-0.62
-1.02
-1.31
-1.49
-1.60
-1.74
-1.99
-2.32
-2.67
-2.95
-3.08
-3.02
-2.76
-2.28
-1.58
-0.66
0.43
1.59
2.70
3.67
4.45
5.02
5.37
5.49
5.34
4.93
4.32
3.61
2.96
2.52
2.32
2.33
2.44
2.51
2.46
2.26
1.94
1.56
1.17
0.82
0.52
0.28
0.11
0.00
-0.04
-0.07
-0.13
-0.29
-0.60
-1.05
-1.61
-2.15
-2.53
-2.63
-2.41
-1.94
-1.36
-0.84
-0.45
-0.20
-0.02
0.14
0.30
0.41
0.42
0.36
0.29
0.30
0.41
0.55
0.58
0.43
0.12
-0.21
-0.41
-0.42
-0.28
-0.10
0.00
0.03
0.03
0.06
0.09
0.02
-0.25
-0.77
-1.41
-2.00
-2.38
-2.50
-2.42
-2.25
-2.07
-1.89
-1.62
-1.20
-0.57
0.19
0.99
1.68
2.14
2.34
2.28
2.04
1.72
1.38
1.08
0.83
0.62
0.44
0.29
0.13
-0.06
-0.29
-0.58
-0.88
-1.14
-1.31
-1.37
-1.38
-1.40
-1.50
-1.67
-1.88
-2.02
-2.05
-1.97
-1.86
-1.81
-1.93
-2.22
-2.64
-3.09
-3.42
-3.52
-3.35
-2.94
-2.37
-1.75
-1.14
-0.59
-0.10
0.34
0.76
1.18
1.60
2.06
2.56
3.12
3.72
4.27
4.64
4.69
4.37
3.74
2.99
2.35
2.03
2.08
2.36
2.65
2.73
2.51
2.06
1.55
1.12
0.79
0.50
0.15
-0.28
-0.74
-1.08
-1.21
-1.12
-0.89
-0.61
-0.33
-0.00
0.41
0.92
1.40
1.72
1.75
1.48
1.02
0.58
0.30
0.24
0.35
0.51
0.59
0.57
0.49
0.42
0.45
0.61
0.83
1.03
1.05
0.84
0.39
-0.20
-0.79
-1.26
-1.54
-1.63
-1.55
-1.39
-1.20
-1.09
-1.11
-1.29
-1.61
-1.95
-2.16
-2.12
-1.77
-1.16
-0.43
0.29
0.86
1.25
1.45
1.50
1.42
1.27
1.04
0.77
0.48
0.20
-0.01
-0.12
-0.13
-0.05
0.08
0.20
0.30
0.38
0.45
0.47
0.39
0.14
-0.28
-0.80
-1.29
-1.62
-1.70
-1.55
-1.29
-1.05
-0.96
-1.07
-1.34
-1.68
-1.96
-2.05
-1.86
-1.38
-0.67
0.13
0.85
1.39
1.68
1.78
1.76
1.66
1.51
1.28
0.97
0.63
0.35
0.22
0.26
0.39
0.49
0.50
0.41
0.25
0.06
-0.14
-0.38
-0.65
-0.89
-1.03
-1.01
-0.89
-0.84
-1.07
-1.67
-2.57
-3.55
-4.35
-4.80
-4.90
-4.78
-4.59
-4.40
-4.18
-3.83
-3.31
-2.61
-1.81
-0.99
-0.20
0.57
1.34
2.09
2.78
3.31
3.64
3.76
3.74
3.66
3.58
3.52
3.45
3.33
3.15
2.94
2.74
2.61
2.57
2.65
2.81
2.97
3.05
2.93
2.56
1.96
1.23
0.53
0.01
-0.27
-0.31
-0.21
-0.08
-0.00
-0.01
-0.11
-0.34
-0.72
-1.26
-1.88
-2.45
-2.78
-2.78
-2.44
-1.89
-1.29
-0.75
-0.31
0.08
0.51
0.97
1.42
1.75
1.88
1.79
1.51
1.18
0.93
0.85
0.99
1.29
1.63
1.86
1.87
1.62
1.16
0.63
0.17
-0.12
-0.20
-0.12
-0.00
0.07
0.03
-0.12
-0.33
-0.52
-0.65
-0.68
-0.64
-0.56
-0.47
-0.42
-0.45
-0.60
-0.87
-1.24
-1.61
-1.91
-2.10
-2.17
-2.16
-2.09
-1.97
-1.73
-1.33
-0.79
-0.15
0.45
0.91
1.18
1.26
1.20
1.06
0.91
0.77
0.68
0.65
0.66
0.69
0.70
0.70
0.73
0.83
1.03
1.29
1.50
1.56
1.39
1.03
0.62
0.31
0.19
0.25
0.38
0.44
0.35
0.11
-0.19
-0.46
-0.64
-0.75
-0.86
-1.03
-1.27
-1.55
-1.77
-1.86
-1.79
-1.61
-1.39
-1.24
-1.24
-1.45
-1.85
-2.33
-2.77
-3.01
-2.95
-2.59
-2.02
-1.39
-0.82
-0.39
-0.08
0.15
0.32
0.43
0.43
0.31
0.09
-0.15
-0.36
-0.50
-0.59
-0.69
-0.82
-1.00
-1.19
-1.32
-1.34
-1.23
-0.98
-0.65
-0.31
-0.03
0.13
0.17
0.16
0.18
0.32
0.59
0.99
1.45
1.94
2.38
2.71
2.87
2.82
2.59
2.28
2.00
1.86
1.86
1.94
1.96
1.81
1.41
0.79
0.04
-0.71
-1.33
-1.75
-1.91
-1.81
-1.50
-1.03
-0.49
0.05
0.50
0.80
0.94
0.95
0.92
0.96
1.10
1.32
1.48
1.48
1.27
0.93
0.64
0.55
0.71
1.07
1.47
1.74
1.79
1.64
1.35
1.02
0.68
0.36
0.06
-0.17
-0.28
-0.24
-0.05
0.24
0.49
0.62
0.57
0.33
0.00
-0.31
-0.50
-0.51
-0.36
-0.11
0.08
0.08
-0.22
-0.83
-1.63
-2.41
-2.96
-3.17
-3.07
-2.83
-2.61
-2.52
-2.56
-2.59
-2.50
-2.22
-1.77
-1.28
-0.84
-0.52
-0.26
0.06
0.51
1.11
1.76
2.28
2.54
2.48
2.18
1.81
1.51
1.32
1.21
1.06
0.80
0.45
0.12
-0.10
-0.16
-0.11
-0.05
-0.08
-0.22
-0.44
-0.64
-0.79
-0.88
-0.96
-1.06
-1.21
-1.41
-1.63
-1.89
-2.20
-2.57
-2.96
-3.25
-3.37
-3.24
-2.88
-2.38
-1.89
-1.55
-1.45
-1.56
-1.76
-1.90
-1.87
-1.61
-1.18
-0.69
-0.27
0.04
0.25
0.39
0.50
0.56
0.56
0.54
0.60
0.86
1.39
2.15
2.97
3.65
4.03
4.05
3.78
3.38
2.98
2.69
2.52
2.45
2.47
2.54
2.65
2.72
2.68
2.47
2.09
1.62
1.20
0.96
0.95
1.11
1.28
1.29
1.07
0.65
0.17
-0.24
-0.51
-0.62
-0.65
-0.68
-0.78
-0.94
-1.14
-1.30
-1.35
-1.27
-1.08
-0.85
-0.65
-0.55
-0.56
-0.64
-0.73
-0.76
-0.68
-0.52
-0.31
-0.13
-0.03
-0.05
-0.16
-0.33
-0.51
-0.65
-0.73
-0.69
-0.51
-0.17
0.34
0.91
1.43
1.75
1.80
1.62
1.31
1.04
0.91
0.88
0.89
0.78
0.50
0.08
-0.37
-0.74
-0.98
-1.13
-1.28
-1.50
-1.78
-2.04
-2.17
-2.12
-1.90
-1.57
-1.20
-0.81
-0.41
0.01
0.43
0.76
0.90
0.79
0.43
-0.12
-0.73
-1.30
-1.74
-2.02
-2.15
-2.17
-2.14
-2.11
-2.14
-2.24
-2.40
-2.58
-2.76
-2.94
-3.17
-3.49
-3.89
-4.30
-4.58
-4.59
-4.26
-3.61
-2.80
-2.01
-1.39
-1.03
-0.90
-0.88
-0.85
-0.72
-0.47
-0.14
0.25
0.70
1.24
1.88
2.59
3.23
3.69
3.89
3.85
3.69
3.54
3.45
3.38
3.24
2.98
2.61
2.23
1.95
1.84
1.84
1.80
1.58
1.14
0.56
0.01
-0.37
-0.53
-0.55
-0.57
-0.68
-0.89
-1.13
-1.31
-1.40
-1.47
-1.60
-1.83
-2.13
-2.37
-2.45
-2.36
-2.14
-1.94
-1.87
-1.98
-2.20
-2.38
-2.34
-1.94
-1.15
-0.07
1.13
2.27
3.19
3.81
4.13
4.21
4.10
3.87
3.58
3.27
2.96
2.64
2.29
1.91
1.51
1.11
0.74
0.43
0.16
-0.08
-0.30
-0.50
-0.66
-0.80
-0.93
-1.04
-1.08
-0.98
-0.70
-0.26
0.22
0.59
0.69
0.47
-0.03
-0.68
-1.33
-1.89
-2.31
-2.60
-2.75
-2.75
-2.59
-2.28
-1.90
-1.54
-1.30
-1.26
-1.40
-1.68
-2.00
-2.23
-2.24
-1.92
-1.26
-0.38
0.49
1.14
1.41
1.32
1.00
0.64
0.35
0.17
0.06
-0.04
-0.10
-0.06
0.15
0.49
0.82
0.99
0.91
0.58
0.14
-0.23
-0.44
-0.49
-0.50
-0.58
-0.80
-1.15
-1.52
-1.81
-1.99
-2.12
-2.29
-2.61
-3.12
-3.76
-4.40
-4.88
-5.11
-5.06
-4.76
-4.29
-3.70
-3.05
-2.40
-1.77
-1.19
-0.69
-0.24
0.15
0.51
0.86
1.23
1.63
2.09
2.59
3.07
3.47
3.72
3.81
3.75
3.63
3.53
3.48
3.50
3.54
3.57
3.57
3.51
3.43
3.34
3.33
3.44
3.70
4.04
4.33
4.42
4.19
3.66
2.95
2.23
1.66
1.31
1.13
1.02
0.87
0.61
0.23
-0.23
-0.73
-1.21
-1.63
-1.97
-2.21
-2.32
-2.29
-2.09
-1.76
-1.36
-1.01
-0.82
-0.86
-1.11
-1.50
-1.93
-2.31
-2.59
-2.75
-2.77
-2.63
-2.28
-1.70
-0.91
-0.00
0.90
1.67
2.19
2.43
2.43
2.29
2.15
2.12
2.24
2.45
2.65
2.71
2.58
2.29
1.94
1.64
1.42
1.25
1.02
0.69
0.25
-0.20
-0.54
-0.64
-0.52
-0.24
0.05
0.24
0.28
0.20
0.09
0.03
0.03
0.06
0.04
-0.10
-0.34
-0.62
-0.87
-1.04
-1.16
-1.29
-1.47
-1.71
-1.96
-2.19
-2.38
-2.57
-2.76
-2.95
-3.02
-2.86
-2.39
-1.67
-0.87
-0.18
0.22
0.29
0.10
-0.23
-0.58
-0.92
-1.23
-1.52
-1.77
-1.92
-1.95
-1.85
-1.69
-1.53
-1.41
-1.28
-1.04
-0.62
-0.02
0.65
1.24
1.65
1.85
1.93
1.99
2.08
2.18
2.24
2.24
2.21
2.19
2.20
2.21
2.16
1.97
1.63
1.15
0.60
0.08
-0.35
-0.64
-0.74
-0.67
-0.48
-0.30
-0.27
-0.46
-0.84
-1.28
-1.60
-1.69
-1.57
-1.39
-1.29
-1.31
-1.37
-1.28
-0.90
-0.20
0.67
1.47
2.00
2.16
2.06
1.83
1.62
1.46
1.29
1.04
0.69
0.36
0.18
0.26
0.59
1.02
1.37
1.52
1.42
1.13
0.76
0.41
0.14
-0.04
-0.15
-0.20
-0.24
-0.33
-0.52
-0.86
-1.29
-1.70
-1.99
-2.09
-2.01
-1.83
-1.68
-1.65
-1.80
-2.12
-2.56
-3.04
-3.46
-3.73
-3.77
-3.57
-3.19
-2.76
-2.42
-2.27
-2.29
-2.39
-2.45
-2.41
-2.32
-2.24
-2.24
-2.25
-2.15
-1.76
-1.00
0.05
1.21
2.20
2.84
3.09
3.05
2.91
2.85
2.91
3.08
3.24
3.29
3.21
3.05
2.94
2.97
3.15
3.36
3.46
3.33
2.96
2.47
2.02
1.71
1.53
1.36
1.07
0.58
-0.08
-0.76
-1.32
-1.65
-1.76
-1.68
-1.49
-1.21
-0.85
-0.46
-0.11
0.12
0.14
-0.06
-0.39
-0.75
-1.05
-1.25
-1.37
-1.44
-1.49
-1.53
-1.56
-1.56
-1.55
-1.51
-1.39
-1.13
-0.65
0.06
0.90
1.72
2.38
2.78
2.93
2.92
2.82
2.66
2.43
2.07
1.57
0.97
0.38
-0.08
-0.33
-0.36
-0.22
0.01
0.24
0.41
0.47
0.40
0.18
-0.16
-0.55
-0.85
-0.97
-0.85
-0.57
-0.26
-0.07
-0.06
-0.19
-0.38
-0.51
-0.55
-0.53
-0.53
-0.58
-0.69
-0.80
-0.90
-0.95
-0.99
-1.02
-1.08
-1.14
-1.20
-1.27
-1.32
-1.35
-1.33
-1.22
-1.02
-0.75
-0.45
-0.14
0.15
0.44
0.74
1.05
1.35
1.61
1.82
1.94
1.94
1.80
1.49
1.04
0.56
0.14
-0.14
-0.25
-0.27
-0.28
-0.33
-0.41
-0.46
-0.42
-0.32
-0.24
-0.28
-0.47
-0.76
-1.03
-1.21
-1.27
-1.29
-1.35
-1.51
-1.74
-1.95
-2.06
-2.04
-1.96
-1.88
-1.84
-1.82
-1.79
-1.67
-1.47
-1.23
-1.03
-0.95
-1.01
-1.16
-1.29
-1.30
-1.10
-0.72
-0.24
0.19
0.45
0.50
0.43
0.41
0.58
0.99
1.53
2.05
2.39
2.51
2.45
2.34
2.25
2.18
2.06
1.84
1.55
1.28
1.15
1.20
1.35
1.44
1.32
0.91
0.27
-0.40
-0.87
-1.00
-0.72
-0.15
0.55
1.15
1.48
1.51
1.30
1.02
0.81
0.74
0.73
0.65
0.40
-0.06
-0.61
-1.08
-1.32
-1.30
-1.10
-0.91
-0.87
-1.00
-1.23
-1.43
-1.50
-1.48
-1.45
-1.54
-1.83
-2.27
-2.68
-2.86
-2.66
-2.06
-1.17
-0.21
0.64
1.27
1.69
1.95
2.09
2.13
2.04
1.80
1.41
0.94
0.46
0.08
-0.15
-0.20
-0.10
0.09
0.30
0.48
0.60
0.63
0.58
0.41
0.11
-0.32
-0.80
-1.20
-1.40
-1.33
-1.04
-0.69
-0.43
-0.38
-0.58
-0.97
-1.43
-1.89
-2.25
-2.44
-2.37
-2.01
-1.40
-0.68
-0.04
0.34
0.40
0.16
-0.22
-0.61
-0.87
-0.95
-0.82
-0.48
0.02
0.67
1.39
2.09
2.67
3.06
3.22
3.17
2.94
2.63
2.28
1.94
1.62
1.32
1.05
0.83
0.69
0.68
0.82
1.11
1.48
1.83
2.04
2.00
1.68
1.16
0.56
0.04
-0.28
-0.40
-0.38
-0.38
-0.49
-0.75
-1.12
-1.49
-1.75
-1.81
-1.66
-1.40
-1.18
-1.12
-1.25
-1.49
-1.68
-1.67
-1.45
-1.08
-0.69
-0.39
-0.23
-0.21
-0.35
-0.67
-1.16
-1.77
-2.33
-2.64
-2.54
-2.02
-1.24
-0.43
0.20
0.60
0.84
1.02
1.22
1.40
1.47
1.35
1.03
0.59
0.15
-0.19
-0.39
-0.50
-0.59
-0.72
-0.89
-1.04
-1.10
-1.05
-0.90
-0.75
-0.67
-0.72
-0.88
-1.06
-1.13
-0.96
-0.53
0.09
0.78
1.38
1.79
1.93
1.83
1.52
1.11
0.69
0.37
0.25
0.35
0.62
0.90
1.03
0.88
0.44
-0.16
-0.75
-1.15
-1.29
-1.21
-1.01
-0.75
-0.46
-0.15
0.22
0.61
0.94
1.11
1.12
1.04
1.00
1.14
1.49
1.96
2.35
2.49
2.28
1.79
1.19
0.69
0.45
0.53
0.89
1.38
1.86
2.16
2.20
1.97
1.55
1.07
0.64
0.31
0.05
-0.17
-0.39
-0.60
-0.70
-0.65
-0.48
-0.31
-0.30
-0.55
-1.03
-1.58
-2.01
-2.17
-2.06
-1.79
-1.51
-1.36
-1.40
-1.59
-1.86
-2.13
-2.35
-2.46
-2.42
-2.20
-1.82
-1.32
-0.80
-0.31
0.11
0.46
0.76
1.00
1.14
1.14
0.97
0.65
0.25
-0.19
-0.56
-0.83
-0.96
-0.93
-0.78
-0.58
-0.44
-0.48
-0.74
-1.18
-1.68
-2.06
-2.15
-1.92
-1.42
-0.78
-0.14
0.43
0.90
1.30
1.66
1.95
2.14
2.20
2.12
1.94
1.70
1.39
1.02
0.60
0.14
-0.27
-0.54
-0.62
-0.52
-0.33
-0.13
-0.02
0.02
0.01
0.02
0.08
0.20
0.35
0.53
0.78
1.09
1.47
1.85
2.15
2.25
2.09
1.68
1.11
0.51
0.01
-0.30
-0.40
-0.34
-0.23
-0.12
-0.04
0.04
0.19
0.45
0.77
1.07
1.21
1.12
0.80
0.33
-0.15
-0.49
-0.62
-0.54
-0.32
-0.08
0.06
0.03
-0.17
-0.47
-0.80
-1.10
-1.36
-1.60
-1.89
-2.23
-2.62
-2.99
-3.28
-3.44
-3.48
-3.42
-3.28
-3.04
-2.64
-2.03
-1.19
-0.18
0.87
1.80
2.47
2.84
2.98
3.01
3.08
3.25
3.45
3.56
3.45
3.06
2.48
1.87
1.42
1.25
1.35
1.60
1.88
2.10
2.26
2.36
2.37
2.26
1.97
1.51
0.97
0.47
0.12
-0.08
-0.17
-0.23
-0.34
-0.52
-0.77
-1.06
-1.32
-1.49
-1.53
-1.43
-1.26
-1.13
-1.15
-1.40
-1.84
-2.37
-2.83
-3.10
-3.14
-2.98
-2.70
-2.37
-2.00
-1.55
-0.98
-0.26
0.54
1.29
1.87
2.14
2.10
1.80
1.35
0.82
0.27
-0.26
-0.73
-1.07
-1.24
-1.24
-1.16
-1.12
-1.25
-1.55
-1.95
-2.29
-2.47
-2.44
-2.27
-2.05
-1.85
-1.67
-1.46
-1.18
-0.86
-0.54
-0.27
-0.08
0.09
0.27
0.48
0.68
0.83
0.87
0.85
0.78
0.70
0.59
0.42
0.16
-0.16
-0.44
-0.58
-0.49
-0.18
0.26
0.72
1.12
1.46
1.78
2.11
2.42
2.63
2.61
2.31
1.74
1.05
0.40
-0.02
-0.15
0.02
0.37
0.79
1.15
1.35
1.38
1.24
0.99
0.70
0.42
0.20
0.04
-0.05
-0.09
-0.08
-0.03
0.05
0.13
0.20
0.23
0.19
0.03
-0.25
-0.66
-1.12
-1.53
-1.78
-1.83
-1.69
-1.51
-1.45
-1.58
-1.90
-2.26
-2.47
-2.41
-2.05
-1.46
-0.77
-0.07
0.56
1.09
1.47
1.66
1.63
1.41
1.09
0.77
0.53
0.38
0.28
0.16
-0.01
-0.23
-0.46
-0.63
-0.75
-0.81
-0.82
-0.80
-0.75
-0.67
-0.57
-0.50
-0.48
-0.53
-0.62
-0.71
-0.74
-0.64
-0.39
0.02
0.56
1.17
1.72
2.08
2.11
1.78
1.16
0.43
-0.22
-0.62
-0.74
-0.64
-0.43
-0.17
0.16
0.60
1.14
1.71
2.14
2.29
2.11
1.68
1.18
0.77
0.55
0.47
0.45
0.40
0.34
0.32
0.39
0.55
0.74
0.87
0.87
0.73
0.47
0.20
-0.01
-0.08
0.01
0.19
0.36
0.41
0.24
-0.10
-0.54
-0.93
-1.17
-1.22
-1.16
-1.08
-1.06
-1.12
-1.24
-1.36
-1.41
-1.35
-1.17
-0.87
-0.52
-0.18
0.10
0.32
0.51
0.69
0.82
0.84
0.68
0.33
-0.10
-0.44
-0.58
-0.48
-0.26
-0.11
-0.16
-0.45
-0.88
-1.29
-1.54
-1.60
-1.50
-1.36
-1.24
-1.15
-1.06
-0.92
-0.71
-0.50
-0.36
-0.35
-0.46
-0.59
-0.61
-0.42
-0.00
0.56
1.09
1.43
1.50
1.31
0.99
0.68
0.49
0.43
0.46
0.52
0.62
0.82
1.18
1.71
2.32
2.85
3.15
3.14
2.86
2.43
1.99
1.63
1.36
1.16
0.97
0.76
0.54
0.33
0.17
0.07
0.04
0.06
0.09
0.11
0.11
0.12
0.16
0.21
0.24
0.21
0.09
-0.08
-0.23
-0.29
-0.20
0.00
0.24
0.39
0.34
0.06
-0.40
-0.93
-1.36
-1.62
-1.71
-1.72
-1.76
-1.86
-1.97
-1.95
-1.63
-0.97
-0.04
0.97
1.84
2.40
2.62
2.57
2.36
2.12
1.89
1.70
1.52
1.32
1.06
0.75
0.39
0.06
-0.15
-0.16
0.05
0.41
0.80
1.06
1.06
0.77
0.27
-0.31
-0.81
-1.15
-1.31
-1.33
-1.28
-1.24
-1.21
-1.18
-1.14
-1.06
-1.01
-1.02
-1.16
-1.43
-1.75
-1.99
-2.06
-1.95
-1.71
-1.48
-1.38
-1.43
-1.54
-1.57
-1.37
-0.91
-0.27
0.37
0.85
1.06
1.00
0.80
0.58
0.46
0.46
0.52
0.57
0.55
0.43
0.20
-0.07
-0.33
-0.52
-0.60
-0.60
-0.56
-0.57
-0.68
-0.92
-1.30
-1.77
-2.27
-2.70
-2.96
-2.97
-2.66
-2.07
-1.33
-0.62
-0.10
0.14
0.13
-0.03
-0.24
-0.40
-0.47
-0.46
-0.32
-0.08
0.26
0.61
0.84
0.85
0.61
0.20
-0.18
-0.33
-0.11
0.45
1.21
1.94
2.47
2.70
2.65
2.40
2.04
1.62
1.20
0.84
0.60
0.55
0.70
1.01
1.39
1.71
1.88
1.86
1.69
1.42
1.15
0.96
0.89
0.96
1.12
1.29
1.42
1.45
1.37
1.17
0.88
0.53
0.15
-0.20
-0.50
-0.74
-0.91
-1.01
-1.03
-0.97
-0.89
-0.84
-0.88
-1.05
-1.29
-1.53
-1.65
-1.57
-1.28
-0.82
-0.28
0.28
0.77
1.11
1.23
1.09
0.72
0.20
-0.33
-0.73
-0.87
-0.74
-0.37
0.12
0.56
0.85
0.91
0.78
0.56
0.38
0.32
0.39
0.54
0.66
0.64
0.41
-0.02
-0.58
-1.17
-1.67
-2.00
-2.08
-1.94
-1.63
-1.27
-1.01
-0.97
-1.19
-1.65
-2.20
-2.66
-2.87
-2.73
-2.26
-1.56
-0.79
-0.09
0.44
0.81
1.04
1.17
1.19
1.11
0.93
0.71
0.52
0.41
0.39
0.43
0.48
0.50
0.50
0.48
0.47
0.46
0.39
0.26
0.05
-0.20
-0.43
-0.60
-0.73
-0.89
-1.13
-1.47
-1.85
-2.19
-2.40
-2.44
-2.31
-2.07
-1.79
-1.52
-1.29
-1.11
-0.99
-0.92
-0.89
-0.83
-0.68
-0.37
0.12
0.77
1.52
2.27
2.94
3.47
3.78
3.83
3.59
3.09
2.44
1.80
1.31
1.07
1.06
1.18
1.29
1.31
1.19
0.99
0.77
0.58
0.42
0.26
0.05
-0.22
-0.53
-0.81
-1.00
-1.05
-0.95
-0.78
-0.62
-0.59
-0.73
-0.98
-1.20
-1.24
-1.01
-0.56
-0.07
0.27
0.33
0.10
-0.25
-0.55
-0.65
-0.53
-0.21
0.19
0.62
1.05
1.50
1.95
2.34
2.58
2.60
2.40
2.05
1.67
1.37
1.19
1.09
1.00
0.84
0.61
0.36
0.15
0.04
0.03
0.09
0.20
0.35
0.52
0.65
0.69
0.55
0.23
-0.21
-0.67
-1.05
-1.30
-1.48
-1.64
-1.84
-2.02
-2.08
-1.93
-1.54
-1.00
-0.49
-0.20
-0.20
-0.45
-0.77
-0.97
-0.92
-0.63
-0.20
0.20
0.48
0.65
0.77
0.94
1.17
1.39
1.50
1.42
1.16
0.83
0.57
0.44
0.45
0.50
0.49
0.36
0.13
-0.15
-0.38
-0.50
-0.52
-0.46
-0.36
-0.25
-0.16
-0.06
0.02
0.06
0.02
-0.14
-0.40
-0.72
-1.01
-1.20
-1.27
-1.28
-1.28
-1.32
-1.40
-1.45
-1.42
-1.27
-0.99
-0.62
-0.21
0.20
0.57
0.82
0.92
0.86
0.71
0.58
0.60
0.79
1.12
1.44
1.58
1.47
1.11
0.60
0.08
-0.38
-0.72
-0.96
-1.09
-1.10
-0.98
-0.78
-0.59
-0.53
-0.69
-1.08
-1.59
-2.09
-2.43
-2.56
-2.55
-2.48
-2.43
-2.41
-2.35
-2.16
-1.84
-1.46
-1.16
-1.05
-1.15
-1.36
-1.47
-1.31
-0.82
-0.03
0.88
1.72
2.37
2.79
3.01
3.11
3.11
2.99
2.73
2.33
1.87
1.46
1.20
1.14
1.28
1.54
1.81
1.99
2.04
1.93
1.68
1.35
0.97
0.63
0.38
0.27
0.29
0.39
0.50
0.51
0.39
0.16
-0.14
-0.40
-0.58
-0.65
-0.63
-0.54
-0.42
-0.27
-0.13
-0.03
0.03
0.08
0.23
0.54
1.07
1.73
2.40
2.96
3.37
3.70
4.06
4.56
5.21
5.93
6.58
7.05
7.33
7.47
7.61
7.90
8.46
9.32
10.42
11.60
12.67
13.42
13.74
13.59
12.96
11.87
10.34
8.36
5.99
3.36
0.64
-1.93
-4.15
-5.90
-7.12
-7.79
-7.93
-7.62
-7.00
-6.34
-5.91
-5.92
-6.42
-7.22
-7.95
-8.16
-7.53
-5.99
-3.70
-1.00
1.69
3.96
5.40
5.68
4.58
2.12
-1.36
-5.16
-8.33
-9.92
-9.43
-6.90
-2.98
1.42
5.46
8.58
10.81
12.61
14.60
17.08
19.87
22.43
24.19
24.91
24.48
23.18
21.34
19.10
16.11
11.76
5.54
-2.52
-11.82
-21.83
-31.89
-41.39
-49.85
-57.11
-63.17
-68.08
-71.75
-73.97
-75.13
-75.48
-75.03
-73.60
-71.06
-67.52
-63.31
-58.84
-50.90
-38.26
-21.91
-4.41
11.92
25.99
37.43
46.04
51.66
54.36
54.10
51.53
47.70
43.71
40.17
37.15
34.43
31.93
29.67
27.43
25.09
22.69
20.39
18.40
16.82
15.67
14.86
14.16
13.14
11.61
9.70
7.70
5.91
4.42
3.10
1.73
-0.06
-2.52
-5.66
-9.25
-12.84
-15.93
-18.13
-19.30
-18.87
-17.28
-15.08
-12.63
-10.13
-7.61
-4.99
-2.08
1.27
5.03
8.79
11.88
13.49
12.97
10.19
5.69
0.60
-3.80
-6.59
-7.55
-6.94
-5.43
-3.45
-1.30
0.80
2.66
4.07
4.84
4.87
4.29
3.44
2.67
2.27
2.31
2.74
3.42
4.20
5.04
6.01
7.20
8.60
10.06
11.31
11.95
11.62
9.88
6.51
1.67
-3.95
-9.10
-12.25
-12.09
-8.17
-1.34
6.46
12.63
15.39
14.47
11.00
6.77
3.16
0.49
-1.96
-5.10
-9.22
-13.70
-17.24
-18.67
-17.62
-14.68
-11.11
-8.05
-5.97
-4.51
-2.82
-0.25
3.16
6.66
9.19
9.99
9.02
6.97
4.86
3.46
2.98
3.02
2.96
2.32
1.19
-0.01
-0.83
-1.17
-1.28
-1.67
-2.66
-4.27
-6.06
-7.36
-7.60
-6.51
-4.17
-1.02
2.34
5.30
7.18
7.50
6.22
3.68
0.57
-2.36
-4.49
-5.65
-6.01
-5.90
-5.59
-5.14
-4.41
-3.17
-1.27
1.26
4.09
6.78
8.99
10.63
11.78
12.61
13.15
13.30
12.87
11.73
9.96
7.84
5.73
3.99
2.89
2.31
1.95
1.53
0.83
-0.16
-1.26
-2.23
-2.85
-3.11
-3.16
-3.37
-3.98
-5.06
-6.48
-7.99
-9.41
-10.63
-11.73
-12.35
-12.55
-12.39
-11.96
-11.33
-10.48
-9.31
-7.50
-4.68
-0.68
4.12
8.81
12.15
13.01
11.12
6.88
1.48
-3.55
-6.98
-8.33
-7.88
-6.33
-4.43
-2.61
-0.96
0.65
2.26
3.69
4.64
4.91
4.59
3.96
3.39
3.00
2.78
2.53
1.98
1.02
-0.26
-1.36
-1.78
-1.31
-0.10
1.53
3.30
5.04
6.65
7.96
8.82
9.06
8.67
7.82
6.84
6.17
6.15
6.93
8.09
8.92
8.66
6.99
4.19
1.06
-1.37
-2.32
-1.55
0.14
1.45
1.22
-1.05
-4.90
-9.18
-12.50
-13.90
-13.10
-11.18
-9.76
-10.40
-13.83
-19.93
-27.94
-36.85
-45.71
-50.30
-46.83
-33.22
-10.86
15.39
39.06
54.43
58.64
52.63
40.52
26.98
15.52
7.31
1.68
-2.61
-6.21
-8.76
-9.38
-7.48
-3.78
0.24
3.07
3.90
3.01
1.44
0.42
0.76
2.57
5.02
6.93
7.31
5.87
3.07
-0.09
-2.57
-3.71
-3.42
-2.33
-1.29
-1.06
-1.89
-3.49
-5.27
-6.55
-6.89
-6.23
-4.90
-3.42
-2.30
-1.74
-1.62
-1.66
-1.55
-1.21
-0.83
-0.72
-1.17
-2.28
-3.88
-5.64
-7.22
-8.33
-8.80
-8.53
-7.53
-5.94
-4.01
-2.15
-0.72
0.07
0.35
0.51
1.03
2.32
4.43
7.10
9.90
12.36
14.21
15.39
16.02
16.28
16.24
15.83
14.95
13.55
11.78
9.96
8.53
7.80
7.85
8.46
9.25
9.80
9.86
9.35
8.32
6.91
5.30
3.70
2.31
1.28
0.67
0.41
0.28
-0.05
-0.83
-2.11
-3.64
-5.04
-6.09
-6.82
-7.50
-8.43
-9.73
-11.12
-12.07
-12.07
-10.94
-9.08
-7.06
-5.29
-3.70
-1.85
0.79
4.44
8.86
13.40
17.10
19.09
18.93
16.62
12.51
7.25
1.59
-3.82
-8.63
-13.04
-17.31
-21.30
-24.39
-25.93
-25.87
-25.19
-25.66
-26.75
-27.75
-27.36
-24.14
-17.42
-7.95
2.27
10.99
16.86
19.49
20.18
20.34
20.81
21.76
22.79
23.40
23.22
22.06
20.36
18.02
14.71
10.28
4.98
-0.45
-4.93
-7.44
-7.37
-4.84
-0.87
3.07
5.69
6.27
4.82
2.04
-1.05
-3.46
-4.57
-4.40
-3.43
-2.28
-1.50
-1.29
-1.60
-2.12
-2.56
-2.76
-2.77
-2.72
-2.69
-2.61
-2.32
-1.61
-0.39
1.27
3.22
5.26
7.22
8.97
10.41
11.39
11.82
11.70
11.17
10.55
10.18
10.25
10.70
11.16
11.13
10.12
7.86
4.36
-0.15
-5.28
-10.56
-15.49
-19.60
-22.46
-23.85
-23.87
-22.93
-21.67
-20.72
-20.48
-20.95
-21.73
-22.24
-21.88
-20.35
-17.63
-14.03
-10.02
-6.12
-2.76
-0.29
1.13
1.55
1.21
0.52
-0.03
-0.03
0.71
2.16
4.05
6.03
7.75
9.00
9.70
9.90
9.74
9.40
9.01
8.66
8.38
8.15
7.92
7.67
7.37
7.05
6.71
6.31
5.80
5.05
3.91
2.25
-0.02
-2.93
-6.43
-10.38
-14.50
-18.40
-21.57
-23.47
-23.70
-22.10
-18.88
-14.53
-9.67
-4.81
-0.30
3.74
7.34
10.51
13.21
15.36
16.86
17.65
17.72
17.07
15.73
13.77
11.40
9.00
7.10
6.24
6.69
8.32
10.54
12.51
13.50
13.14
11.55
9.15
6.45
3.75
0.99
-2.12
-5.96
-10.81
-16.74
-23.56
-30.92
-38.30
-45.08
-50.59
-54.20
-55.41
-53.98
-49.93
-43.57
-35.47
-26.47
-17.54
-9.59
-3.32
1.04
3.74
5.39
6.68
8.10
9.76
11.46
12.86
13.68
13.94
13.84
13.67
13.58
13.56
13.49
13.23
12.75
12.11
11.42
10.76
10.09
9.35
8.43
7.35
6.16
5.00
4.01
3.21
2.57
1.98
1.33
0.55
-0.37
-1.33
-2.19
-2.75
-2.82
-2.27
-1.11
0.51
2.33
4.02
5.32
6.13
6.49
6.55
6.50
6.48
6.55
6.74
7.04
7.45
7.91
8.33
8.61
8.62
8.31
7.66
6.73
5.61
4.48
3.54
2.93
2.70
2.77
2.91
2.91
2.63
2.10
1.46
0.88
0.40
-0.01
-0.46
-0.97
-1.51
-1.96
-2.19
-2.15
-1.82
-1.25
-0.46
0.52
1.66
2.87
4.06
5.12
5.97
6.58
6.92
6.93
6.50
5.52
3.92
1.78
-0.72
-3.26
-5.59
-7.53
-9.03
-10.16
-10.99
-11.56
-11.82
-11.77
-11.42
-10.90
-10.39
-10.03
-9.88
-9.89
-9.92
-9.82
-9.50
-8.95
-8.26
-7.54
-6.88
-6.33
-5.89
-5.55
-5.32
-5.14
-4.93
-4.56
-3.89
-2.87
-1.58
-0.21
1.02
1.92
2.49
2.84
3.12
3.41
3.68
3.80
3.66
3.26
2.71
2.20
1.89
1.83
1.93
2.07
2.12
2.08
2.01
1.97
2.01
2.04
1.99
1.78
1.41
0.98
0.57
0.26
0.05
-0.10
-0.24
-0.41
-0.60
-0.85
-1.16
-1.60
-2.15
-2.75
-3.25
-3.44
-3.18
-2.38
-1.11
0.44
1.99
3.25
4.00
4.20
3.98
3.60
3.31
3.26
3.44
3.70
3.85
3.79
3.53
3.19
2.89
2.68
2.50
2.25
1.87
1.37
0.90
0.58
0.48
0.51
0.51
0.33
-0.08
-0.62
-1.14
-1.47
-1.53
-1.41
-1.22
-1.10
-1.12
-1.26
-1.46
-1.70
-1.95
-2.22
-2.44
-2.53
-2.35
-1.85
-1.04
-0.04
0.98
1.87
2.56
3.07
3.45
3.76
4.04
4.24
4.34
4.31
4.16
3.91
3.58
3.20
2.77
2.29
1.75
1.15
0.50
-0.17
-0.81
-1.32
-1.65
-1.83
-1.94
-2.10
-2.42
-2.89
-3.42
-3.85
-4.03
-3.91
-3.53
-3.03
-2.55
-2.21
-2.05
-2.10
-2.28
-2.50
-2.61
-2.51
-2.09
-1.38
-0.46
0.55
1.49
2.27
2.83
3.17
3.32
3.28
3.09
2.78
2.38
1.94
1.50
1.10
0.82
0.70
0.74
0.90
1.07
1.13
1.02
0.75
0.41
0.11
-0.06
-0.08
-0.02
0.03
-0.03
-0.24
-0.61
-1.09
-1.61
-2.08
-2.41
-2.60
-2.68
-2.70
-2.71
-2.72
-2.65
-2.43
-2.01
-1.41
-0.70
-0.01
0.57
1.02
1.41
1.81
2.25
2.73
3.15
3.44
3.52
3.41
3.15
2.85
2.60
2.46
2.44
2.48
2.52
2.47
2.29
2.02
1.71
1.45
1.30
1.25
1.24
1.19
1.02
0.74
0.39
0.03
-0.32
-0.64
-0.93
-1.17
-1.34
-1.43
-1.52
-1.70
-2.03
-2.47
-2.84
-2.93
-2.61
-1.94
-1.15
-0.46
0.01
0.33
0.63
1.05
1.57
2.07
2.39
2.47
2.34
2.12
1.91
1.73
1.56
1.34
1.06
0.74
0.42
0.12
-0.12
-0.30
-0.41
-0.43
-0.37
-0.26
-0.17
-0.16
-0.28
-0.54
-0.91
-1.35
-1.80
-2.18
-2.49
-2.76
-3.00
-3.23
-3.39
-3.38
-3.11
-2.58
-1.85
-1.07
-0.38
0.18
0.66
1.21
1.88
2.62
3.28
3.64
3.59
3.20
2.68
2.28
2.15
2.30
2.55
2.70
2.64
2.36
1.96
1.58
1.28
1.03
0.76
0.44
0.10
-0.20
-0.39
-0.47
-0.48
-0.53
-0.68
-0.95
-1.29
-1.60
-1.79
-1.80
-1.65
-1.46
-1.37
-1.53
-1.98
-2.60
-3.17
-3.42
-3.22
-2.57
-1.62
-0.60
0.36
1.22
2.03
2.84
3.62
4.23
4.48
4.25
3.60
2.73
1.95
1.53
1.59
2.04
2.63
3.09
3.20
2.92
2.36
1.76
1.34
1.22
1.39
1.66
1.85
1.77
1.35
0.66
-0.17
-0.97
-1.62
-2.04
-2.27
-2.36
-2.41
-2.50
-2.65
-2.84
-2.99
-2.98
-2.75
-2.26
-1.53
-0.67
0.25
1.10
1.85
2.48
3.00
3.41
3.69
3.78
3.65
3.33
2.91
2.54
2.34
2.40
2.66
3.02
3.28
3.33
3.12
2.70
2.19
1.70
1.27
0.94
0.71
0.55
0.46
0.41
0.31
0.09
-0.32
-0.86
-1.40
-1.79
-1.96
-1.96
-1.92
-2.01
-2.29
-2.76
-3.31
-3.87
-4.34
-4.67
-4.78
-4.58
-4.01
-3.07
-1.83
-0.45
0.90
2.11
3.11
3.90
4.46
4.81
4.94
4.84
4.55
4.11
3.58
3.06
2.64
2.37
2.29
2.36
2.49
2.59
2.60
2.51
2.36
2.17
1.93
1.60
1.12
0.53
-0.06
-0.51
-0.69
-0.64
-0.48
-0.45
-0.73
-1.36
-2.23
-3.15
-3.95
-4.49
-4.80
-4.93
-4.99
-5.03
-5.05
-5.05
-4.93
-4.63
-4.10
-3.32
-2.33
-1.20
-0.05
1.02
1.97
2.80
3.51
4.08
4.44
4.50
4.22
3.70
3.08
2.57
2.29
2.26
2.34
2.39
2.30
2.04
1.68
1.31
0.98
0.71
0.50
0.36
0.29
0.31
0.40
0.49
0.55
0.52
0.42
0.25
0.04
-0.24
-0.58
-0.98
-1.39
-1.71
-1.88
-1.89
-1.86
-1.91
-2.20
-2.76
-3.51
-4.27
-4.90
-5.31
-5.53
-5.62
-5.59
-5.37
-4.87
-4.04
-2.95
-1.75
-0.60
0.40
1.27
2.10
2.92
3.67
4.22
4.46
4.34
3.96
3.45
2.93
2.42
1.94
1.47
1.05
0.72
0.53
0.45
0.42
0.37
0.24
0.02
-0.27
-0.56
-0.82
-1.01
-1.16
-1.31
-1.48
-1.69
-1.94
-2.15
-2.27
-2.21
-1.90
-1.32
-0.51
0.45
1.39
2.19
2.74
3.04
3.13
3.07
2.93
2.71
2.38
1.91
1.31
0.64
-0.01
-0.56
-0.95
-1.19
-1.31
-1.39
-1.45
-1.50
-1.53
-1.51
-1.45
-1.41
-1.42
-1.50
-1.61
-1.68
-1.66
-1.51
-1.28
-1.04
-0.86
-0.78
-0.77
-0.80
-0.81
-0.77
-0.66
-0.49
-0.30
-0.15
-0.07
-0.08
-0.16
-0.28
-0.44
-0.70
-1.07
-1.55
-2.04
-2.44
-2.66
-2.74
-2.81
-3.04
-3.51
-4.16
-4.80
-5.23
-5.29
-4.90
-4.09
-2.90
-1.39
0.33
2.14
3.86
5.32
6.41
7.09
7.40
7.40
7.14
6.69
6.17
5.69
5.37
5.24
5.26
5.31
5.26
5.07
4.74
4.33
3.88
3.40
2.85
2.21
1.51
0.84
0.32
0.02
-0.09
-0.13
-0.24
-0.56
-1.13
-1.86
-2.60
-3.21
-3.61
-3.86
-4.02
-4.21
-4.47
-4.80
-5.15
-5.47
-5.72
-5.87
-5.90
-5.84
-5.73
-5.61
-5.54
-5.57
-5.72
-6.02
-6.38
-6.66
-6.64
-6.10
-4.93
-3.19
-1.10
1.04
3.00
4.68
6.11
7.40
8.62
9.73
10.63
11.19
11.33
11.07
10.49
9.76
9.00
8.32
7.72
7.16
6.56
5.88
5.17
4.50
3.96
3.58
3.30
3.01
2.60
2.07
1.50
1.05
0.82
0.80
0.89
0.94
0.83
0.55
0.18
-0.21
-0.57
-0.91
-1.28
-1.66
-2.02
-2.25
-2.28
-2.12
-1.85
-1.60
-1.47
-1.51
-1.71
-2.04
-2.48
-2.99
-3.51
-3.99
-4.37
-4.56
-4.49
-4.12
-3.40
-2.31
-0.93
0.61
2.10
3.35
4.25
4.79
5.02
5.03
4.86
4.52
4.01
3.41
2.83
2.44
2.35
2.55
2.93
3.32
3.56
3.55
3.29
2.85
2.37
1.99
1.84
1.97
2.35
2.85
3.28
3.47
3.35
3.00
2.56
2.21
2.04
2.07
2.23
2.47
2.72
2.96
3.14
3.16
2.92
2.29
1.25
-0.18
-1.85
-3.60
-5.32
-6.99
-8.67
-10.44
-12.29
-14.10
-15.59
-16.48
-16.54
-15.77
-14.34
-12.49
-10.46
-8.39
-6.32
-4.25
-2.26
-0.46
1.02
2.12
2.89
3.46
3.96
4.47
4.91
5.19
5.19
4.88
4.35
3.76
3.29
3.05
3.05
3.16
3.21
3.05
2.63
1.99
1.28
0.63
0.11
-0.34
-0.81
-1.41
-2.16
-2.96
-3.69
-4.28
-4.76
-5.23
-5.78
-6.39
-7.00
-7.48
-7.80
-8.04
-8.35
-8.85
-9.63
-10.63
-11.75
-12.82
-13.71
-14.32
-14.61
-14.57
-14.26
-13.70
-12.90
-11.83
-10.38
-8.50
-6.17
-3.50
-0.64
2.17
4.75
6.93
8.60
9.74
10.39
10.62
10.54
10.18
9.55
8.64
7.53
6.34
5.30
4.58
4.23
4.17
4.18
4.03
3.64
3.05
2.43
1.92
1.61
1.46
1.35
1.15
0.80
0.29
-0.30
-0.94
-1.58
-2.23
-2.87
-3.47
-3.99
-4.43
-4.84
-5.32
-5.96
-6.82
-7.89
-9.08
-10.31
-11.47
-12.52
-13.43
-14.28
-15.13
-16.11
-17.31
-18.74
-20.36
-22.05
-23.63
-24.91
-25.69
-25.80
-25.09
-23.44
-20.86
-17.42
-13.29
-8.69
-3.84
1.05
5.77
10.13
13.94
17.03
19.35
20.95
21.94
22.48
22.64
22.41
21.77
20.72
19.40
18.03
16.86
16.06
15.62
15.40
15.20
14.83
14.20
13.33
12.32
11.26
10.23
9.30
8.49
7.82
7.25
6.66
5.97
5.10
4.03
2.84
1.61
0.40
-0.79
-2.03
-3.41
-4.96
-6.62
-8.19
-9.43
-10.07
-9.98
-9.14
-7.65
-5.67
-3.36
-0.86
1.73
4.33
6.85
9.18
11.19
12.72
13.67
13.96
13.70
13.07
12.38
11.90
11.79
12.00
12.34
12.56
12.43
11.88
10.99
9.91
8.85
7.92
7.20
6.70
6.37
6.16
5.98
5.71
5.28
4.61
3.70
2.63
1.53
0.52
-0.33
-1.03
-1.68
-2.41
-3.35
-4.54
-5.89
-7.23
-8.28
-8.78
-8.54
-7.49
-5.70
-3.35
-0.68
2.09
4.75
7.12
9.06
10.48
11.36
11.75
11.78
11.56
11.20
10.75
10.21
9.61
9.00
8.45
8.05
7.84
7.78
7.78
7.73
7.55
7.18
6.62
5.92
5.11
4.23
3.35
2.53
1.85
1.36
1.04
0.77
0.38
-0.28
-1.25
-2.43
-3.59
-4.49
-4.98
-5.12
-5.11
-5.20
-5.59
-6.32
-7.26
-8.22
-9.04
-9.71
-10.30
-10.96
-11.79
-12.84
-14.09
-15.44
-16.72
-17.70
-18.11
-17.71
-16.36
-14.11
-11.18
-7.91
-4.65
-1.65
0.96
3.18
5.03
6.54
7.70
8.52
9.04
9.32
9.44
9.47
9.44
9.35
9.22
9.05
8.87
8.67
8.42
8.08
7.66
7.19
6.74
6.35
6.03
5.70
5.29
4.70
3.93
3.06
2.21
1.47
0.90
0.48
0.09
-0.38
-1.04
-1.91
-2.91
-3.90
-4.72
-5.31
-5.72
-6.06
-6.50
-7.16
-8.08
-9.22
-10.49
-11.78
-12.94
-13.82
-14.20
-13.85
-12.66
-10.63
-7.94
-4.92
-1.90
0.88
3.31
5.45
7.39
9.16
10.65
11.68
12.06
11.71
10.79
9.57
8.39
7.47
6.90
6.55
6.28
5.96
5.54
5.08
4.66
4.30
3.98
3.61
3.13
2.57
2.01
1.55
1.25
1.06
0.85
0.48
-0.13
-0.96
-1.93
-2.89
-3.72
-4.37
-4.82
-5.13
-5.37
-5.67
-6.11
-6.74
-7.55
-8.41
-9.20
-9.83
-10.33
-10.79
-11.34
-12.04
-12.82
-13.47
-13.76
-13.45
-12.44
-10.76
-8.53
-5.96
-3.21
-0.46
2.18
4.58
6.60
8.09
8.95
9.16
8.87
8.27
7.64
7.16
6.89
6.77
6.70
6.57
6.38
6.18
6.02
5.92
5.84
5.71
5.46
5.09
4.65
4.21
3.78
3.34
2.85
2.24
1.52
0.73
-0.06
-0.79
-1.44
-2.04
-2.64
-3.30
-4.05
-4.87
-5.74
-6.61
-7.43
-8.18
-8.83
-9.38
-9.82
-10.19
-10.52
-10.89
-11.37
-12.03
-12.90
-13.93
-15.00
-15.90
-16.39
-16.24
-15.34
-13.71
-11.51
-8.96
-6.29
-3.65
-1.11
1.30
3.59
5.74
7.68
9.34
10.63
11.51
12.00
12.19
12.15
11.96
11.62
11.13
10.47
9.67
8.83
8.09
7.59
7.39
7.41
7.50
7.45
7.13
6.50
5.65
4.72
3.89
3.21
2.60
1.91
1.00
-0.14
-1.39
-2.56
-3.51
-4.23
-4.82
-5.43
-6.15
-6.93
-7.69
-8.38
-9.02
-9.74
-10.61
-11.61
-12.53
-13.10
-13.08
-12.39
-11.11
-9.42
-7.50
-5.44
-3.30
-1.09
1.13
3.28
5.31
7.11
8.62
9.73
10.36
10.46
10.08
9.36
8.53
7.80
7.28
6.96
6.74
6.48
6.07
5.47
4.74
3.96
3.24
2.65
2.20
1.84
1.46
0.99
0.41
-0.26
-0.92
-1.49
-1.96
-2.37
-2.80
-3.32
-3.95
-4.62
-5.23
-5.70
-5.99
-6.16
-6.32
-6.58
-7.02
-7.61
-8.31
-9.06
-9.85
-10.68
-11.54
-12.31
-12.80
-12.76
-12.00
-10.54
-8.54
-6.29
-4.08
-2.08
-0.32
1.33
2.98
4.71
6.46
8.07
9.36
10.18
10.51
10.46
10.20
9.88
9.61
9.36
9.10
8.77
8.38
7.96
7.55
7.13
6.66
6.09
5.40
4.66
3.94
3.30
2.75
2.26
1.74
1.14
0.45
-0.29
-0.96
-1.50
-1.87
-2.15
-2.47
-2.95
-3.69
-4.67
-5.80
-6.95
-8.02
-8.97
-9.77
-10.43
-10.92
-11.25
-11.51
-11.86
-12.42
-13.23
-14.09
-14.64
-14.51
-13.45
-11.52
-9.06
-6.48
-4.11
-2.07
-0.25
1.52
3.36
5.22
6.98
8.47
9.59
10.37
10.86
11.18
11.36
11.42
11.32
11.03
10.56
9.96
9.32
8.69
8.09
7.46
6.76
5.95
5.06
4.14
3.26
2.43
1.65
0.91
0.21
-0.46
-1.09
-1.72
-2.39
-3.12
-3.89
-4.64
-5.29
-5.81
-6.21
-6.56
-6.89
-7.27
-7.71
-8.19
-8.68
-9.16
-9.64
-10.16
-10.75
-11.42
-12.04
-12.40
-12.25
-11.39
-9.80
-7.62
-5.10
-2.49
0.06
2.48
4.76
6.86
8.70
10.14
11.10
11.59
11.71
11.62
11.45
11.28
11.08
10.81
10.39
9.80
9.09
8.33
7.60
6.97
6.44
6.02
5.64
5.24
4.77
4.19
3.50
2.74
1.94
1.14
0.33
-0.49
-1.31
-2.10
-2.84
-3.50
-4.09
-4.65
-5.21
-5.78
-6.35
-6.93
-7.48
-7.99
-8.46
-8.88
-9.30
-9.75
-10.29
-10.98
-11.83
-12.83
-13.84
-14.66
-15.08
-14.89
-14.04
-12.60
-10.74
-8.66
-6.47
-4.20
-1.78
0.84
3.58
6.29
8.67
10.50
11.65
12.15
12.19
11.96
11.67
11.42
11.25
11.13
11.04
10.95
10.86
10.72
10.48
10.04
9.36
8.44
7.39
6.35
5.46
4.81
4.36
3.97
3.48
2.76
1.78
0.63
-0.52
-1.50
-2.20
-2.63
-2.94
-3.30
-3.86
-4.68
-5.68
-6.71
-7.66
-8.46
-9.10
-9.58
-9.94
-10.20
-10.45
-10.81
-11.44
-12.42
-13.73
-15.12
-16.25
-16.71
-16.23
-14.75
-12.42
-9.52
-6.37
-3.23
-0.25
2.55
5.20
7.69
10.01
12.04
13.67
14.77
15.33
15.38
15.03
14.41
13.65
12.87
12.14
11.53
11.06
10.74
10.49
10.22
9.80
9.14
8.21
7.10
5.95
4.91
4.10
3.54
3.18
2.90
2.58
2.12
1.47
0.64
-0.34
-1.39
-2.42
-3.32
-4.04
-4.61
-5.12
-5.69
-6.40
-7.27
-8.19
-9.05
-9.77
-10.31
-10.75
-11.17
-11.64
-12.18
-12.73
-13.16
-13.32
-13.04
-12.21
-10.79
-8.87
-6.59
-4.15
-1.71
0.65
2.88
4.98
6.85
8.39
9.49
10.10
10.31
10.28
10.19
10.11
10.04
9.91
9.67
9.30
8.87
8.46
8.12
7.84
7.59
7.27
6.80
6.13
5.25
4.23
3.17
2.24
1.57
1.18
1.01
0.89
0.64
0.13
-0.65
-1.62
-2.68
-3.71
-4.65
-5.48
-6.19
-6.77
-7.21
-7.53
-7.77
-8.01
-8.33
-8.81
-9.46
-10.23
-11.09
-11.97
-12.84
-13.69
-14.53
-15.30
-15.89
-16.07
-15.63
-14.41
-12.44
-9.89
-7.03
-4.17
-1.46
1.06
3.41
5.63
7.68
9.42
10.74
11.57
12.00
12.17
12.25
12.33
12.34
12.18
11.77
11.14
10.46
9.91
9.61
9.52
9.45
9.20
8.65
7.82
6.86
5.92
5.09
4.37
3.70
3.06
2.42
1.79
1.17
0.52
-0.20
-1.04
-1.98
-2.95
-3.84
-4.57
-5.09
-5.41
-5.61
-5.79
-6.09
-6.59
-7.30
-8.14
-8.96
-9.56
-9.75
-9.38
-8.40
-6.85
-4.88
-2.73
-0.68
1.07
2.42
3.45
4.31
5.18
6.13
7.11
7.95
8.47
8.58
8.28
7.66
6.87
6.00
5.13
4.33
3.65
3.14
2.86
2.78
2.83
2.90
2.85
2.60
2.15
1.59
1.00
0.49
0.07
-0.29
-0.66
-1.13
-1.77
-2.55
-3.38
-4.10
-4.57
-4.76
-4.73
-4.64
-4.69
-5.01
-5.62
-6.41
-7.24
-7.98
-8.58
-9.05
-9.48
-9.92
-10.46
-11.13
-11.95
-12.88
-13.77
-14.43
-14.60
-14.13
-12.98
-11.23
-9.09
-6.78
-4.47
-2.25
-0.14
1.92
3.93
5.87
7.64
9.13
10.29
11.14
11.76
12.25
12.68
13.00
13.09
12.88
12.36
11.64
10.86
10.16
9.59
9.13
8.71
8.28
7.82
7.30
6.71
6.00
5.17
4.24
3.28
2.40
1.66
1.09
0.61
0.11
-0.52
-1.33
-2.33
-3.47
-4.65
-5.81
-6.87
-7.78
-8.51
-9.08
-9.50
-9.87
-10.31
-10.93
-11.80
-12.87
-13.96
-14.78
-15.00
-14.40
-12.94
-10.74
-8.10
-5.30
-2.54
0.07
2.55
4.93
7.25
9.48
11.52
13.21
14.39
14.96
14.91
14.38
13.61
12.84
12.23
11.80
11.48
11.15
10.72
10.16
9.49
8.71
7.82
6.87
5.95
5.18
4.64
4.32
4.10
3.79
3.28
2.50
1.52
0.39
-0.85
-2.18
-3.55
-4.85
-5.95
-6.76
-7.29
-7.68
-8.06
-8.55
-9.12
-9.68
-10.08
-10.25
-10.21
-10.08
-10.05
-10.27
-10.81
-11.58
-12.32
-12.69
-12.39
-11.30
-9.50
-7.26
-4.90
-2.61
-0.48
1.50
3.33
4.98
6.37
7.46
8.24
8.80
9.24
9.62
9.96
10.19
10.25
10.11
9.74
9.18
8.50
7.78
7.08
6.50
6.05
5.69
5.34
4.91
4.37
3.78
3.22
2.74
2.31
1.88
1.34
0.68
-0.05
-0.76
-1.35
-1.81
-2.17
-2.51
-2.88
-3.29
-3.78
-4.42
-5.30
-6.42
-7.73
-9.05
-10.20
-11.07
-11.72
-12.31
-13.04
-14.02
-15.16
-16.23
-16.88
-16.83
-15.97
-14.38
-12.30
-10.00
-7.65
-5.32
-2.92
-0.36
2.39
5.20
7.84
9.99
11.46
12.17
12.23
11.89
11.42
11.06
10.91
10.97
11.18
11.40
11.56
11.59
11.42
11.05
10.43
9.58
8.59
7.56
6.64
5.93
5.43
5.08
4.71
4.20
3.46
2.52
1.45
0.39
-0.57
-1.37
-2.03
-2.59
-3.11
-3.67
-4.31
-5.04
-5.87
-6.74
-7.61
-8.39
-9.07
-9.66
-10.27
-11.02
-11.93
-12.90
-13.67
-13.99
-13.64
-12.55
-10.84
-8.69
-6.31
-3.83
-1.35
1.06
3.32
5.29
6.89
8.07
8.87
9.38
9.72
9.94
10.09
10.18
10.21
10.19
10.09
9.90
9.58
9.11
8.50
7.83
7.19
6.64
6.19
5.80
5.36
4.81
4.14
3.39
2.62
1.89
1.17
0.41
-0.41
-1.32
-2.27
-3.17
-3.99
-4.71
-5.33
-5.89
-6.41
-6.92
-7.45
-8.02
-8.67
-9.39
-10.16
-10.93
-11.68
-12.40
-13.16
-13.97
-14.84
-15.69
-16.36
-16.70
-16.55
-15.85
-14.59
-12.86
-10.77
-8.46
-6.00
-3.46
-0.84
1.79
4.34
6.64
8.56
10.01
11.06
11.81
12.42
12.92
13.32
13.54
13.51
13.23
12.75
12.16
11.58
11.07
10.70
10.45
10.30
10.13
9.84
9.32
8.55
7.58
6.52
5.48
4.51
3.62
2.79
1.98
1.21
0.50
-0.16
-0.81
-1.52
-2.36
-3.33
-4.33
-5.26
-6.03
-6.63
-7.14
-7.67
-8.28
-9.03
-9.91
-10.90
-11.97
-13.08
-14.11
-14.92
-15.32
-15.21
-14.55
-13.40
-11.82
-9.89
-7.65
-5.15
-2.46
0.29
2.95
5.38
7.48
9.20
10.52
11.43
11.99
12.27
12.40
12.49
12.54
12.53
12.33
11.92
11.34
10.73
10.23
9.94
9.77
9.56
9.12
8.39
7.45
6.47
5.63
4.99
4.46
3.91
3.21
2.31
1.29
0.24
-0.73
-1.59
-2.35
-3.04
-3.67
-4.25
-4.84
-5.49
-6.26
-7.19
-8.25
-9.33
-10.34
-11.19
-11.91
-12.62
-13.44
-14.44
-15.64
-16.90
-18.03
-18.80
-19.03
-18.60
-17.51
-15.84
-13.74
-11.37
-8.86
-6.29
-3.67
-1.04
1.52
3.91
6.00
7.72
9.06
10.09
10.92
11.62
12.25
12.83
13.34
13.75
14.04
14.18
14.13
13.85
13.35
12.66
11.88
11.11
10.42
9.85
9.39
9.03
8.74
8.50
8.27
7.99
7.60
7.05
6.31
5.41
4.40
3.37
2.39
1.49
0.69
-0.07
-0.81
-1.60
-2.49
-3.48
-4.54
-5.65
-6.75
-7.86
-9.01
-10.25
-11.55
-12.78
-13.67
-13.93
-13.32
-11.82
-9.60
-6.97
-4.25
-1.68
0.64
2.73
4.61
6.25
7.60
8.61
9.30
9.74
10.03
10.21
10.22
9.98
9.40
8.53
7.51
6.55
5.85
5.52
5.47
5.52
5.44
5.04
4.31
3.38
2.44
1.64
1.02
0.48
-0.07
-0.69
-1.35
-1.94
-2.39
-2.74
-3.06
-3.50
-4.12
-4.88
-5.66
-6.34
-6.88
-7.33
-7.82
-8.46
-9.29
-10.27
-11.26
-12.15
-12.86
-13.42
-13.90
-14.37
-14.79
-15.03
-14.92
-14.28
-13.08
-11.38
-9.32
-7.04
-4.63
-2.12
0.51
3.16
5.70
7.92
9.63
10.77
11.39
11.65
11.72
11.71
11.67
11.56
11.35
11.04
10.66
10.22
9.75
9.22
8.62
7.92
7.15
6.32
5.48
4.63
3.79
2.98
2.19
1.42
0.63
-0.23
-1.22
-2.34
-3.51
-4.67
-5.73
-6.69
-7.54
-8.36
-9.15
-9.93
-10.70
-11.48
-12.23
-12.89
-13.32
-13.37
-12.93
-11.97
-10.59
-8.88
-6.93
-4.74
-2.31
0.31
2.97
5.42
7.47
8.99
10.03
10.72
11.24
11.71
12.16
12.56
12.82
12.83
12.54
11.90
10.97
9.84
8.64
7.50
6.49
5.66
5.01
4.49
4.05
3.61
3.08
2.40
1.54
0.56
-0.46
-1.41
-2.20
-2.79
-3.21
-3.54
-3.93
-4.48
-5.27
-6.28
-7.38
-8.34
-8.99
-9.26
-9.27
-9.27
-9.52
-10.16
-11.15
-12.32
-13.48
-14.57
-15.58
-16.57
-17.48
-18.17
-18.38
-17.94
-16.75
-14.93
-12.63
-10.02
-7.20
-4.23
-1.16
1.89
4.80
7.41
9.59
11.28
12.51
13.37
14.00
14.52
15.03
15.51
15.85
15.95
15.73
15.26
14.69
14.20
13.87
13.62
13.28
12.67
11.73
10.53
9.25
8.05
7.02
6.13
5.33
4.50
3.58
2.56
1.46
0.32
-0.81
-1.91
-2.96
-3.95
-4.93
-5.90
-6.87
-7.79
-8.64
-9.42
-10.16
-10.94
-11.79
-12.74
-13.77
-14.86
-15.96
-17.04
-18.04
-18.89
-19.45
-19.61
-19.26
-18.36
-16.92
-14.95
-12.48
-9.55
-6.26
-2.74
0.79
4.16
7.21
9.85
12.02
13.71
14.91
15.65
15.97
15.99
15.82
15.55
15.21
14.80
14.28
13.69
13.09
12.54
12.11
11.79
11.54
11.31
11.04
10.68
10.21
9.61
8.87
7.99
7.01
5.94
4.84
3.76
2.73
1.77
0.88
0.03
-0.87
-1.88
-3.05
-4.33
-5.62
-6.77
-7.69
-8.43
-9.12
-9.93
-10.96
-12.22
-13.59
-14.88
-15.90
-16.49
-16.53
-15.93
-14.66
-12.75
-10.36
-7.70
-4.98
-2.37
0.09
2.40
4.57
6.56
8.25
9.52
10.31
10.64
10.66
10.56
10.50
10.57
10.75
10.94
11.03
10.96
10.72
10.35
9.90
9.40
8.89
8.38
7.88
7.36
6.79
6.15
5.40
4.57
3.70
2.85
2.06
1.31
0.55
-0.28
-1.17
-2.09
-3.01
-3.91
-4.80
-5.73
-6.71
-7.69
-8.61
-9.36
-9.90
-10.27
-10.58
-10.99
-11.61
-12.47
-13.50
-14.61
-15.69
-16.68
-17.52
-18.16
-18.43
-18.19
-17.29
-15.69
-13.48
-10.85
-8.00
-5.09
-2.20
0.64
3.39
5.97
8.21
10.00
11.25
12.01
12.40
12.58
12.66
12.69
12.64
12.50
12.27
12.02
11.87
11.88
12.00
12.10
11.96
11.47
10.62
9.57
8.52
7.64
6.99
6.51
6.06
5.53
4.85
4.04
3.15
2.21
1.23
0.22
-0.80
-1.75
-2.59
-3.33
-4.02
-4.80
-5.77
-6.97
-8.32
-9.66
-10.82
-11.71
-12.37
-12.95
-13.65
-14.64
-15.96
-17.49
-18.99
-20.17
-20.79
-20.69
-19.82
-18.22
-15.98
-13.23
-10.13
-6.82
-3.45
-0.15
2.95
5.77
8.22
10.25
11.82
12.98
13.79
14.33
14.63
14.66
14.41
13.91
13.29
12.70
12.27
12.02
11.86
11.68
11.40
11.02
10.63
10.25
9.90
9.49
8.98
8.34
7.65
6.91
6.12
5.20
4.07
2.74
1.34
0.06
-0.95
-1.66
-2.19
-2.72
-3.43
-4.39
-5.54
-6.76
-7.91
-8.93
-9.82
-10.64
-11.46
-12.33
-13.29
-14.33
-15.41
-16.49
-17.44
-18.14
-18.42
-18.13
-17.15
-15.49
-13.25
-10.62
-7.81
-4.96
-2.14
0.66
3.40
6.00
8.31
10.16
11.47
12.24
12.59
12.68
12.67
12.64
12.60
12.53
12.43
12.30
12.16
12.01
11.85
11.65
11.38
10.99
10.43
9.69
8.80
7.85
6.91
6.04
5.22
4.37
3.42
2.32
1.14
0.01
-0.96
-1.71
-2.29
-2.83
-3.51
-4.40
-5.51
-6.71
-7.87
-8.87
-9.69
-10.38
-11.01
-11.68
-12.45
-13.33
-14.31
-15.29
-16.14
-16.65
-16.63
-15.92
-14.47
-12.38
-9.84
-7.09
-4.31
-1.59
1.04
3.55
5.88
7.93
9.58
10.71
11.32
11.49
11.38
11.18
11.03
10.96
10.97
10.98
10.93
10.82
10.67
10.48
10.22
9.85
9.31
8.62
7.84
7.09
6.46
5.99
5.63
5.23
4.69
3.94
3.00
1.94
0.86
-0.18
-1.12
-1.96
-2.68
-3.28
-3.79
-4.28
-4.82
-5.52
-6.43
-7.55
-8.77
-9.96
-10.98
-11.73
-12.23
-12.56
-12.87
-13.29
-13.89
-14.60
-15.20
-15.43
-15.01
-13.80
-11.87
-9.42
-6.76
-4.11
-1.56
0.90
3.30
5.62
7.71
9.39
10.50
11.07
11.25
11.29
11.38
11.58
11.85
12.02
11.98
11.70
11.23
10.69
10.20
9.77
9.34
8.82
8.13
7.26
6.30
5.39
4.65
4.09
3.66
3.27
2.81
2.25
1.61
0.92
0.21
-0.52
-1.25
-1.96
-2.62
-3.22
-3.80
-4.42
-5.15
-5.99
-6.87
-7.66
-8.24
-8.53
-8.59
-8.58
-8.66
-9.01
-9.65
-10.53
-11.50
-12.32
-12.77
-12.66
-11.90
-10.52
-8.67
-6.56
-4.43
-2.43
-0.63
1.02
2.59
4.13
5.62
6.94
8.00
8.70
9.06
9.14
9.04
8.86
8.68
8.53
8.41
8.28
8.11
7.87
7.55
7.16
6.72
6.18
5.53
4.79
4.00
3.29
2.75
2.43
2.24
2.03
1.65
1.03
0.22
-0.60
-1.32
-1.86
-2.25
-2.58
-2.89
-3.22
-3.58
-3.95
-4.37
-4.85
-5.40
-5.98
-6.53
-7.01
-7.47
-7.99
-8.70
-9.63
-10.73
-11.84
-12.73
-13.23
-13.23
-12.75
-11.86
-10.64
-9.19
-7.56
-5.84
-4.10
-2.41
-0.76
0.91
2.68
4.57
6.49
8.25
9.60
10.38
10.58
10.35
9.95
9.61
9.43
9.39
9.38
9.28
9.01
8.56
7.96
7.27
6.58
5.93
5.37
4.88
4.42
3.93
3.40
2.85
2.38
2.07
1.90
1.79
1.59
1.20
0.64
0.05
-0.37
-0.49
-0.37
-0.19
-0.20
-0.56
-1.22
-2.00
-2.64
-2.95
-2.97
-2.88
-2.96
-3.36
-4.01
-4.62
-4.78
-4.20
-2.83
-0.89
1.27
3.36
5.26
7.07
8.94
10.97
13.05
14.94
16.35
17.12
17.30
17.06
16.65
16.20
15.78
15.37
14.97
14.64
14.44
14.41
14.49
14.50
14.25
13.57
12.49
11.16
9.82
8.66
7.78
7.14
6.61
6.07
5.42
4.63
3.67
2.53
1.18
-0.38
-2.12
-3.97
-5.83
-7.67
-9.50
-11.37
-13.27
-15.13
-16.81
-18.13
-18.98
-19.36
-19.36
-19.14
-18.85
-18.59
-18.42
-18.35
-18.35
-18.38
-18.35
-18.15
-17.64
-16.75
-15.44
-13.80
-11.97
-10.15
-8.50
-7.14
-6.07
-5.28
-4.69
-4.23
-3.88
-3.60
-3.35
-3.10
-2.79
-2.39
-1.92
-1.47
-1.13
-0.98
-1.04
-1.23
-1.46
-1.62
-1.66
-1.59
-1.40
-1.12
-0.75
-0.31
0.12
0.48
0.67
0.67
0.48
0.19
-0.15
-0.45
-0.71
-0.92
-1.13
-1.38
-1.71
-2.11
-2.56
-2.98
-3.33
-3.62
-3.90
-4.28
-4.87
-5.65
-6.53
-7.30
-7.74
-7.69
-7.12
-6.13
-4.89
-3.61
-2.42
-1.34
-0.28
0.86
2.13
3.49
4.75
5.75
6.34
6.53
6.44
6.24
6.09
6.03
6.06
6.12
6.17
6.26
6.42
6.70
7.08
7.49
7.81
7.94
7.87
7.64
7.36
7.11
6.89
6.64
6.27
5.71
4.90
3.88
2.72
1.52
0.38
-0.65
-1.56
-2.39
-3.19
-4.00
-4.79
-5.47
-5.98
-6.31
-6.50
-6.65
-6.82
-7.01
-7.19
-7.34
-7.51
-7.77
-8.13
-8.52
-8.75
-8.64
-8.08
-7.11
-5.90
-4.65
-3.57
-2.72
-2.12
-1.69
-1.34
-0.97
-0.54
0.00
0.63
1.29
1.96
2.61
3.21
3.71
4.05
4.15
4.00
3.69
3.38
3.24
3.34
3.57
3.75
3.69
3.34
2.79
2.23
1.81
1.60
1.50
1.42
1.28
1.10
0.92
0.79
0.68
0.51
0.20
-0.26
-0.82
-1.37
-1.83
-2.15
-2.33
-2.42
-2.44
-2.45
-2.48
-2.64
-3.00
-3.56
-4.27
-4.96
-5.42
-5.46
-5.03
-4.17
-3.04
-1.85
-0.74
0.23
1.09
1.92
2.78
3.66
4.50
5.24
5.82
6.23
6.49
6.61
6.61
6.49
6.24
5.89
5.48
5.05
4.64
4.26
3.90
3.57
3.26
2.97
2.70
2.37
1.93
1.37
0.72
0.13
-0.27
-0.38
-0.25
-0.00
0.20
0.23
0.05
-0.30
-0.76
-1.30
-1.91
-2.62
-3.39
-4.17
-4.91
-5.54
-6.08
-6.53
-6.93
-7.30
-7.72
-8.29
-9.19
-10.64
-12.83
-15.78
-19.37
-23.22
-26.80
-29.53
-30.87
-30.57
-28.62
-25.32
-21.10
-16.42
-11.61
-6.90
-2.43
1.63
5.11
7.84
9.75
10.92
11.58
12.01
12.45
12.98
13.56
14.06
14.34
14.37
14.15
13.78
13.33
12.85
12.33
11.77
11.20
10.66
10.24
9.94
9.73
9.50
9.15
8.61
7.88
7.03
6.12
5.20
4.26
3.32
2.40
1.54
0.77
0.09
-0.56
-1.25
-2.03
-2.92
-3.85
-4.74
-5.48
-5.98
-6.15
-5.94
-5.30
-4.28
-2.98
-1.55
-0.16
1.09
2.17
3.11
3.97
4.79
5.52
6.10
6.45
6.53
6.41
6.16
5.92
5.79
5.82
5.96
6.14
6.26
6.21
5.98
5.57
5.04
4.44
3.84
3.27
2.78
2.36
2.02
1.71
1.37
0.90
0.24
-0.64
-1.69
-2.77
-3.76
-4.55
-5.11
-5.53
-5.90
-6.30
-6.78
-7.30
-7.82
-8.34
-8.89
-9.52
-10.22
-10.90
-11.35
-11.33
-10.69
-9.40
-7.64
-5.65
-3.69
-1.93
-0.34
1.16
2.69
4.28
5.83
7.17
8.12
8.63
8.79
8.76
8.68
8.61
8.47
8.19
7.73
7.16
6.64
6.31
6.20
6.23
6.21
5.95
5.36
4.50
3.55
2.75
2.24
2.06
2.07
2.12
2.01
1.66
1.10
0.44
-0.19
-0.72
-1.19
-1.67
-2.19
-2.75
-3.28
-3.72
-4.05
-4.35
-4.71
-5.19
-5.71
-6.09
-6.06
-5.43
-4.17
-2.46
-0.61
1.06
2.35
3.21
3.74
4.06
4.25
4.29
4.09
3.64
3.00
2.36
1.94
1.86
2.08
2.45
2.73
2.80
2.64
2.38
2.14
2.04
2.06
2.12
2.10
1.96
1.70
1.37
1.05
0.77
0.50
0.18
-0.22
-0.71
-1.24
-1.74
-2.17
-2.56
-2.98
-3.51
-4.18
-4.96
-5.77
-6.55
-7.28
-8.01
-8.77
-9.59
-10.42
-11.21
-11.89
-12.37
-12.54
-12.31
-11.57
-10.31
-8.63
-6.70
-4.69
-2.72
-0.77
1.22
3.32
5.46
7.44
8.99
9.91
10.17
9.95
9.55
9.26
9.22
9.42
9.66
9.76
9.62
9.26
8.84
8.46
8.20
7.99
7.71
7.22
6.49
5.57
4.56
3.60
2.78
2.11
1.55
1.03
0.46
-0.21
-0.99
-1.87
-2.77
-3.60
-4.28
-4.76
-5.08
-5.35
-5.71
-6.26
-7.05
-7.97
-8.84
-9.49
-9.76
-9.59
-8.96
-7.91
-6.48
-4.73
-2.76
-0.69
1.34
3.24
4.97
6.49
7.77
8.76
9.38
9.61
9.49
9.13
8.69
8.26
7.89
7.51
7.07
6.52
5.87
5.18
4.51
3.93
3.44
3.06
2.75
2.44
2.06
1.56
0.93
0.18
-0.61
-1.41
-2.17
-2.87
-3.51
-4.07
-4.54
-4.94
-5.30
-5.70
-6.19
-6.78
-7.41
-8.01
-8.48
-8.82
-9.13
-9.53
-10.15
-11.01
-12.04
-13.03
-13.74
-13.96
-13.52
-12.37
-10.58
-8.36
-5.97
-3.70
-1.78
-0.26
0.96
2.06
3.24
4.56
5.91
7.10
7.95
8.44
8.68
8.83
9.05
9.36
9.68
9.87
9.85
9.59
9.15
8.60
8.02
7.46
6.94
6.43
5.91
5.33
4.65
3.91
3.16
2.49
1.96
1.52
1.06
0.44
-0.45
-1.57
-2.80
-3.92
-4.77
-5.30
-5.64
-5.99
-6.57
-7.48
-8.68
-9.99
-11.26
-12.38
-13.28
-13.90
-14.14
-13.82
-12.84
-11.23
-9.17
-6.95
-4.77
-2.73
-0.75
1.30
3.46
5.61
7.53
8.99
9.87
10.23
10.23
10.08
9.93
9.83
9.78
9.73
9.60
9.36
9.00
8.58
8.13
7.71
7.30
6.83
6.22
5.42
4.45
3.37
2.24
1.09
-0.12
-1.43
-2.83
-4.24
-5.53
-6.59
-7.41
-8.09
-8.78
-9.63
-10.68
-11.91
-13.23
-14.51
-15.61
-16.34
-16.51
-15.96
-14.65
-12.67
-10.26
-7.63
-4.94
-2.31
0.26
2.70
4.95
6.90
8.43
9.50
10.14
10.45
10.57
10.62
10.70
10.82
10.97
11.06
11.00
10.72
10.22
9.56
8.79
8.01
7.24
6.54
5.88
5.23
4.53
3.72
2.73
1.63
0.48
-0.61
-1.58
-2.45
-3.29
-4.20
-5.24
-6.44
-7.77
-9.20
-10.63
-11.96
-13.00
-13.53
-13.39
-12.52
-10.97
-8.93
-6.58
-4.09
-1.59
0.83
3.07
5.06
6.74
8.09
9.08
9.73
10.07
10.13
9.97
9.66
9.29
8.92
8.60
8.31
8.05
7.79
7.52
7.24
6.92
6.54
6.01
5.29
4.36
3.27
2.15
1.14
0.37
-0.15
-0.51
-0.88
-1.43
-2.20
-3.16
-4.22
-5.29
-6.33
-7.38
-8.45
-9.52
-10.55
-11.46
-12.26
-13.01
-13.79
-14.64
-15.46
-16.03
-16.11
-15.50
-14.19
-12.29
-10.02
-7.58
-5.07
-2.50
0.17
2.94
5.71
8.29
10.45
12.04
13.01
13.40
13.34
13.00
12.54
12.09
11.76
11.61
11.60
11.66
11.68
11.57
11.31
10.88
10.33
9.64
8.81
7.86
6.85
5.88
5.03
4.31
3.66
2.94
2.07
1.03
-0.07
-1.09
-1.91
-2.50
-2.98
-3.50
-4.19
-5.12
-6.27
-7.56
-8.89
-10.18
-11.32
-12.20
-12.67
-12.61
-11.95
-10.71
-9.00
-6.96
-4.74
-2.48
-0.25
1.88
3.87
5.66
7.20
8.41
9.23
9.69
9.87
9.91
9.97
10.14
10.41
10.67
10.77
10.63
10.25
9.71
9.13
8.57
8.05
7.55
7.03
6.46
5.82
5.13
4.37
3.56
2.68
1.75
0.82
-0.05
-0.79
-1.40
-1.91
-2.41
-2.97
-3.64
-4.41
-5.24
-6.06
-6.86
-7.64
-8.38
-9.07
-9.71
-10.32
-10.96
-11.67
-12.46
-13.26
-13.90
-14.17
-13.88
-12.95
-11.43
-9.45
-7.21
-4.91
-2.72
-0.75
0.91
2.17
2.89
2.92
2.24
0.94
-0.65
-2.13
-3.13
-3.46
-3.19
-2.55
-1.86
-1.37
-1.20
-1.37
-1.80
-2.41
-3.09
-3.72
-4.16
-4.30
-4.05
-3.41
-2.50
-1.54
-0.77
-0.39
-0.45
-0.87
-1.45
-1.96
-2.29
-2.48
-2.69
-3.10
-3.87
-5.00
-6.42
-8.01
-9.69
-11.40
-13.17
-15.04
-17.02
-19.10
-21.17
-23.07
-24.63
-25.70
-26.20
-26.16
-25.72
-25.01
-24.19
-23.35
-22.51
-21.61
-20.56
-19.22
-17.49
-15.27
-12.55
-9.35
-5.77
-1.94
1.99
5.82
9.35
12.36
14.69
16.25
17.08
17.29
17.06
16.54
15.83
14.98
14.01
12.95
11.86
10.84
10.01
9.51
9.38
9.64
10.19
10.88
11.57
12.14
12.57
12.88
13.09
13.20
13.17
12.90
12.37
11.62
10.76
9.90
9.06
8.17
7.10
5.78
4.27
2.80
1.72
1.36
1.95
3.54
6.00
9.12
12.59
16.19
19.72
23.05
26.07
28.68
30.83
32.44
33.54
34.15
34.34
34.18
33.70
32.93
31.80
30.23
28.14
25.46
22.24
18.64
14.95
11.48
8.53
6.23
4.50
3.13
1.86
0.53
-0.89
-2.30
-3.55
-4.56
-5.36
-6.08
-6.88
-7.88
-9.08
-10.36
-11.53
-12.44
-13.04
-13.35
-13.50
-13.62
-13.81
-14.17
-14.71
-15.48
-16.45
-17.54
-18.54
-19.18
-19.15
-18.26
-16.51
-14.10
-11.28
-8.33
-5.40
-2.56
0.19
2.85
5.39
7.74
9.81
11.50
12.69
13.32
13.46
13.26
12.99
12.85
12.92
13.06
13.01
12.47
11.34
9.69
7.81
5.98
4.40
3.10
2.02
1.09
0.26
-0.44
-1.01
-1.48
-1.96
-2.56
-3.32
-4.22
-5.16
-6.05
-6.82
-7.47
-8.02
-8.50
-8.91
-9.27
-9.59
-9.92
-10.29
-10.75
-11.33
-11.98
-12.61
-13.03
-13.01
-12.37
-11.04
-9.08
-6.71
-4.22
-1.84
0.26
2.01
3.39
4.39
5.02
5.33
5.38
5.27
5.11
4.95
4.81
4.71
4.62
4.51
4.31
3.96
3.39
2.63
1.78
0.97
0.29
-0.24
-0.67
-1.08
-1.50
-1.92
-2.32
-2.67
-3.00
-3.35
-3.76
-4.21
-4.65
-5.06
-5.45
-5.87
-6.37
-6.93
-7.49
-7.97
-8.32
-8.55
-8.71
-8.89
-9.15
-9.56
-10.14
-10.92
-11.87
-12.88
-13.78
-14.32
-14.29
-13.57
-12.20
-10.32
-8.16
-5.90
-3.67
-1.50
0.57
2.54
4.33
5.85
7.02
7.81
8.24
8.36
8.23
7.90
7.46
7.01
6.70
6.62
6.78
7.07
7.33
7.40
7.17
6.67
5.99
5.21
4.40
3.60
2.85
2.16
1.54
1.00
0.52
0.09
-0.32
-0.72
-1.15
-1.65
-2.28
-3.05
-3.93
-4.85
-5.71
-6.47
-7.10
-7.67
-8.24
-8.85
-9.53
-10.25
-11.01
-11.74
-12.32
-12.60
-12.41
-11.63
-10.27
-8.40
-6.20
-3.84
-1.47
0.79
2.88
4.75
6.40
7.84
9.11
10.20
11.09
11.68
11.94
11.86
11.55
11.17
10.90
10.78
10.77
10.74
10.53
10.07
9.36
8.47
7.50
6.55
5.68
4.94
4.34
3.84
3.38
2.86
2.26
1.61
0.97
0.39
-0.14
-0.69
-1.30
-1.96
-2.60
-3.13
-3.51
-3.83
-4.20
-4.74
-5.49
-6.39
-7.35
-8.31
-9.27
-10.23
-11.17
-12.04
-12.71
-13.09
-13.16
-12.87
-12.25
-11.27
-9.92
-8.23
-6.29
-4.21
-2.06
0.10
2.26
4.37
6.36
8.07
9.34
10.05
10.20
9.91
9.40
8.87
8.46
8.24
8.17
8.18
8.16
8.04
7.78
7.40
6.94
6.41
5.80
5.11
4.34
3.58
2.92
2.44
2.15
1.94
1.67
1.23
0.63
-0.03
-0.55
-0.83
-0.87
-0.79
-0.77
-0.96
-1.40
-2.06
-2.82
-3.58
-4.27
-4.88
-5.41
-5.91
-6.41
-6.93
-7.52
-8.18
-8.92
-9.72
-10.49
-11.06
-11.25
-10.90
-9.92
-8.36
-6.40
-4.27
-2.21
-0.35
1.27
2.72
4.10
5.46
6.80
8.02
9.00
9.63
9.89
9.83
9.57
9.23
8.88
8.50
8.02
7.35
6.48
5.47
4.46
3.53
2.76
2.08
1.42
0.69
-0.12
-0.93
-1.66
-2.20
-2.55
-2.79
-3.05
-3.45
-4.02
-4.70
-5.32
-5.76
-5.93
-5.88
-5.72
-5.58
-5.54
-5.61
-5.73
-5.86
-6.02
-6.27
-6.69
-7.27
-7.90
-8.43
-8.68
-8.57
-8.06
-7.23
-6.12
-4.81
-3.33
-1.73
-0.11
1.38
2.61
3.50
4.07
4.44
4.71
4.98
5.27
5.54
5.73
5.81
5.79
5.69
5.57
5.41
5.24
5.01
4.73
4.38
4.00
3.64
3.35
3.16
3.07
3.03
2.95
2.76
2.42
1.91
1.31
0.67
0.09
-0.39
-0.75
-1.03
-1.35
-1.76
-2.31
-2.98
-3.70
-4.40
-5.01
-5.50
-5.86
-6.10
-6.22
-6.28
-6.35
-6.57
-7.04
-7.83
-8.84
-9.86
-10.55
-10.64
-10.05
-8.89
-7.42
-5.94
-4.63
-3.45
-2.24
-0.84
0.84
2.67
4.45
5.96
7.11
7.90
8.44
8.82
9.04
9.07
8.85
8.42
7.89
7.46
7.27
7.37
7.65
7.92
7.96
7.69
7.14
6.47
5.82
5.27
4.84
4.49
4.19
3.90
3.60
3.19
2.62
1.82
0.86
-0.14
-1.00
-1.63
-2.04
-2.35
-2.70
-3.12
-3.58
-3.97
-4.25
-4.47
-4.74
-5.18
-5.84
-6.71
-7.69
-8.68
-9.61
-10.42
-11.05
-11.45
-11.52
-11.13
-10.20
-8.68
-6.64
-4.19
-1.47
1.37
4.25
7.11
9.89
12.50
14.73
16.32
17.10
17.02
16.20
14.94
13.56
12.36
11.56
11.25
11.39
11.88
12.59
13.36
14.06
14.58
14.87
14.87
14.60
14.17
13.74
13.56
13.80
14.47
15.32
15.91
15.80
14.80
13.06
11.01
9.15
7.74
6.63
5.41
3.54
0.76
-2.83
-6.79
-10.51
-13.49
-15.40
-16.16
-15.82
-14.58
-12.74
-10.74
-9.10
-8.30
-8.61
-9.98
-11.98
-14.02
-15.55
-16.29
-16.25
-15.75
-15.17
-14.87
-14.98
-15.43
-15.93
-16.15
-15.80
-14.81
-13.32
-11.67
-10.21
-9.18
-8.60
-8.26
-7.82
-7.01
-5.70
-3.97
-2.06
-0.31
0.96
1.44
0.96
-0.46
-2.58
-4.98
-7.16
-8.70
-9.44
-9.40
-8.83
-8.02
-7.23
-6.62
-6.26
-6.07
-5.91
-5.56
-4.82
-3.52
-1.67
0.58
3.00
5.37
7.50
9.22
10.39
10.87
10.61
9.75
8.62
7.65
7.19
7.33
7.86
8.44
8.77
8.71
8.37
7.95
7.62
7.45
7.35
7.15
6.67
5.73
4.22
2.11
-0.56
-3.60
-6.74
-9.58
-11.75
-13.00
-13.24
-12.63
-11.50
-10.29
-9.36
-8.93
-9.02
-9.44
-9.91
-10.15
-9.96
-9.28
-8.18
-6.87
-5.54
-4.39
-3.50
-2.85
-2.31
-1.77
-1.09
-0.26
0.68
1.59
2.30
2.67
2.62
2.20
1.49
0.64
-0.20
-0.93
-1.46
-1.75
-1.75
-1.43
-0.85
-0.11
0.60
1.09
1.24
1.02
0.53
-0.07
-0.59
-0.95
-1.11
-1.11
-1.07
-1.06
-1.14
-1.31
-1.54
-1.80
-2.05
-2.26
-2.39
-2.35
-2.04
-1.41
-0.44
0.81
2.17
3.43
4.43
5.05
5.28
5.19
4.88
4.47
4.08
3.79
3.67
3.72
3.92
4.21
4.46
4.59
4.51
4.20
3.70
3.07
2.41
1.82
1.37
1.09
0.94
0.85
0.72
0.49
0.15
-0.29
-0.74
-1.19
-1.62
-2.11
-2.72
-3.43
-4.16
-4.70
-4.87
-4.60
-3.96
-3.14
-2.34
-1.64
-1.00
-0.28
0.60
1.63
2.68
3.62
4.40
5.11
5.82
6.58
7.25
7.65
7.60
7.07
6.17
5.13
4.18
3.43
2.89
2.50
2.17
1.90
1.69
1.58
1.56
1.57
1.52
1.27
0.76
0.01
-0.84
-1.60
-2.10
-2.29
-2.26
-2.20
-2.30
-2.64
-3.13
-3.61
-3.89
-3.87
-3.59
-3.14
-2.61
-2.02
-1.32
-0.48
0.50
1.51
2.43
3.13
3.57
3.77
3.76
3.58
3.24
2.81
2.36
1.99
1.75
1.60
1.43
1.11
0.57
-0.14
-0.88
-1.51
-1.98
-2.35
-2.70
-3.12
-3.58
-4.04
-4.44
-4.72
-4.88
-4.89
-4.71
-4.37
-3.89
-3.41
-3.05
-2.91
-3.00
-3.22
-3.46
-3.57
-3.48
-3.16
-2.64
-1.95
-1.15
-0.26
0.67
1.65
2.63
3.54
4.25
4.61
4.56
4.13
3.49
2.89
2.52
2.44
2.58
2.75
2.77
2.53
2.06
1.52
1.10
0.93
1.04
1.33
1.61
1.72
1.56
1.13
0.50
-0.21
-0.89
-1.47
-1.90
-2.14
-2.19
-2.07
-1.87
-1.67
-1.59
-1.73
-2.05
-2.49
-2.89
-3.15
-3.19
-3.03
-2.70
-2.25
-1.68
-0.98
-0.14
0.83
1.87
2.89
3.84
4.64
5.24
5.58
5.59
5.21
4.51
3.61
2.72
2.06
1.74
1.75
1.99
2.28
2.51
2.60
2.55
2.37
2.09
1.68
1.16
0.62
0.20
0.05
0.26
0.81
1.49
2.05
2.24
1.98
1.30
0.40
-0.49
-1.18
-1.58
-1.73
-1.74
-1.75
-1.86
-2.10
-2.44
-2.80
-3.10
-3.24
-3.13
-2.68
-1.88
-0.74
0.60
1.95
3.13
3.99
4.46
4.54
4.28
3.72
2.92
1.97
1.00
0.16
-0.45
-0.78
-0.90
-0.93
-1.02
-1.25
-1.60
-1.98
-2.26
-2.35
-2.21
-1.89
-1.50
-1.17
-0.96
-0.91
-0.97
-1.10
-1.24
-1.38
-1.57
-1.83
-2.14
-2.43
-2.58
-2.56
-2.39
-2.24
-2.26
-2.60
-3.20
-3.90
-4.45
-4.70
-4.60
-4.25
-3.80
-3.31
-2.77
-2.14
-1.38
-0.55
0.23
0.85
1.27
1.52
1.70
1.88
2.06
2.24
2.40
2.55
2.69
2.79
2.79
2.61
2.25
1.80
1.42
1.24
1.26
1.40
1.47
1.35
1.00
0.49
-0.09
-0.64
-1.13
-1.52
-1.80
-1.90
-1.83
-1.59
-1.29
-1.04
-0.96
-1.09
-1.43
-1.89
-2.36
-2.73
-2.87
-2.74
-2.38
-1.99
-1.76
-1.88
-2.38
-3.08
-3.71
-3.98
-3.76
-3.14
-2.31
-1.50
-0.82
-0.24
0.39
1.15
2.04
2.91
3.57
3.86
3.79
3.49
3.13
2.88
2.79
2.84
2.94
3.01
3.05
3.04
2.99
2.84
2.55
2.09
1.53
1.00
0.65
0.55
0.64
0.78
0.77
0.51
-0.01
-0.71
-1.44
-2.10
-2.59
-2.90
-3.02
-2.97
-2.79
-2.52
-2.22
-1.91
-1.65
-1.48
-1.48
-1.70
-2.13
-2.63
-3.01
-3.05
-2.65
-1.87
-0.90
0.04
0.77
1.23
1.50
1.65
1.79
1.96
2.19
2.47
2.80
3.16
3.50
3.76
3.86
3.75
3.45
3.07
2.75
2.58
2.52
2.46
2.20
1.69
1.02
0.44
0.22
0.47
1.12
1.87
2.40
2.49
2.12
1.42
0.57
-0.34
-1.26
-2.18
-3.01
-3.59
-3.72
-3.29
-2.36
-1.12
0.16
1.29
2.18
2.80
3.17
3.28
3.12
2.73
2.23
1.81
1.62
1.74
2.11
2.60
3.05
3.36
3.51
3.52
3.44
3.31
3.15
2.93
2.66
2.31
1.90
1.46
1.04
0.67
0.34
0.04
-0.30
-0.69
-1.12
-1.53
-1.87
-2.17
-2.50
-2.95
-3.50
-4.01
-4.25
-3.99
-3.19
-1.98
-0.65
0.50
1.33
1.90
2.37
2.86
3.36
3.74
3.84
3.61
3.11
2.51
1.98
1.59
1.36
1.24
1.18
1.15
1.14
1.11
1.04
0.88
0.63
0.28
-0.16
-0.66
-1.20
-1.73
-2.16
-2.41
-2.45
-2.27
-1.98
-1.70
-1.57
-1.72
-2.21
-3.02
-4.04
-5.06
-5.86
-6.25
-6.17
-5.68
-4.93
-4.08
-3.23
-2.41
-1.59
-0.73
0.15
1.02
1.82
2.52
3.09
3.55
3.86
4.00
3.97
3.81
3.62
3.51
3.53
3.67
3.83
3.88
3.75
3.42
2.97
2.49
2.07
1.78
1.60
1.48
1.34
1.06
0.58
-0.16
-1.08
-2.08
-3.01
-3.77
-4.33
-4.71
-5.00
-5.29
-5.63
-6.04
-6.52
-7.06
-7.60
-8.05
-8.27
-8.10
-7.46
-6.37
-4.97
-3.47
-2.05
-0.85
0.09
0.77
1.21
1.44
1.53
1.59
1.80
2.32
3.21
4.39
5.62
6.62
7.19
7.28
7.01
6.57
6.12
5.73
5.40
5.07
4.74
4.42
4.20
4.07
3.98
3.80
3.41
2.76
1.89
0.92
0.02
-0.68
-1.15
-1.43
-1.67
-2.04
-2.63
-3.40
-4.22
-4.85
-5.12
-4.91
-4.27
-3.30
-2.18
-1.04
0.00
0.92
1.68
2.29
2.74
3.03
3.16
3.17
3.09
3.02
3.01
3.14
3.42
3.80
4.21
4.55
4.73
4.75
4.61
4.39
4.17
4.01
3.92
3.85
3.75
3.58
3.31
2.94
2.49
1.95
1.31
0.56
-0.27
-1.11
-1.87
-2.48
-2.90
-3.17
-3.37
-3.59
-3.93
-4.50
-5.31
-6.33
-7.39
-8.25
-8.69
-8.56
-7.87
-6.73
-5.31
-3.76
-2.20
-0.68
0.73
1.93
2.83
3.35
3.51
3.40
3.19
3.05
3.07
3.27
3.58
3.88
4.05
4.06
3.94
3.80
3.78
3.92
4.17
4.40
4.44
4.21
3.74
3.18
2.72
2.44
2.30
2.16
1.86
1.32
0.62
-0.07
-0.59
-0.90
-1.04
-1.15
-1.35
-1.66
-2.06
-2.51
-2.99
-3.56
-4.26
-5.09
-5.98
-6.80
-7.38
-7.57
-7.28
-6.57
-5.55
-4.44
-3.42
-2.60
-1.95
-1.36
-0.64
0.31
1.49
2.78
3.99
4.96
5.61
5.93
5.98
5.83
5.55
5.19
4.83
4.53
4.38
4.38
4.48
4.55
4.49
4.25
3.90
3.53
3.22
3.00
2.81
2.56
2.20
1.73
1.21
0.70
0.23
-0.18
-0.54
-0.83
-1.06
-1.23
-1.38
-1.61
-1.97
-2.47
-3.03
-3.52
-3.79
-3.81
-3.65
-3.48
-3.50
-3.87
-4.61
-5.65
-6.84
-8.00
-8.93
-9.45
-9.43
-8.80
-7.61
-6.00
-4.24
-2.58
-1.21
-0.16
0.69
1.49
2.33
3.19
3.96
4.48
4.69
4.65
4.48
4.31
4.21
4.13
4.00
3.79
3.53
3.30
3.16
3.08
2.95
2.66
2.13
1.44
0.70
0.05
-0.43
-0.76
-1.02
-1.26
-1.47
-1.59
-1.52
-1.26
-0.88
-0.53
-0.41
-0.66
-1.33
-2.34
-3.52
-4.61
-5.39
-5.70
-5.50
-4.89
-4.12
-3.44
-3.10
-3.20
-3.71
-4.41
-4.99
-5.17
-4.77
-3.80
-2.42
-0.83
0.82
2.46
4.07
5.61
7.03
8.23
9.15
9.80
10.22
10.49
10.61
10.57
10.34
9.92
9.41
8.90
8.45
8.09
7.77
7.43
7.07
6.70
6.40
6.20
6.19
6.42
6.91
7.60
8.32
8.83
8.87
8.28
7.08
5.41
3.55
1.78
0.34
-0.64
-1.19
-1.49
-1.82
-2.51
-3.78
-5.68
-8.03
-10.49
-12.69
-14.32
-15.22
-15.34
-14.74
-13.53
-11.86
-9.90
-7.83
-5.79
-3.85
-2.02
-0.29
1.29
2.58
3.40
3.59
3.08
1.95
0.38
-1.40
-3.19
-4.83
-6.25
-7.45
-8.47
-9.44
-10.51
-11.85
-13.54
-15.53
-17.55
-19.17
-19.96
-19.65
-18.30
-16.30
-14.20
-12.51
-11.47
-11.05
-10.99
-11.01
-10.95
-10.70
-10.21
-9.35
-7.99
-6.03
-3.50
-0.58
2.51
5.61
8.69
11.76
14.79
17.52
19.57
20.56
20.32
18.99
16.99
14.82
12.83
11.15
9.72
8.40
7.13
5.98
5.06
4.46
4.18
4.09
4.07
4.04
4.01
4.06
4.23
4.49
4.74
4.84
4.69
4.26
3.62
2.87
2.13
1.49
1.00
0.66
0.44
0.29
0.15
-0.05
-0.33
-0.68
-1.07
-1.44
-1.69
-1.75
-1.49
-0.88
0.02
1.02
1.88
2.34
2.29
1.76
0.89
-0.15
-1.21
-2.21
-3.09
-3.79
-4.22
-4.32
-4.13
-3.71
-3.16
-2.51
-1.70
-0.67
0.63
2.12
3.62
4.94
5.88
6.38
6.45
6.17
5.67
5.11
4.63
4.34
4.24
4.26
4.28
4.16
3.86
3.39
2.85
2.33
1.89
1.54
1.25
0.97
0.67
0.32
-0.10
-0.54
-0.96
-1.29
-1.50
-1.59
-1.63
-1.69
-1.85
-2.17
-2.67
-3.36
-4.19
-5.09
-6.00
-6.82
-7.48
-7.93
-8.13
-8.07
-7.79
-7.37
-6.89
-6.41
-5.92
-5.37
-4.71
-3.89
-2.95
-1.89
-0.70
0.66
2.24
3.95
5.61
6.94
7.71
7.85
7.51
6.96
6.47
6.24
6.31
6.60
7.00
7.35
7.54
7.44
7.00
6.26
5.33
4.40
3.62
3.02
2.52
2.00
1.33
0.50
-0.41
-1.26
-1.93
-2.39
-2.67
-2.87
-3.09
-3.42
-3.89
-4.51
-5.18
-5.82
-6.34
-6.67
-6.85
-6.95
-7.02
-7.15
-7.36
-7.66
-8.05
-8.50
-8.90
-9.09
-8.87
-8.11
-6.77
-4.92
-2.71
-0.28
2.26
4.83
7.36
9.75
11.88
13.64
14.99
15.90
16.34
16.25
15.54
14.21
12.35
10.21
8.06
6.11
4.42
2.92
1.53
0.25
-0.84
-1.57
-1.88
-1.87
-1.78
-1.84
-2.20
-2.77
-3.36
-3.78
-3.94
-3.92
-3.87
-3.91
-4.02
-4.13
-4.14
-4.04
-3.91
-3.90
-4.12
-4.59
-5.27
-6.04
-6.82
-7.59
-8.37
-9.24
-10.24
-11.37
-12.51
-13.52
-14.21
-14.50
-14.39
-14.02
-13.55
-13.11
-12.75
-12.38
-11.90
-11.27
-10.56
-9.95
-9.63
-9.74
-10.27
-11.10
-12.06
-12.92
-13.44
-13.37
-12.50
-10.70
-8.04
-4.75
-1.22
2.13
4.99
7.27
9.01
10.33
11.32
12.01
12.34
12.32
12.04
11.64
11.26
10.98
10.76
10.50
10.11
9.58
8.93
8.23
7.49
6.67
5.66
4.36
2.73
0.78
-1.38
-3.62
-5.78
-7.72
-9.34
-10.61
-11.57
-12.29
-12.85
-13.25
-13.44
-13.33
-12.84
-11.98
-10.87
-9.72
-8.76
-8.14
-7.83
-7.62
-7.16
-6.09
-4.18
-1.47
1.78
5.15
8.21
10.72
12.60
13.96
14.98
15.80
16.45
16.92
17.14
17.09
16.81
16.44
16.08
15.83
15.68
15.54
15.29
14.82
14.08
13.12
12.03
10.92
9.87
8.93
8.12
7.39
6.67
5.90
5.02
4.04
2.98
1.90
0.80
-0.35
-1.58
-2.92
-4.29
-5.59
-6.70
-7.65
-8.55
-9.62
-10.99
-12.57
-14.07
-15.09
-15.27
-14.52
-12.97
-10.94
-8.76
-6.64
-4.62
-2.62
-0.52
1.70
3.97
6.09
7.88
9.17
9.96
10.34
10.54
10.75
11.09
11.52
11.90
12.08
12.03
11.82
11.61
11.50
11.46
11.34
10.94
10.15
8.98
7.65
6.40
5.45
4.87
4.61
4.50
4.39
4.15
3.73
3.08
2.20
1.10
-0.17
-1.54
-2.94
-4.28
-5.47
-6.46
-7.20
-7.71
-8.06
-8.34
-8.61
-8.82
-8.81
-8.38
-7.40
-5.88
-3.99
-1.99
-0.13
1.47
2.81
3.96
4.96
5.77
6.29
6.45
6.21
5.69
5.05
4.47
4.05
3.80
3.61
3.38
3.05
2.60
2.09
1.62
1.22
0.93
0.72
0.57
0.43
0.25
-0.02
-0.37
-0.75
-1.07
-1.27
-1.33
-1.33
-1.36
-1.50
-1.72
-1.99
-2.23
-2.45
-2.71
-3.10
-3.65
-4.35
-5.10
-5.82
-6.50
-7.19
-7.94
-8.73
-9.53
-10.21
-10.65
-10.74
-10.40
-9.59
-8.30
-6.60
-4.62
-2.53
-0.52
1.30
2.87
4.16
5.19
5.94
6.43
6.68
6.76
6.79
6.84
6.95
7.08
7.17
7.13
6.91
6.50
5.96
5.33
4.65
3.91
3.10
2.19
1.21
0.19
-0.82
-1.76
-2.60
-3.29
-3.78
-4.02
-4.01
-3.79
-3.47
-3.20
-3.07
-3.07
-3.15
-3.19
-3.17
-3.10
-3.07
-3.14
-3.35
-3.66
-4.05
-4.55
-5.19
-6.01
-6.96
-7.87
-8.54
-8.74
-8.38
-7.48
-6.24
-4.87
-3.60
-2.49
-1.51
-0.57
0.45
1.58
2.74
3.78
4.58
5.06
5.27
5.32
5.33
5.41
5.58
5.80
6.05
6.27
6.39
6.35
6.10
5.60
4.87
3.99
3.10
2.34
1.78
1.41
1.13
0.83
0.44
-0.04
-0.56
-1.06
-1.48
-1.82
-2.05
-2.19
-2.26
-2.34
-2.52
-2.89
-3.50
-4.27
-5.08
-5.76
-6.22
-6.44
-6.51
-6.57
-6.74
-7.09
-7.63
-8.32
-9.08
-9.74
-10.12
-10.03
-9.33
-8.02
-6.25
-4.23
-2.21
-0.39
1.13
2.36
3.38
4.26
5.01
5.61
5.98
6.07
5.88
5.54
5.18
4.94
4.84
4.81
4.73
4.49
4.09
3.63
3.21
2.93
2.78
2.68
2.53
2.28
1.94
1.56
1.23
0.99
0.84
0.73
0.59
0.37
0.07
-0.27
-0.59
-0.81
-0.94
-1.04
-1.18
-1.47
-1.98
-2.71
-3.62
-4.60
-5.50
-6.23
-6.73
-7.07
-7.41
-7.88
-8.50
-9.12
-9.48
-9.30
-8.46
-7.03
-5.24
-3.37
-1.58
0.07
1.61
3.06
4.36
5.43
6.19
6.66
6.91
7.09
7.28
7.50
7.69
7.78
7.69
7.39
6.88
6.22
5.46
4.69
3.99
3.40
2.92
2.48
2.01
1.45
0.85
0.32
-0.01
-0.07
0.11
0.36
0.49
0.35
-0.04
-0.55
-1.01
-1.30
-1.46
-1.61
-1.92
-2.49
-3.26
-4.09
-4.85
-5.44
-5.90
-6.33
-6.86
-7.53
-8.30
-8.99
-9.38
-9.30
-8.62
-7.37
-5.70
-3.85
-2.06
-0.53
0.69
1.62
2.41
3.17
3.96
4.79
5.57
6.26
6.85
7.35
7.75
8.03
8.09
7.91
7.51
7.05
6.68
6.52
6.51
6.51
6.29
5.78
4.98
4.07
3.19
2.41
1.72
1.05
0.36
-0.31
-0.85
-1.15
-1.18
-1.01
-0.81
-0.77
-1.02
-1.56
-2.32
-3.15
-3.92
-4.59
-5.16
-5.72
-6.37
-7.14
-8.04
-9.02
-10.00
-10.91
-11.68
-12.21
-12.40
-12.15
-11.39
-10.14
-8.47
-6.50
-4.39
-2.23
-0.13
1.88
3.76
5.48
6.98
8.18
9.07
9.65
10.02
10.25
10.42
10.53
10.52
10.31
9.88
9.25
8.51
7.72
6.96
6.24
5.55
4.90
4.33
3.90
3.64
3.55
3.56
3.59
3.52
3.29
2.88
2.31
1.66
0.98
0.33
-0.27
-0.83
-1.37
-1.91
-2.45
-3.01
-3.57
-4.15
-4.75
-5.39
-6.06
-6.83
-7.74
-8.85
-10.14
-11.50
-12.73
-13.57
-13.79
-13.27
-12.03
-10.24
-8.16
-6.02
-4.03
-2.26
-0.70
0.75
2.16
3.58
4.93
6.11
6.98
7.47
7.62
7.56
7.43
7.35
7.34
7.40
7.49
7.60
7.75
7.94
8.11
8.16
7.99
7.57
6.93
6.19
5.50
4.95
4.57
4.31
4.08
3.80
3.44
2.96
2.33
1.48
0.38
-0.97
-2.51
-4.12
-5.68
-7.10
-8.30
-9.26
-9.93
-10.25
-10.19
-9.75
-9.05
-8.31
-7.79
-7.67
-8.03
-8.74
-9.56
-10.20
-10.40
-9.99
-8.92
-7.30
-5.31
-3.18
-1.10
0.84
2.60
4.24
5.77
7.18
8.39
9.29
9.82
9.97
9.83
9.47
9.00
8.46
7.89
7.33
6.82
6.42
6.17
6.08
6.15
6.32
6.49
6.54
6.35
5.82
4.98
3.92
2.86
1.99
1.44
1.18
1.07
0.92
0.58
0.05
-0.57
-1.15
-1.61
-1.98
-2.40
-3.01
-3.87
-4.92
-5.99
-6.90
-7.57
-8.05
-8.49
-9.07
-9.89
-10.95
-12.10
-13.11
-13.77
-13.91
-13.46
-12.45
-10.96
-9.13
-7.07
-4.86
-2.53
-0.12
2.30
4.59
6.56
8.04
8.96
9.35
9.38
9.23
9.02
8.79
8.50
8.11
7.64
7.14
6.67
6.27
5.90
5.49
4.98
4.36
3.66
2.96
2.33
1.79
1.34
0.97
0.67
0.45
0.27
0.10
-0.13
-0.48
-1.01
-1.66
-2.37
-3.01
-3.50
-3.82
-4.06
-4.36
-4.84
-5.52
-6.34
-7.15
-7.85
-8.43
-8.95
-9.48
-10.07
-10.62
-10.95
-10.85
-10.21
-9.05
-7.52
-5.85
-4.26
-2.92
-1.85
-1.03
-0.37
0.19
0.70
1.13
1.40
1.43
1.12
0.36
-0.87
-2.52
-4.42
-6.28
-7.80
-8.77
-9.20
-9.24
-9.15
-9.15
-9.31
-9.61
-9.91
-10.12
-10.20
-10.17
-10.06
-9.88
-9.61
-9.23
-8.68
-7.92
-6.99
-5.95
-4.94
-4.11
-3.56
-3.32
-3.28
-3.30
-3.24
-3.07
-2.88
-2.87
-3.25
-4.16
-5.57
-7.30
-9.06
-10.54
-11.46
-11.67
-11.15
-9.97
-8.29
-6.23
-3.91
-1.41
1.19
3.80
6.33
8.66
10.75
12.55
14.08
15.38
16.46
17.33
17.99
18.44
18.71
18.81
18.74
18.51
18.13
17.64
17.18
16.82
16.59
16.40
16.09
15.52
14.69
13.75
12.91
12.35
12.10
12.01
11.85
11.45
10.78
9.96
9.20
8.70
8.57
8.86
9.52
10.40
11.29
11.91
11.94
11.16
9.46
6.94
3.79
0.32
-3.20
-6.56
-9.58
-12.08
-13.97
-15.23
-16.00
-16.55
-17.23
-18.32
-19.94
-21.96
-24.06
-25.85
-26.93
-27.00
-25.95
-23.82
-20.78
-17.10
-13.05
-8.93
-4.97
-1.37
1.77
4.34
6.27
7.44
7.75
7.10
5.59
3.52
1.46
0.08
-0.05
1.26
3.69
6.49
8.77
9.84
9.49
7.99
5.88
3.68
1.65
-0.22
-2.19
-4.56
-7.54
-11.23
-15.52
-20.14
-24.60
-28.27
-30.49
-30.77
-29.07
-25.81
-21.81
-17.97
-14.93
-12.83
-11.28
-9.62
-7.18
-3.62
1.01
6.29
11.63
16.48
20.42
23.21
24.78
25.16
24.56
23.32
21.98
21.11
21.17
22.30
24.24
26.41
28.12
28.87
28.54
27.34
25.73
24.09
22.56
21.07
19.43
17.56
15.59
13.79
12.44
11.69
11.50
11.68
12.08
12.60
13.29
14.23
15.48
16.96
18.50
19.80
20.55
20.41
19.11
16.57
13.03
9.07
5.54
3.25
2.76
4.10
6.87
10.34
13.77
16.66
18.88
20.58
22.06
23.51
24.81
25.52
25.06
23.03
19.54
15.34
11.62
9.54
9.67
11.77
14.85
17.75
19.69
20.60
21.13
22.16
24.31
27.64
31.59
35.29
37.96
39.27
39.50
39.40
39.91
41.71
44.81
48.45
51.14
51.19
47.20
38.68
26.16
11.05
-4.91
-20.12
-33.59
-44.95
-54.32
-61.99
-68.31
-73.55
-77.94
-81.68
-84.96
-87.86
-90.39
-92.40
-93.67
-93.87
-92.60
-89.40
-83.90
-75.97
-65.85
-54.22
-42.06
-30.40
-20.06
-11.53
-4.93
-0.15
3.00
4.77
5.41
5.27
4.78
4.42
4.58
5.54
7.32
9.71
12.28
14.47
15.68
15.49
13.87
11.16
8.06
5.28
3.35
2.34
1.93
1.63
1.03
0.01
-1.24
-2.40
-3.21
-3.63
-3.80
-3.95
-4.27
-4.82
-5.54
-6.26
-6.84
-7.13
-7.05
-6.61
-5.85
-4.85
-3.72
-2.55
-1.36
-0.17
0.98
2.03
2.87
3.43
3.75
3.90
4.01
4.13
4.18
4.05
3.61
2.86
1.93
1.00
0.22
-0.38
-0.84
-1.24
-1.60
-1.86
-1.94
-1.81
-1.51
-1.16
-0.90
-0.83
-1.00
-1.36
-1.83
-2.34
-2.83
-3.26
-3.63
-3.90
-4.09
-4.19
-4.22
-4.23
-4.31
-4.58
-5.13
-6.00
-7.07
-8.08
-8.73
-8.80
-8.23
-7.18
-5.92
-4.71
-3.66
-2.72
-1.72
-0.55
0.84
2.31
3.72
4.88
5.69
6.11
6.16
5.91
5.44
4.87
4.34
3.95
3.76
3.78
3.93
4.12
4.26
4.29
4.18
3.92
3.52
3.00
2.41
1.82
1.32
0.96
0.70
0.48
0.18
-0.26
-0.80
-1.38
-1.88
-2.26
-2.53
-2.80
-3.20
-3.85
-4.79
-5.96
-7.26
-8.46
-9.35
-9.74
-9.55
-8.83
-7.73
-6.43
-5.05
-3.63
-2.15
-0.59
0.99
2.52
3.86
4.92
5.66
6.09
6.25
6.17
5.93
5.58
5.20
4.85
4.56
4.31
4.02
3.64
3.12
2.49
1.82
1.19
0.67
0.28
-0.00
-0.23
-0.47
-0.77
-1.17
-1.67
-2.23
-2.76
-3.19
-3.48
-3.65
-3.78
-3.96
-4.29
-4.81
-5.52
-6.35
-7.20
-7.90
-8.25
-8.07
-7.23
-5.80
-3.98
-2.05
-0.28
1.26
2.65
4.07
5.60
7.16
8.48
9.26
9.36
8.85
8.04
7.27
6.80
6.66
6.69
6.68
6.50
6.17
5.77
5.42
5.14
4.91
4.68
4.43
4.21
4.08
4.05
4.07
3.99
3.68
3.04
2.08
0.90
-0.33
-1.46
-2.40
-3.15
-3.78
-4.45
-5.27
-6.30
-7.47
-8.58
-9.38
-9.65
-9.27
-8.25
-6.75
-5.01
-3.23
-1.54
0.04
1.58
3.14
4.71
6.18
7.36
8.11
8.35
8.20
7.87
7.61
7.56
7.73
7.98
8.14
8.07
7.78
7.37
7.03
6.90
6.99
7.19
7.29
7.11
6.57
5.73
4.75
3.81
3.01
2.33
1.67
0.87
-0.17
-1.42
-2.72
-3.88
-4.75
-5.31
-5.68
-6.02
-6.45
-7.02
-7.70
-8.41
-9.13
-9.82
-10.42
-10.79
-10.76
-10.15
-8.94
-7.26
-5.39
-3.60
-2.04
-0.69
0.52
1.68
2.77
3.68
4.29
4.55
4.52
4.34
4.18
4.13
4.20
4.31
4.34
4.24
3.96
3.52
2.98
2.39
1.84
1.38
1.07
0.86
0.70
0.50
0.17
-0.28
-0.83
-1.45
-2.13
-2.90
-3.79
-4.76
-5.72
-6.52
-7.03
-7.25
-7.31
-7.38
-7.64
-8.14
-8.83
-9.60
-10.38
-11.12
-11.77
-12.24
-12.35
-11.85
-10.57
-8.49
-5.82
-2.90
-0.11
2.29
4.21
5.73
7.01
8.14
9.15
9.97
10.58
10.97
11.19
11.27
11.25
11.08
10.69
10.06
9.23
8.30
7.42
6.70
6.15
5.71
5.28
4.77
4.16
3.51
2.88
2.35
1.93
1.60
1.31
1.02
0.72
0.40
0.03
-0.42
-1.00
-1.78
-2.73
-3.79
-4.81
-5.64
-6.19
-6.42
-6.41
-6.30
-6.30
-6.56
-7.20
-8.23
-9.54
-10.89
-11.98
-12.50
-12.23
-11.17
-9.47
-7.40
-5.22
-3.09
-1.03
1.04
3.20
5.48
7.76
9.85
11.52
12.60
13.04
12.91
12.38
11.62
10.80
10.00
9.26
8.52
7.76
6.92
5.95
4.83
3.55
2.18
0.91
-0.01
-0.36
0.02
1.08
2.61
4.26
5.68
6.56
6.72
6.15
4.97
3.44
1.87
0.50
-0.53
-1.26
-1.81
-2.33
-2.90
-3.51
-4.12
-4.67
-5.14
-5.57
-6.00
-6.52
-7.22
-8.17
-9.37
-10.65
-11.74
-12.31
-12.11
-11.12
-9.55
-7.73
-5.96
-4.40
-3.06
-1.83
-0.60
0.65
1.87
2.94
3.81
4.43
4.82
5.00
4.94
4.64
4.15
3.56
3.08
2.89
3.13
3.81
4.78
5.80
6.61
7.01
6.92
6.40
5.62
4.77
4.05
3.54
3.20
2.89
2.53
2.08
1.63
1.26
1.03
0.83
0.54
0.00
-0.80
-1.75
-2.69
-3.46
-4.01
-4.41
-4.82
-5.31
-5.90
-6.51
-7.04
-7.47
-7.82
-8.15
-8.47
-8.69
-8.65
-8.15
-7.09
-5.51
-3.64
-1.76
-0.10
1.22
2.25
3.05
3.69
4.16
4.43
4.49
4.40
4.25
4.14
4.10
4.08
4.03
3.93
3.82
3.75
3.72
3.67
3.49
3.14
2.66
2.14
1.72
1.43
1.23
1.07
0.85
0.59
0.32
0.07
-0.15
-0.37
-0.62
-0.87
-1.10
-1.31
-1.55
-1.91
-2.45
-3.13
-3.84
-4.41
-4.71
-4.74
-4.63
-4.51
-4.50
-4.62
-4.83
-5.10
-5.42
-5.76
-6.05
-6.13
-5.81
-4.96
-3.56
-1.80
0.08
1.79
3.19
4.28
5.14
5.88
6.52
7.04
7.36
7.46
7.37
7.19
6.99
6.81
6.58
6.25
5.82
5.34
4.93
4.65
4.46
4.23
3.84
3.28
2.63
2.02
1.56
1.23
0.96
0.70
0.45
0.28
0.26
0.36
0.45
0.39
0.09
-0.40
-0.95
-1.42
-1.73
-1.93
-2.10
-2.33
-2.64
-3.02
-3.45
-3.93
-4.50
-5.22
-6.05
-6.92
-7.63
-7.98
-7.80
-7.02
-5.71
-4.02
-2.17
-0.38
1.16
2.36
3.16
3.56
3.59
3.29
2.71
1.96
1.19
0.56
0.18
0.06
0.14
0.24
0.24
0.12
-0.03
-0.07
0.10
0.43
0.74
0.81
0.50
-0.14
-0.88
-1.47
-1.73
-1.68
-1.51
-1.44
-1.61
-1.98
-2.39
-2.67
-2.78
-2.79
-2.83
-3.04
-3.43
-3.95
-4.53
-5.15
-5.84
-6.64
-7.47
-8.17
-8.45
-8.10
-7.08
-5.53
-3.78
-2.16
-0.89
-0.01
0.62
1.21
1.87
2.60
3.28
3.79
4.07
4.21
4.37
4.65
5.04
5.37
5.42
5.06
4.30
3.32
2.34
1.55
1.05
0.81
0.73
0.73
0.72
0.66
0.52
0.29
-0.04
-0.46
-0.96
-1.54
-2.21
-3.00
-3.92
-4.93
-5.97
-6.96
-7.83
-8.55
-9.11
-9.55
-9.95
-10.39
-10.96
-11.67
-12.49
-13.28
-13.86
-14.01
-13.56
-12.44
-10.67
-8.43
-5.96
-3.52
-1.27
0.74
2.56
4.29
5.98
7.61
9.10
10.40
11.45
12.29
12.96
13.52
13.94
14.16
14.09
13.72
13.09
12.34
11.61
11.01
10.55
10.16
9.73
9.17
8.42
7.55
6.62
5.70
4.83
3.99
3.13
2.24
1.31
0.38
-0.53
-1.40
-2.23
-2.99
-3.68
-4.34
-5.01
-5.79
-6.72
-7.84
-9.09
-10.41
-11.68
-12.81
-13.68
-14.15
-14.09
-13.42
-12.18
-10.52
-8.66
-6.82
-5.06
-3.34
-1.52
0.48
2.59
4.61
6.31
7.53
8.25
8.66
9.00
9.46
10.07
10.75
11.34
11.71
11.79
11.64
11.33
10.95
10.50
9.96
9.27
8.42
7.46
6.47
5.51
4.63
3.81
2.98
2.08
1.04
-0.17
-1.51
-2.92
-4.31
-5.62
-6.84
-8.01
-9.23
-10.61
-12.18
-13.84
-15.44
-16.76
-17.64
-18.00
-17.84
-17.20
-16.09
-14.54
-12.55
-10.15
-7.41
-4.47
-1.46
1.50
4.28
6.81
9.00
10.80
12.17
13.13
13.71
13.96
13.95
13.78
13.56
13.39
13.34
13.38
13.44
13.38
13.14
12.74
12.23
11.67
11.05
10.29
9.30
8.10
6.81
5.59
4.58
3.77
3.03
2.20
1.14
-0.17
-1.65
-3.22
-4.80
-6.34
-7.84
-9.30
-10.68
-11.99
-13.23
-14.44
-15.69
-17.03
-18.47
-19.91
-21.15
-21.93
-22.01
-21.23
-19.59
-17.24
-14.39
-11.28
-8.10
-4.95
-1.94
0.86
3.31
5.32
6.82
7.83
8.41
8.67
8.71
8.55
8.20
7.69
7.03
6.26
5.40
4.42
3.29
1.99
0.55
-0.97
-2.43
-3.74
-4.84
-5.70
-6.35
-6.79
-7.04
-7.07
-6.90
-6.51
-5.93
-5.11
-4.05
-2.73
-1.25
0.25
1.54
2.37
2.57
2.05
0.85
-0.87
-2.86
-4.78
-6.31
-7.17
-7.20
-6.37
-4.78
-2.61
-0.06
2.69
5.49
8.23
10.81
13.19
15.31
17.15
18.67
19.85
20.68
21.22
21.55
21.78
21.99
22.18
22.25
22.10
21.62
20.81
19.76
18.59
17.44
16.38
15.38
14.39
13.31
12.09
10.71
9.23
7.74
6.39
5.27
4.40
3.68
2.96
2.05
0.85
-0.65
-2.38
-4.20
-6.02
-7.75
-9.40
-10.97
-12.50
-14.04
-15.67
-17.47
-19.44
-21.44
-23.18
-24.26
-24.33
-23.22
-21.02
-18.06
-14.74
-11.40
-8.20
-5.16
-2.20
0.67
3.40
5.81
7.76
9.17
10.09
10.68
11.09
11.44
11.77
12.06
12.25
12.33
12.30
12.18
11.98
11.72
11.40
11.04
10.71
10.43
10.20
9.92
9.49
8.82
7.90
6.85
5.84
4.95
4.21
3.45
2.49
1.18
-0.50
-2.38
-4.19
-5.68
-6.74
-7.44
-8.03
-8.81
-9.99
-11.64
-13.68
-15.93
-18.22
-20.38
-22.24
-23.58
-24.18
-23.81
-22.41
-20.07
-17.04
-13.66
-10.22
-6.94
-3.92
-1.21
1.15
3.12
4.71
5.95
6.92
7.72
8.42
9.03
9.54
9.91
10.13
10.22
10.18
10.05
9.83
9.52
9.15
8.70
8.21
7.67
7.11
6.52
5.94
5.39
4.84
4.24
3.52
2.58
1.40
0.02
-1.48
-2.98
-4.37
-5.60
-6.69
-7.75
-8.86
-10.14
-11.61
-13.23
-14.89
-16.42
-17.61
-18.29
-18.29
-17.56
-16.10
-14.04
-11.55
-8.86
-6.13
-3.42
-0.72
2.02
4.79
7.48
9.92
11.86
13.19
13.94
14.30
14.54
14.89
15.39
15.95
16.31
16.26
15.74
14.89
13.99
13.31
12.96
12.86
12.79
12.50
11.87
10.92
9.77
8.54
7.27
5.94
4.52
3.01
1.51
0.19
-0.81
-1.48
-1.92
-2.32
-2.90
-3.75
-4.86
-6.11
-7.34
-8.42
-9.34
-10.15
-10.97
-11.90
-12.99
-14.25
-15.62
-17.04
-18.39
-19.50
-20.19
-20.27
-19.61
-18.17
-16.05
-13.41
-10.49
-7.45
-4.43
-1.42
1.61
4.67
7.68
10.50
12.90
14.69
15.83
16.45
16.77
17.05
17.45
17.93
18.35
18.55
18.49
18.21
17.86
17.54
17.22
16.78
16.07
15.02
13.67
12.18
10.72
9.38
8.11
6.77
5.22
3.41
1.42
-0.55
-2.29
-3.66
-4.68
-5.50
-6.35
-7.39
-8.69
-10.17
-11.67
-13.02
-14.07
-14.76
-15.13
-15.29
-15.40
-15.61
-16.06
-16.82
-17.82
-18.91
-19.83
-20.30
-20.12
-19.19
-17.55
-15.34
-12.76
-9.94
-6.99
-3.95
-0.90
2.03
4.62
6.71
8.19
9.17
9.86
10.51
11.28
12.13
12.91
13.41
13.48
13.14
12.58
11.99
11.55
11.28
11.09
10.78
10.26
9.53
8.68
7.87
7.13
6.43
5.65
4.73
3.73
2.79
2.04
1.54
1.14
0.63
-0.18
-1.29
-2.61
-3.93
-5.13
-6.20
-7.22
-8.31
-9.56
-11.01
-12.64
-14.36
-16.07
-17.56
-18.63
-19.08
-18.78
-17.74
-16.08
-13.94
-11.47
-8.81
-6.02
-3.19
-0.40
2.26
4.70
6.85
8.65
10.10
11.22
12.07
12.69
13.13
13.42
13.59
13.62
13.54
13.37
13.15
12.93
12.72
12.49
12.19
11.79
11.27
10.63
9.93
9.19
8.41
7.56
6.61
5.58
4.53
3.57
2.81
2.28
1.87
1.42
0.77
-0.19
-1.43
-2.82
-4.20
-5.42
-6.45
-7.32
-8.13
-8.97
-9.92
-10.98
-12.11
-13.20
-14.14
-14.81
-15.05
-14.76
-13.85
-12.30
-10.15
-7.55
-4.67
-1.73
1.08
3.58
5.67
7.33
8.57
9.44
10.01
10.36
10.54
10.60
10.52
10.26
9.79
9.08
8.15
7.07
5.87
4.58
3.23
1.84
0.47
-0.79
-1.85
-2.65
-3.19
-3.56
-3.88
-4.30
-4.87
-5.60
-6.40
-7.17
