1530231486.00
64.000000
-0.00
-0.00
-0.00
-0.00
-0.00
-0.00
-0.00
-0.00
-0.00
-0.00
0.00
0.01
0.01
-0.00
-0.03
-0.05
-0.05
0.00
0.13
0.36
0.66
1.01
1.37
1.72
2.06
2.40
2.79
3.24
3.80
4.42
5.06
5.66
6.20
6.68
7.15
7.68
8.31
9.14
10.09
11.04
11.88
12.56
13.14
13.76
14.65
15.96
17.91
20.32
22.90
25.38
27.58
29.57
31.68
34.32
37.81
42.54
48.15
54.10
59.83
64.97
69.58
74.14
79.34
85.71
93.76
103.00
112.62
121.73
129.77
136.75
143.30
150.75
157.77
166.64
177.95
191.79
206.97
220.57
228.25
225.36
208.53
176.87
132.76
80.05
23.07
-34.94
-92.44
-149.16
-205.23
-260.37
-313.74
-363.87
-409.83
-450.91
-486.50
-515.74
-537.23
-549.22
-549.96
-538.37
-514.21
-478.67
-433.88
-382.45
-327.02
-269.84
-212.63
-156.66
-102.95
-52.37
-5.90
35.58
71.43
101.35
125.50
144.38
158.69
169.15
176.37
180.75
182.57
182.07
179.51
175.23
169.65
163.18
156.15
148.81
141.30
133.69
126.02
118.33
110.69
103.16
95.80
88.68
81.83
75.25
68.95
62.95
57.25
51.86
46.78
42.03
37.59
33.45
29.61
26.07
22.81
19.83
17.11
14.67
12.48
10.54
8.83
7.35
6.07
4.97
4.05
3.27
2.62
2.09
1.65
1.30
1.01
0.79
0.61
0.48
0.37
0.29
0.23
0.18
0.16
0.16
0.17
0.20
0.21
0.19
0.14
0.07
-0.01
-0.07
-0.07
-0.02
0.07
0.17
0.23
0.23
0.16
0.06
-0.04
-0.08
-0.04
0.06
0.18
0.26
0.24
0.12
-0.04
-0.15
-0.12
0.10
0.44
0.78
0.96
0.85
0.48
-0.03
-0.43
-0.49
-0.09
0.66
1.44
1.91
1.79
1.06
-0.02
-0.98
-1.35
-0.89
0.29
1.69
2.71
2.84
1.94
0.34
-1.28
-2.28
-2.15
-0.92
0.93
2.62
3.18
1.67
-2.55
-9.39
-17.57
-24.59
-27.43
-23.84
-13.56
1.03
15.53
25.22
27.06
20.91
9.46
-3.02
-12.48
-16.39
-14.33
-7.47
2.07
12.00
20.37
25.78
27.59
26.04
22.10
17.17
12.58
9.01
6.22
3.41
-0.24
-4.82
-9.36
-12.35
-12.42
-9.10
-3.24
3.25
8.20
10.03
8.30
3.89
-1.28
-4.85
-4.82
-0.42
7.42
16.23
22.89
24.86
21.81
15.28
7.90
2.09
-1.14
-2.13
-1.88
-1.15
0.03
2.17
5.68
10.62
16.52
22.51
27.62
30.90
31.66
29.59
25.03
18.72
11.51
4.53
-1.42
-6.07
-9.40
-11.20
-10.74
-6.95
0.84
12.27
25.76
38.90
49.44
56.22
59.46
60.44
60.64
60.90
61.04
60.19
57.31
51.88
44.14
34.99
25.56
16.83
9.55
4.32
1.70
2.06
5.36
10.99
17.73
24.12
28.79
30.79
29.75
25.80
19.54
11.94
4.27
-2.21
-6.48
-8.09
-7.28
-4.75
-1.25
2.70
6.96
11.45
15.88
19.70
22.39
23.77
24.19
24.22
24.22
23.85
22.28
18.70
13.04
6.26
-0.06
-4.70
-7.62
-10.18
-14.39
-21.72
-32.08
-43.73
-54.03
-60.78
-63.13
-61.85
-58.82
-55.88
-54.12
-53.60
-53.70
-53.82
-53.89
-54.53
-56.66
-60.95
-67.44
-75.31
-83.21
-89.68
-93.67
-94.84
-93.54
-90.55
-86.74
-82.81
-79.13
-75.82
-72.85
-70.17
-67.67
-65.22
-62.53
-59.25
-54.99
-49.52
-42.79
-34.98
-26.40
-17.48
-8.75
-0.87
5.38
9.26
10.33
8.55
4.53
-0.70
-5.69
-8.94
-9.20
-5.93
0.36
8.01
14.58
17.82
16.73
12.19
6.79
3.77
5.57
12.79
24.20
37.43
50.23
61.28
70.40
78.03
84.64
90.38
95.13
98.80
101.59
103.92
106.25
108.71
111.15
113.14
114.27
114.32
113.41
111.95
110.59
109.90
110.21
111.48
113.34
115.31
117.05
118.56
120.13
122.20
125.10
128.91
133.51
138.66
144.08
149.49
154.55
159.03
162.90
166.48
170.34
174.93
180.17
185.17
188.34
187.87
182.33
171.03
154.16
132.53
107.33
79.77
50.97
21.83
-7.06
-35.51
-63.73
-92.41
-122.72
-155.92
-192.67
-231.84
-269.71
-300.31
-317.01
-315.08
-293.85
-257.21
-212.13
-165.93
-123.78
-87.69
-57.26
-31.44
-9.78
7.31
19.42
27.21
32.70
38.54
46.83
58.03
70.72
82.07
88.73
87.94
78.36
60.42
36.19
8.67
-19.31
-46.10
-71.81
-98.27
-128.29
-164.34
-207.09
-254.74
-303.01
-346.20
-378.76
-396.65
-398.44
-385.83
-363.22
-336.74
-312.58
-295.17
-286.11
-284.17
-286.54
-290.36
-293.77
-295.96
-296.40
-294.20
-287.80
-275.53
-256.43
-230.78
-199.81
-165.15
-128.28
-90.66
-54.04
-20.53
7.68
29.21
44.17
54.04
60.94
66.71
72.15
76.98
80.42
81.70
80.59
77.57
73.57
69.63
66.47
64.44
63.54
63.76
65.12
67.68
71.36
75.63
79.51
81.70
80.98
76.56
68.41
57.28
44.43
31.23
18.68
7.26
-3.00
-12.20
-20.31
-27.11
-32.35
-36.06
-38.54
-40.35
-41.85
-43.03
-43.36
-42.16
-39.10
-34.57
-29.83
-26.64
-26.83
-31.71
-41.64
-55.84
-72.39
-88.57
-101.37
-108.19
-107.54
-99.52
-85.70
-68.67
-51.09
-34.91
-20.93
-8.90
1.89
12.03
21.63
30.34
37.82
44.07
49.64
55.44
62.30
70.46
79.54
88.69
97.00
103.96
109.57
114.16
118.12
121.61
124.48
126.40
127.12
126.59
125.07
122.97
120.72
118.60
116.68
114.87
112.95
110.64
107.69
103.88
99.02
92.94
85.48
76.58
66.48
55.91
46.08
38.32
33.48
31.27
30.20
27.95
22.34
12.13
-2.35
-19.39
-36.48
-51.03
-60.91
-64.72
-61.91
-52.83
-38.75
-21.72
-4.03
12.60
27.77
42.50
58.73
78.14
101.00
125.64
148.91
167.23
178.11
181.12
178.12
172.60
168.52
169.00
175.42
187.01
200.96
213.00
218.40
213.19
195.42
166.01
128.77
89.50
54.26
27.69
11.63
4.91
4.12
4.90
3.34
-3.16
-15.64
-33.80
-56.32
-81.33
-106.72
-130.40
-150.53
-165.85
-175.85
-181.04
-182.80
-183.02
-183.37
-184.50
-185.58
-184.48
-178.58
-166.01
-146.56
-121.84
-94.77
-68.42
-44.92
-25.06
-8.43
5.97
19.01
30.95
41.46
49.86
55.63
58.72
59.72
59.75
60.13
61.98
65.93
72.03
79.86
88.79
98.20
107.56
116.42
124.45
131.32
136.80
140.88
143.66
145.39
146.24
146.26
145.34
143.29
139.89
134.95
128.32
119.98
110.20
99.71
89.70
81.58
76.61
75.35
77.40
81.45
85.63
88.15
87.83
84.48
79.04
73.42
70.10
71.44
78.97
92.58
110.05
127.09
138.46
139.56
128.26
105.81
76.31
45.11
16.52
-7.65
-28.15
-47.15
-66.64
-87.33
-108.81
-130.42
-152.40
-176.13
-203.50
-235.64
-272.03
-310.22
-346.51
-376.75
-397.16
-404.75
-397.46
-374.36
-336.05
-285.17
-226.45
-166.11
-110.52
-64.64
-30.87
-8.83
3.98
10.87
14.79
17.65
20.31
22.92
25.34
27.34
28.73
29.25
28.80
27.49
25.88
24.92
25.78
29.63
37.19
48.51
62.85
78.79
94.60
108.62
119.60
126.84
130.09
129.53
125.62
119.17
111.21
102.81
94.85
87.77
81.56
75.88
70.36
64.72
58.82
52.62
46.24
40.08
34.96
32.10
32.63
36.95
44.27
52.64
59.53
62.77
61.15
54.71
44.53
32.19
19.23
6.79
-4.60
-14.95
-24.44
-33.11
-40.58
-46.11
-49.03
-49.28
-47.61
-45.32
-43.61
-43.10
-43.78
-45.50
-48.53
-53.76
-62.25
-74.39
-89.29
-104.86
-118.55
-128.54
-134.43
-137.35
-139.35
-142.39
-147.44
-154.05
-160.53
-164.56
-163.94
-157.31
-144.56
-126.63
-105.14
-81.96
-58.88
-37.51
-19.17
-4.93
4.42
8.40
7.10
1.19
-8.02
-18.53
-27.86
-33.30
-32.67
-24.97
-10.81
7.65
27.26
44.73
57.52
64.37
65.38
61.67
54.83
46.45
38.01
30.65
25.27
22.41
22.11
23.90
26.99
30.64
34.35
38.01
41.70
45.64
49.86
54.02
57.41
59.16
58.40
54.75
48.39
40.20
31.63
24.32
19.58
17.99
19.26
22.34
26.07
29.59
32.51
34.70
35.87
35.36
32.36
26.49
18.30
9.29
1.37
-4.02
-6.57
-7.11
-7.10
-7.66
-8.98
-10.41
-11.04
-10.46
-9.13
-8.18
-8.93
-12.26
-18.19
-25.96
-34.29
-41.91
-48.08
-52.65
-55.66
-56.79
-54.98
-48.59
-36.24
-17.67
5.72
30.99
54.51
73.16
85.33
91.26
92.78
92.56
93.22
96.66
103.76
114.28
127.05
140.27
151.85
159.81
162.69
159.88
151.88
140.08
126.53
113.24
101.64
92.25
84.74
78.34
72.16
65.54
58.10
49.65
40.24
30.08
19.58
9.25
-0.59
-9.95
-19.29
-29.26
-40.33
-52.36
-64.46
-75.29
-83.45
-87.99
-88.61
-85.69
-80.09
-72.86
-64.98
-57.31
-50.44
-44.80
-40.68
-38.26
-37.66
-38.83
-41.54
-45.22
-49.09
-52.20
-53.74
-53.28
-50.89
-47.09
-42.69
-38.51
-35.15
-33.02
-32.26
-32.91
-34.95
-38.43
-43.42
-49.94
-57.87
-66.75
-75.74
-83.66
-89.28
-91.68
-90.49
-86.01
-79.02
-70.59
-61.74
-53.30
-45.78
-39.26
-33.32
-27.07
-19.38
-9.18
3.98
19.69
36.64
52.95
66.77
76.92
83.26
86.73
88.86
90.97
93.52
95.68
95.69
91.72
82.77
69.35
53.41
37.58
24.17
14.48
8.61
5.90
5.51
6.91
9.89
14.33
19.77
25.27
29.61
31.71
31.12
28.14
23.66
18.82
14.56
11.40
9.38
8.24
7.65
7.32
6.97
6.34
5.11
3.03
0.02
-3.68
-7.61
-11.18
-13.98
-15.83
-16.94
-17.68
-18.37
-19.06
-19.37
-18.67
-16.34
-12.17
-6.57
-0.60
4.35
6.93
6.27
2.19
-4.92
-14.33
-25.29
-37.17
-49.46
-61.60
-72.99
-83.03
-91.23
-97.40
-101.58
-103.97
-104.78
-104.26
-102.73
-100.61
-98.27
-95.84
-93.29
-90.57
-87.90
-86.00
-85.94
-88.92
-95.80
-106.89
-121.81
-139.54
-158.37
-176.07
-189.96
-197.48
-196.80
-187.40
-170.32
-147.77
-122.29
-95.94
-69.92
-44.62
-20.16
3.14
24.55
43.06
57.83
68.60
75.99
81.38
86.39
92.40
100.03
109.08
118.78
128.14
136.34
142.76
146.99
148.80
148.28
146.00
143.15
141.30
141.72
144.84
149.85
154.90
157.82
156.80
150.94
140.26
125.44
107.49
87.45
66.26
44.63
22.99
1.52
-19.59
-39.87
-58.31
-73.43
-83.65
-87.90
-86.07
-79.06
-68.44
-56.00
-43.29
-31.53
-21.65
-14.33
-10.08
-9.10
-11.04
-15.02
-19.76
-23.91
-26.47
-27.05
-25.88
-23.62
-20.94
-18.33
-15.93
-13.72
-11.62
-9.75
-8.31
-7.48
-7.29
-7.52
-7.81
-7.85
-7.50
-6.82
-5.93
-4.85
-3.44
-1.49
1.07
4.04
6.92
9.07
9.89
8.98
6.20
1.69
-4.12
-10.40
-15.95
-19.40
-19.62
-16.18
-9.52
-0.88
8.26
16.78
24.25
30.97
37.49
44.20
50.94
57.12
61.97
64.99
66.18
66.05
65.33
64.62
64.19
63.90
63.36
62.27
60.58
58.61
56.81
55.59
55.04
54.91
54.65
53.69
51.63
48.52
44.76
41.07
38.14
36.34
35.50
34.90
33.47
30.08
23.97
14.88
3.14
-10.46
-24.83
-38.67
-50.63
-59.50
-64.47
-65.41
-62.94
-58.25
-52.66
-47.11
-41.96
-37.05
-32.02
-26.78
-21.71
-17.53
-14.99
-14.57
-16.26
-19.71
-24.39
-29.78
-35.36
-40.59
-44.79
-47.27
-47.52
-45.41
-41.37
-36.35
-31.57
-28.25
-27.28
-29.07
-33.63
-40.69
-50.01
-61.43
-74.86
-89.99
-106.09
-121.94
-136.00
-146.84
-153.50
-155.73
-154.00
-149.35
-142.99
-136.09
-129.48
-123.37
-117.37
-110.47
-101.47
-89.30
-73.52
-54.45
-33.06
-10.60
11.76
33.32
53.84
73.52
92.72
111.72
130.55
148.94
166.36
182.14
195.59
206.08
213.11
216.34
215.72
211.52
204.35
195.05
184.45
173.20
161.66
149.95
138.11
126.28
114.76
103.97
94.25
85.78
78.39
71.76
65.44
59.13
52.71
46.33
40.36
35.28
31.49
29.06
27.68
26.55
24.55
20.53
13.55
3.30
-9.74
-24.28
-38.49
-50.49
-59.05
-64.06
-66.68
-69.00
-73.15
-80.43
-90.63
-102.02
-112.04
-118.28
-119.30
-114.98
-106.22
-94.31
-80.41
-65.30
-49.63
-34.15
-19.95
-8.05
0.96
7.22
11.55
14.92
17.89
20.35
21.83
21.89
20.61
18.54
16.48
15.03
14.40
14.60
15.65
17.76
21.06
25.26
29.28
31.47
30.21
24.52
14.56
1.41
-13.41
-28.62
-43.38
-57.24
-69.71
-80.01
-87.19
-90.46
-89.71
-85.69
-79.83
-73.62
-68.06
-63.35
-58.97
-54.07
-47.90
-40.18
-31.11
-21.31
-11.56
-2.56
5.20
11.66
17.20
22.68
29.16
37.57
48.39
61.45
76.06
91.31
106.41
120.89
134.57
147.29
158.90
169.30
178.73
187.59
195.96
202.79
205.43
200.04
182.78
151.42
106.29
50.17
-12.67
-77.81
-141.55
-200.86
-252.96
-294.87
-323.70
-337.54
-336.46
-322.82
-300.69
-274.62
-248.27
-223.77
-201.61
-181.13
-161.31
-141.36
-121.03
-100.60
-80.73
-62.09
-45.08
-29.82
-16.18
-4.05
6.55
15.35
22.00
26.27
28.30
28.59
27.81
26.53
24.94
22.87
19.94
15.87
10.61
4.42
-2.30
-9.09
-15.48
-20.85
-24.40
-25.27
-23.01
-18.02
-11.73
-6.20
-3.25
-3.63
-6.74
-11.04
-14.98
-17.74
-19.44
-20.57
-21.38
-21.36
-19.50
-14.88
-7.33
2.30
12.42
21.33
27.81
31.41
32.52
32.12
31.46
31.63
33.22
36.05
39.32
42.01
43.30
43.05
41.71
40.15
39.42
41.01
47.13
60.80
84.97
120.94
166.70
216.66
262.86
297.70
316.51
318.58
306.27
282.83
250.54
210.40
163.32
111.77
60.24
13.99
-23.30
-51.29
-73.19
-93.94
-117.43
-144.35
-171.71
-193.99
-205.82
-204.41
-190.75
-169.23
-145.68
-124.94
-109.19
-97.63
-87.58
-76.22
-61.88
-44.33
-24.21
-2.14
21.75
47.45
74.56
101.93
127.82
150.62
169.50
184.64
196.87
207.07
215.45
221.53
224.09
221.69
212.92
196.92
173.51
143.51
108.81
72.28
37.56
8.33
-12.54
-24.09
-27.84
-27.69
-28.82
-35.96
-51.86
-76.39
-106.76
-138.44
-166.57
-187.20
-198.02
-198.52
-189.69
-173.48
-152.18
-128.16
-103.54
-80.00
-58.62
-39.74
-23.13
-8.16
5.80
18.96
30.92
40.72
47.20
49.59
48.26
45.11
43.12
45.15
52.21
62.00
68.93
65.61
45.35
4.57
-56.03
-131.66
-214.71
-296.31
-367.76
-421.54
-452.34
-457.79
-438.79
-399.18
-344.54
-281.14
-214.84
-150.79
-93.30
-46.02
-11.77
7.73
12.31
3.75
-13.98
-35.04
-52.60
-60.35
-54.15
-33.19
0.13
41.53
86.79
133.52
181.65
232.48
286.86
343.67
399.04
446.93
480.85
495.93
490.47
466.42
428.50
382.53
334.02
287.39
246.02
212.52
188.87
175.94
172.98
177.11
183.67
187.14
182.55
166.84
139.81
104.12
64.44
25.84
-7.98
-35.86
-59.28
-81.28
-104.66
-130.41
-157.13
-181.45
-199.38
-207.76
-205.34
-192.90
-172.87
-148.51
-123.07
-99.24
-78.87
-63.08
-52.45
-47.30
-48.03
-55.09
-68.66
-88.54
-113.82
-142.76
-172.77
-200.65
-222.90
-236.46
-239.48
-231.89
-215.67
-194.56
-173.27
-156.33
-146.58
-144.05
-145.78
-146.70
-141.42
-126.23
-100.31
-65.78
-26.46
13.80
52.35
87.98
120.28
148.67
172.04
189.27
200.33
207.19
213.76
224.62
243.00
269.36
300.59
330.87
353.73
364.40
361.42
346.79
324.65
299.08
272.36
244.31
213.12
176.98
135.48
90.19
43.98
-0.34
-41.12
-78.40
-113.59
-148.49
-184.52
-222.59
-263.51
-308.30
-357.82
-411.72
-467.19
-518.59
-558.58
-580.37
-580.09
-558.10
-518.48
-467.20
-410.12
-351.68
-294.94
-242.06
-194.79
-154.34
-120.87
-93.09
-68.55
-44.53
-19.05
8.43
37.00
64.59
88.88
107.97
120.83
127.51
128.93
126.41
121.12
113.75
104.49
93.52
81.63
70.49
62.33
59.25
62.40
71.50
85.08
101.15
117.85
133.76
147.77
158.82
165.63
167.00
162.18
151.25
135.25
115.75
94.30
71.91
48.95
25.23
0.46
-25.30
-51.27
-75.86
-96.85
-112.02
-119.77
-119.54
-112.04
-98.87
-82.10
-63.73
-45.41
-28.38
-13.45
-1.09
8.53
15.57
20.47
23.88
26.49
28.92
31.52
34.33
37.03
39.13
40.17
39.89
38.43
36.15
33.51
30.87
28.46
26.44
25.01
24.42
24.84
26.17
27.81
28.73
27.68
23.73
16.65
7.18
-3.12
-12.35
-18.87
-21.71
-20.61
-15.77
-7.39
4.52
19.84
38.00
57.54
76.22
91.51
101.50
105.37
103.41
96.60
85.92
72.13
55.97
38.69
22.26
8.96
0.17
-4.57
-7.69
-12.42
-21.08
-33.74
-48.18
-61.35
-71.27
-78.07
-83.60
-89.88
-97.61
-105.68
-111.98
-114.81
-113.94
-110.70
-107.05
-104.51
-103.40
-102.92
-101.63
-98.03
-90.99
-80.10
-65.69
-48.80
-30.88
-13.32
2.83
17.06
29.16
39.02
46.38
50.95
52.70
52.03
49.87
47.38
45.58
45.07
45.83
47.47
49.46
51.40
53.06
54.33
55.07
55.04
53.94
51.49
47.70
42.85
37.54
32.47
28.23
25.10
22.96
21.38
19.67
17.17
13.44
8.53
3.09
-1.71
-4.42
-3.76
0.99
9.72
21.54
34.98
48.40
60.37
69.90
76.55
80.28
81.39
80.33
77.76
74.46
71.32
69.27
68.97
70.66
73.99
78.09
81.88
84.37
84.92
83.40
80.05
75.27
69.34
62.32
54.08
44.40
33.22
20.81
7.70
-5.45
-18.17
-30.32
-42.25
-54.44
-67.12
-79.71
-90.67
-97.88
-99.47
-94.77
-84.64
-71.27
-57.41
-45.49
-37.10
-32.82
-32.40
-34.87
-38.72
-42.00
-42.85
-40.14
-34.08
-26.15
-18.48
-12.81
-9.69
-8.50
-7.91
-6.69
-4.19
-0.28
4.91
11.14
18.13
25.37
32.15
37.72
41.60
43.74
44.42
43.94
42.52
40.39
38.08
36.47
36.66
39.37
44.49
50.94
57.11
61.48
63.26
62.47
59.68
55.58
50.65
45.16
39.39
33.73
28.73
24.92
22.57
21.70
22.08
23.34
25.06
26.75
27.93
28.29
27.83
26.88
25.91
25.24
24.83
24.29
23.08
20.80
17.44
13.39
9.23
5.49
2.52
0.63
0.37
2.56
8.06
17.00
28.03
37.98
42.53
37.90
22.73
-0.85
-27.69
-51.40
-66.66
-70.76
-63.96
-48.69
-28.13
-5.42
16.75
36.04
50.53
59.07
61.66
59.69
55.45
51.28
48.65
47.76
47.66
46.86
43.93
38.04
29.14
17.97
5.62
-6.82
-18.63
-29.48
-39.31
-48.04
-55.38
-60.78
-63.60
-63.50
-60.66
-55.82
-50.01
-44.31
-39.43
-35.76
-33.37
-32.22
-32.30
-33.58
-35.87
-38.75
-41.63
-43.88
-45.09
-45.17
-44.34
-43.03
-41.70
-40.67
-40.14
-40.19
-40.88
-42.20
-44.04
-46.20
-48.36
-50.19
-51.47
-52.23
-52.70
-53.25
-54.09
-55.11
-55.75
-55.17
-52.48
-47.05
-38.81
-28.22
-16.24
-4.04
7.31
17.03
24.80
30.79
35.62
40.07
44.90
50.42
56.45
62.27
66.98
69.87
70.71
69.79
67.81
65.53
63.49
61.79
60.14
58.00
54.82
50.21
44.06
36.53
27.91
18.60
8.95
-0.80
-10.54
-20.34
-30.29
-40.43
-50.56
-59.96
-67.53
-71.91
-71.98
-67.33
-58.47
-46.77
-33.97
-21.71
-11.09
-2.76
3.00
6.06
6.46
4.51
0.94
-3.16
-6.62
-8.48
-8.21
-5.66
-1.02
5.18
11.96
17.85
21.08
20.17
14.60
5.26
-5.77
-15.91
-23.05
-26.25
-25.84
-23.09
-19.55
-16.64
-15.26
-15.84
-18.24
-21.74
-25.10
-26.79
-25.32
-19.56
-8.98
6.07
24.18
43.03
59.77
71.87
77.93
78.23
74.55
69.52
65.44
63.52
63.74
65.27
67.28
69.44
71.88
74.83
78.02
80.58
81.22
78.77
72.59
62.78
50.23
36.33
22.66
10.76
1.69
-4.24
-7.64
-9.88
-12.57
-17.01
-23.63
-32.05
-41.33
-50.56
-58.96
-65.73
-69.81
-69.63
-63.73
-51.34
-32.81
-9.40
17.33
45.90
74.62
100.76
120.13
127.70
119.43
94.30
55.26
8.04
-41.55
-90.39
-138.84
-189.23
-242.78
-297.03
-345.47
-379.83
-393.24
-382.81
-350.00
-299.46
-237.27
-170.35
-106.55
-54.60
-22.54
-14.80
-29.70
-58.88
-89.82
-110.45
-113.57
-98.82
-71.41
-38.75
-6.86
21.37
45.82
67.36
86.29
101.96
113.32
119.97
122.75
123.52
124.28
126.32
129.84
134.05
137.92
140.97
143.30
145.23
146.68
147.03
145.30
140.53
131.64
117.19
95.51
65.78
29.75
-7.24
-37.07
-51.95
-48.14
-28.38
-1.04
23.60
37.99
40.18
33.57
23.85
15.58
10.12
6.22
2.09
-2.65
-6.50
-7.01
-2.54
6.62
18.05
28.27
34.32
34.93
30.90
24.55
18.55
14.79
13.79
14.88
16.87
18.80
20.50
22.36
25.01
28.78
33.41
38.20
42.16
44.41
44.49
42.40
38.56
33.60
28.03
22.19
16.12
9.73
2.96
-4.13
-11.33
-18.39
-25.05
-31.11
-36.30
-40.25
-42.48
-42.54
-40.22
-35.75
-29.74
-22.98
-16.15
-9.70
-3.74
1.75
6.72
10.98
14.16
15.97
16.25
15.17
13.10
10.51
7.76
5.07
2.45
-0.20
-3.03
-6.07
-9.18
-12.09
-14.46
-15.98
-16.57
-16.41
-15.87
-15.28
-14.80
-14.36
-13.69
-12.58
-11.04
-9.32
-7.88
-7.11
-7.25
-8.18
-9.53
-10.74
-11.27
-10.77
-9.12
-6.47
-3.11
0.65
4.64
8.77
13.01
17.23
21.12
24.27
26.31
27.04
26.51
24.94
22.63
19.82
16.55
12.75
8.30
3.16
-2.47
-8.14
-13.28
-17.38
-20.26
-22.08
-23.25
-24.13
-24.84
-25.24
-25.07
-24.28
-23.12
-22.09
-21.66
-22.00
-22.88
-23.80
-24.25
-23.89
-22.53
-20.03
-16.18
-10.66
-3.30
5.72
15.68
25.52
34.23
41.31
46.96
51.86
56.62
61.41
65.78
68.98
70.44
69.93
67.56
63.48
57.64
49.80
39.87
28.24
15.88
4.06
-6.16
-14.34
-20.67
-25.70
-29.94
-33.67
-36.88
-39.45
-41.25
-42.20
-42.26
-41.42
-39.78
-37.58
-35.13
-32.68
-30.15
-27.04
-22.60
-16.02
-6.90
4.57
17.65
31.11
43.50
53.29
59.08
59.85
55.29
46.00
33.45
19.81
7.47
-1.35
-5.16
-3.46
3.08
12.76
23.24
32.34
38.68
42.11
43.50
44.16
45.08
46.51
48.09
49.13
49.16
48.14
46.36
44.21
42.08
40.16
38.47
36.94
35.35
33.52
31.29
28.60
25.49
21.97
18.00
13.45
8.32
2.90
-2.26
-6.52
-9.52
-11.54
-13.55
-16.80
-22.15
-29.38
-37.14
-43.50
-46.94
-46.94
-43.56
-36.56
-24.57
-5.40
22.49
58.16
97.38
133.65
160.79
175.69
179.45
176.27
170.76
165.62
161.01
155.72
149.01
141.61
135.29
131.37
129.55
127.75
123.03
113.02
96.79
74.79
48.22
18.35
-13.57
-45.88
-76.29
-102.14
-121.19
-132.39
-136.26
-134.53
-129.23
-122.07
-114.07
-105.97
-98.61
-93.07
-90.37
-90.79
-93.57
-97.17
-100.15
-101.96
-103.31
-105.76
-110.80
-118.98
-129.49
-140.43
-149.52
-154.84
-155.33
-150.85
-142.03
-129.87
-115.54
-100.14
-84.64
-69.78
-56.03
-43.41
-31.42
-18.99
-4.79
12.28
32.60
55.57
79.81
103.82
126.63
148.01
168.27
187.53
205.23
220.19
231.11
237.50
240.23
241.28
242.96
246.74
252.33
257.61
259.24
253.92
239.64
216.46
186.51
153.10
119.48
87.77
58.49
30.89
3.65
-24.25
-53.52
-84.41
-117.33
-153.04
-192.62
-237.31
-288.54
-347.88
-416.55
-494.18
-577.26
-658.25
-726.47
-770.79
-783.12
-761.15
-708.68
-633.88
-546.37
-454.75
-365.39
-282.39
-207.99
-142.82
-86.03
-35.67
10.26
52.89
92.08
126.86
156.54
181.65
203.68
224.38
244.71
264.25
281.51
294.73
302.53
304.25
299.96
290.21
275.69
256.93
233.98
206.50
174.13
137.12
96.97
56.48
19.11
-12.17
-35.80
-52.10
-62.83
-70.18
-75.73
-79.75
-81.32
-79.04
-71.93
-60.12
-45.08
-29.14
-14.78
-3.71
3.65
8.25
11.84
16.22
22.58
31.19
41.56
52.69
63.18
71.00
73.52
67.83
51.91
25.85
-7.50
-43.04
-75.23
-100.02
-116.23
-125.22
-129.42
-130.58
-129.05
-124.26
-116.05
-105.46
-94.61
-85.46
-78.44
-72.00
-63.16
-49.20
-29.38
-5.72
17.36
34.67
42.11
38.29
25.15
7.40
-8.95
-18.53
-18.48
-9.30
5.51
20.94
32.62
38.41
38.91
36.82
35.38
36.87
41.87
49.36
57.59
64.87
70.01
72.26
71.20
66.58
58.53
47.63
34.91
21.55
8.45
-4.08
-16.24
-28.35
-40.38
-51.63
-60.87
-66.83
-68.80
-67.01
-62.48
-56.64
-50.73
-45.54
-41.39
-38.35
-36.45
-35.69
-35.86
-36.36
-36.41
-35.03
-31.41
-25.22
-16.86
-7.37
2.00
10.20
16.76
21.56
24.90
27.28
29.19
30.95
32.68
34.53
36.79
39.82
43.57
47.79
52.29
56.91
61.18
64.29
65.10
62.55
55.98
44.26
27.44
7.37
-12.65
-29.27
-40.32
-45.09
-44.11
-38.72
-33.05
-30.49
-31.89
-35.28
-37.77
-37.28
-33.06
-25.58
-16.20
-10.69
-13.82
-26.36
-44.58
-63.23
-78.53
-89.13
-96.00
-101.71
-114.59
-141.23
-182.58
-233.36
-286.18
-335.04
-376.04
-406.57
-393.29
-318.12
-191.45
-48.80
75.04
163.40
216.49
243.43
255.51
262.09
263.36
256.55
240.48
217.67
192.49
169.53
153.16
147.03
153.99
170.83
192.22
213.40
231.74
245.87
255.01
258.54
256.21
248.13
232.10
207.03
175.11
142.01
112.70
92.87
85.27
89.24
101.56
116.64
129.24
136.18
136.53
130.35
117.65
97.39
68.31
30.21
-15.34
-64.29
-110.63
-148.16
-172.71
-183.23
-182.08
-173.50
-161.92
-150.97
-143.06
-139.53
-140.78
-146.28
-154.43
-162.96
-169.53
-172.38
-170.90
-165.55
-157.46
-147.92
-138.01
-128.49
-119.92
-112.51
-106.24
-100.76
-95.68
-90.75
-86.00
-81.59
-77.59
-73.95
-70.48
-67.03
-63.60
-60.28
-57.11
-53.78
-49.57
-43.60
-35.12
-23.84
-10.03
5.47
21.58
37.14
51.10
62.73
71.68
77.95
81.91
84.04
84.82
84.66
83.95
83.08
82.41
82.13
82.20
82.31
82.03
81.01
79.16
76.61
73.61
70.37
67.06
63.79
60.69
57.86
55.37
53.15
50.98
48.53
45.51
41.70
37.10
32.03
27.11
23.15
20.99
21.09
23.42
27.38
32.06
36.66
40.70
44.01
46.55
48.14
48.53
47.50
45.19
41.95
38.17
33.90
28.76
22.27
14.59
6.99
1.71
1.18
6.74
17.63
31.02
42.88
49.47
48.67
40.62
27.30
11.51
-4.13
-17.58
-27.23
-31.74
-30.13
-22.51
-10.66
2.10
11.93
16.24
14.75
9.57
3.84
-0.01
-1.51
-2.05
-3.73
-7.85
-14.22
-21.52
-28.29
-33.87
-38.62
-43.36
-48.61
-53.98
-58.11
-59.17
-55.69
-47.12
-34.25
-18.96
-3.61
9.64
19.28
24.42
24.52
19.12
8.03
-8.11
-27.43
-46.78
-62.43
-71.40
-72.57
-67.38
-59.41
-53.05
-51.96
-57.65
-69.15
-83.55
-97.19
-106.86
-110.64
-108.01
-99.39
-85.57
-67.18
-44.71
-18.95
8.69
36.04
60.66
80.50
94.63
103.30
107.50
108.33
106.36
101.47
93.21
81.42
66.61
50.16
33.79
19.00
6.62
-3.33
-11.36
-18.24
-24.64
-31.05
-37.81
-45.27
-53.74
-63.43
-74.21
-85.57
-96.77
-107.05
-115.79
-122.60
-127.26
-129.78
-130.55
-130.33
-129.85
-129.34
-127.82
-123.08
-112.35
-93.66
-67.20
-35.58
-3.07
26.14
49.45
66.42
78.11
85.87
90.49
92.20
91.22
88.47
85.68
84.80
87.11
92.60
99.95
107.17
112.45
114.83
114.28
111.38
106.79
101.06
94.68
88.27
82.76
79.12
77.99
79.23
81.86
84.35
85.18
83.44
79.19
73.29
67.04
61.57
57.52
54.93
53.37
52.18
50.75
48.56
45.21
40.34
33.61
24.80
14.06
2.06
-9.99
-20.63
-28.63
-33.53
-35.87
-37.00
-38.54
-41.73
-46.90
-53.33
-59.68
-64.49
-66.85
-66.61
-64.41
-61.29
-58.29
-56.18
-55.31
-55.75
-57.30
-59.52
-61.69
-62.82
-61.83
-57.88
-50.82
-41.38
-30.98
-21.27
-13.50
-8.06
-4.54
-2.11
-0.03
1.97
3.73
4.80
4.75
3.36
0.59
-3.33
-7.98
-12.60
-16.18
-17.57
-15.81
-10.50
-2.01
8.59
19.73
29.70
37.05
40.76
40.47
36.48
29.63
21.04
11.76
2.50
-6.31
-14.43
-21.40
-26.32
-27.92
-25.01
-16.98
-4.25
11.76
29.05
45.63
60.05
71.62
80.36
86.96
92.72
99.42
108.92
122.44
139.84
159.26
177.35
190.32
195.34
191.73
181.42
168.38
157.23
151.56
152.65
159.16
168.05
176.10
181.38
183.77
184.39
184.43
184.12
182.68
179.12
173.23
165.79
157.95
150.08
141.23
129.52
113.48
93.28
71.12
50.57
35.13
26.86
25.72
29.69
35.34
38.71
36.13
25.18
5.78
-19.21
-44.27
-62.75
-69.18
-61.44
-41.71
-15.52
10.57
31.53
45.57
53.95
59.50
64.65
70.17
75.18
78.02
77.27
72.31
63.17
49.98
32.65
10.77
-15.97
-47.41
-82.68
-120.29
-158.30
-194.80
-228.21
-257.63
-282.98
-305.01
-324.99
-344.43
-365.03
-388.33
-415.16
-444.69
-473.54
-495.75
-504.11
-492.40
-457.78
-402.07
-331.27
-253.63
-177.19
-108.11
-50.00
-4.35
28.84
50.71
63.34
69.65
72.92
76.09
81.07
88.46
97.65
107.12
114.86
118.80
117.37
110.07
97.82
82.83
67.77
54.76
44.41
35.76
26.90
16.27
3.63
-9.67
-21.33
-29.27
-32.71
-32.49
-30.58
-29.01
-29.04
-30.78
-33.59
-36.64
-39.54
-42.37
-45.39
-48.55
-51.25
-52.51
-51.45
-47.86
-42.26
-35.73
-29.26
-23.35
-17.76
-11.70
-4.37
4.76
15.74
28.34
42.32
57.52
73.87
91.13
108.86
126.53
143.83
161.06
178.99
198.31
218.88
239.00
255.50
264.50
262.59
247.79
219.99
180.68
132.69
79.92
27.13
-20.40
-57.81
-81.95
-92.56
-92.41
-86.33
-79.28
-74.59
-73.12
-73.59
-73.87
-72.26
-68.22
-62.24
-55.29
-48.31
-41.95
-36.66
-32.84
-30.85
-30.94
-33.05
-36.72
-41.11
-45.25
-48.36
-50.12
-50.78
-51.10
-52.02
-54.42
-58.81
-65.14
-72.74
-80.35
-86.42
-89.47
-88.64
-83.99
-76.60
-68.22
-60.65
-55.14
-52.05
-50.97
-51.11
-51.76
-52.45
-52.90
-52.78
-51.63
-48.94
-44.38
-37.98
-30.16
-21.63
-13.05
-4.95
2.42
8.98
14.74
19.72
23.88
27.09
29.23
30.12
29.68
27.96
25.22
21.88
18.38
15.04
11.91
8.70
5.05
0.75
-3.97
-8.40
-11.52
-12.41
-10.63
-6.45
-0.77
5.25
10.60
14.64
17.20
18.38
18.41
17.50
15.79
13.42
10.62
7.70
5.07
3.09
2.00
1.83
2.37
3.22
3.92
4.08
3.46
2.05
0.04
-2.26
-4.53
-6.54
-8.19
-9.54
-10.78
-12.10
-13.70
-15.79
-18.49
-21.81
-25.49
-28.90
-31.06
-30.93
-27.80
-21.54
-12.80
-2.78
7.15
15.94
23.01
28.31
32.09
34.69
36.38
37.31
37.65
37.55
37.23
36.98
37.03
37.59
38.72
40.35
42.23
44.07
45.53
46.40
46.58
46.15
45.28
44.11
42.76
41.24
39.47
37.39
34.92
32.01
28.57
24.47
19.63
14.23
8.74
3.93
0.59
-0.88
-0.63
0.55
1.62
1.68
0.36
-2.05
-4.87
-7.35
-8.94
-9.45
-8.96
-7.65
-5.70
-3.30
-0.73
1.65
3.44
4.32
4.17
3.18
1.74
0.31
-0.80
-1.59
-2.26
-3.07
-4.14
-5.30
-6.18
-6.43
-5.93
-4.93
-3.93
-3.53
-4.20
-6.18
-9.36
-13.27
-17.11
-19.83
-20.44
-18.26
-13.23
-6.05
2.09
9.85
16.21
20.69
23.37
24.65
25.03
24.91
24.57
24.19
23.89
23.69
23.58
23.45
23.18
22.63
21.72
20.38
18.56
16.24
13.44
10.25
6.82
3.31
-0.16
-3.57
-6.99
-10.53
-14.23
-18.08
-22.05
-26.19
-30.58
-35.30
-40.26
-44.96
-48.53
-49.82
-47.85
-42.17
-33.21
-22.13
-10.54
0.03
8.60
14.91
19.28
22.28
24.38
25.81
26.58
26.69
26.29
25.69
25.24
25.21
25.56
26.05
26.26
25.77
24.28
21.68
18.06
13.68
8.95
4.29
0.09
-3.35
-5.95
-7.87
-9.56
-11.73
-15.26
-20.92
-28.99
-38.95
-49.42
-58.37
-63.81
-64.44
-60.11
-51.83
-41.41
-30.67
-21.01
-13.11
-7.06
-2.68
0.24
1.81
2.14
1.48
0.26
-0.99
-1.88
-2.25
-2.29
-2.42
-3.11
-4.65
-7.02
-9.85
-12.58
-14.67
-15.75
-15.79
-15.05
-13.89
-12.65
-11.52
-10.58
-9.84
-9.46
-9.74
-11.11
-13.93
-18.23
-23.51
-28.73
-32.58
-33.91
-32.27
-27.98
-22.00
-15.39
-8.87
-2.57
3.73
10.20
16.67
22.57
27.25
30.37
32.12
33.07
33.87
34.93
36.24
37.54
38.56
39.16
39.42
39.38
38.98
37.98
36.02
32.86
28.53
23.34
17.81
12.48
7.74
3.70
0.25
-2.89
-6.08
-9.68
-13.98
-18.99
-24.33
-29.16
-32.33
-32.78
-29.90
-23.91
-15.80
-6.99
1.11
7.58
12.09
14.90
16.44
17.14
17.30
17.11
16.75
16.42
16.30
16.47
16.92
17.56
18.28
19.05
19.82
20.51
20.95
20.91
20.16
18.66
16.58
14.36
12.47
11.34
11.17
11.92
13.37
15.18
16.97
18.36
19.08
19.10
18.80
19.04
21.04
25.91
34.08
44.83
56.35
66.28
72.60
74.40
72.12
67.10
60.79
54.13
47.18
39.51
30.74
21.04
11.30
2.77
-3.42
-6.74
-7.38
-6.06
-3.63
-0.71
2.46
5.93
9.76
13.73
17.31
19.86
20.88
20.27
18.27
15.27
11.51
6.92
1.21
-5.79
-13.89
-22.39
-30.27
-36.53
-40.58
-42.33
-42.21
-40.86
-38.93
-36.88
-34.90
-33.07
-31.38
-29.83
-28.50
-27.53
-27.08
-27.30
-28.27
-29.89
-31.88
-33.90
-35.71
-37.29
-38.92
-41.05
-44.04
-48.00
-52.74
-57.91
-63.26
-68.78
-74.63
-80.95
-87.68
-94.48
-100.97
-107.00
-112.78
-118.73
-125.00
-131.14
-135.88
-137.57
-134.84
-127.33
-115.97
-102.67
-89.61
-78.38
-69.48
-62.39
-55.97
-49.12
-41.19
-32.11
-22.14
-11.72
-1.20
9.11
18.94
28.02
36.17
43.49
50.29
57.04
63.99
70.93
77.18
81.72
83.61
82.28
77.70
70.26
60.48
48.84
35.50
20.44
3.63
-14.70
-33.73
-51.98
-67.40
-77.84
-81.75
-78.75
-69.89
-57.34
-43.64
-30.82
-19.86
-10.61
-2.33
5.68
13.50
20.62
26.24
29.76
31.12
30.75
29.32
27.31
24.89
21.89
18.07
13.34
7.90
2.13
-3.56
-8.85
-13.62
-17.80
-21.35
-24.16
-26.16
-27.51
-28.63
-30.20
-32.95
-37.33
-43.14
-49.44
-54.65
-57.00
-55.12
-48.55
-37.92
-24.79
-11.07
1.62
12.36
21.08
28.24
34.42
39.88
44.52
48.05
50.24
51.15
51.06
50.35
49.28
47.95
46.36
44.53
42.61
40.78
39.18
37.65
35.84
33.32
29.81
25.36
20.35
15.30
10.60
6.39
2.42
-1.72
-6.52
-12.27
-18.92
-25.90
-32.22
-36.63
-37.94
-35.50
-29.38
-20.42
-9.94
0.77
10.81
19.90
28.16
35.84
42.95
49.26
54.38
58.04
60.20
61.12
61.12
60.47
59.29
57.54
55.21
52.38
49.26
46.05
42.86
39.56
35.89
31.53
26.21
19.92
12.93
5.77
-0.91
-6.54
-10.90
-14.14
-16.82
-19.63
-23.21
-27.83
-33.37
-39.27
-44.65
-48.43
-49.58
-47.38
-41.72
-33.14
-22.75
-11.90
-1.73
7.20
14.94
21.97
28.80
35.68
42.41
48.49
53.34
56.64
58.52
59.49
60.26
61.38
63.05
65.03
66.85
68.03
68.33
67.78
66.54
64.73
62.30
59.08
54.93
49.83
44.01
37.79
31.46
25.24
19.27
13.70
8.72
4.43
0.78
-2.59
-6.28
-10.91
-16.86
-23.99
-31.62
-38.60
-43.71
-45.96
-44.92
-40.80
-34.35
-26.66
-18.78
-11.46
-5.06
0.40
5.07
9.02
12.21
14.49
15.72
15.97
15.50
14.68
13.84
13.13
12.52
11.84
10.95
9.85
8.61
7.41
6.38
5.53
4.84
4.20
3.57
2.93
2.32
1.71
1.06
0.20
-1.04
-2.78
-5.07
-7.81
-10.83
-13.92
-16.94
-19.82
-22.64
-25.57
-28.77
-32.37
-36.33
-40.29
-43.50
-44.96
-43.65
-38.96
-30.99
-20.60
-9.21
1.72
11.12
18.59
24.33
28.86
32.62
35.79
38.27
39.87
40.49
40.24
39.43
38.36
37.20
35.97
34.54
32.77
30.65
28.31
25.98
23.83
21.91
20.10
18.10
15.65
12.62
9.10
5.33
1.64
-1.79
-4.95
-8.07
-11.47
-15.35
-19.68
-24.16
-28.36
-31.87
-34.53
-36.47
-38.06
-39.78
-42.05
-45.16
-49.17
-53.90
-58.89
-63.36
-66.25
-66.47
-63.20
-56.31
-46.45
-34.92
-23.18
-12.29
-2.68
5.87
13.92
21.97
30.20
38.54
46.79
54.78
62.41
69.64
76.44
82.83
89.00
95.28
102.06
109.47
117.28
124.93
131.72
137.16
141.16
143.99
146.22
148.54
151.58
155.72
160.69
165.10
166.30
160.79
145.38
118.62
81.74
38.54
-5.92
-47.07
-82.27
-111.10
-134.65
-154.20
-170.39
-183.08
-191.83
-196.58
-197.77
-196.18
-192.32
-186.27
-177.85
-167.04
-154.45
-141.42
-129.60
-120.47
-114.74
-112.26
-112.11
-113.08
-114.09
-114.41
-113.64
-111.51
-107.73
-101.94
-93.85
-83.48
-71.30
-58.13
-45.03
-32.90
-22.38
-13.77
-7.15
-2.52
0.14
0.91
0.03
-2.10
-4.87
-7.56
-9.47
-10.07
-9.13
-6.81
-3.64
-0.35
2.31
3.89
4.23
3.48
1.79
-0.83
-4.54
-9.44
-15.23
-21.02
-25.49
-27.36
-25.95
-21.51
-15.18
-8.38
-2.29
2.61
6.57
10.16
13.84
17.62
21.09
23.72
25.16
25.48
25.11
24.57
24.23
24.15
24.10
23.77
22.99
21.82
20.57
19.57
19.04
18.92
18.93
18.71
18.02
16.88
15.53
14.27
13.23
12.27
11.04
9.19
6.64
3.64
0.65
-1.94
-4.02
-5.80
-7.71
-10.14
-13.29
-17.24
-22.04
-27.73
-34.18
-40.76
-46.30
-49.32
-48.57
-43.72
-35.54
-25.71
-16.03
-7.78
-1.28
3.90
8.48
12.98
17.51
21.94
26.10
30.01
33.86
37.85
41.93
45.83
49.05
51.06
51.48
50.16
47.21
42.91
37.66
31.90
26.14
20.89
16.63
13.75
12.36
12.33
13.16
14.15
14.61
14.05
12.32
9.62
6.32
2.79
-0.71
-4.13
-7.58
-11.31
-15.59
-20.64
-26.52
-33.03
-39.66
-45.49
-49.43
-50.37
-47.66
-41.24
-31.80
-20.57
-8.99
1.67
10.66
17.86
23.63
28.54
33.05
37.27
41.00
43.82
45.44
45.83
45.36
44.67
44.44
45.18
46.95
49.36
51.67
53.06
52.94
51.24
48.41
45.32
42.85
41.59
41.50
41.98
42.09
40.96
38.18
34.04
29.40
25.40
22.89
22.06
22.23
22.12
20.34
15.86
8.43
-1.58
-13.31
-25.54
-36.97
-46.30
-52.65
-55.92
-57.02
-57.72
-59.76
-63.81
-68.71
-71.64
-69.55
-61.13
-48.24
-35.87
-30.44
-36.81
-55.56
-82.17
-108.41
-125.64
-128.20
-115.48
-91.63
-63.11
-35.66
-12.26
6.91
22.92
36.36
46.45
51.70
51.46
47.06
41.70
39.03
41.23
47.95
56.55
63.54
66.37
64.49
59.37
53.54
49.20
47.38
47.80
49.31
50.41
49.82
46.76
40.95
32.66
22.76
12.60
3.87
-1.81
-3.38
-0.64
5.62
13.95
22.67
30.41
36.38
40.37
42.60
43.41
43.08
41.75
39.52
36.56
33.23
30.08
27.64
26.28
26.00
26.51
27.35
28.05
28.34
28.13
27.42
26.27
24.64
22.49
19.78
16.43
12.48
7.94
2.88
-2.57
-8.19
-13.70
-18.86
-23.49
-27.57
-31.09
-34.10
-36.66
-38.92
-41.28
-44.34
-48.81
-55.03
-62.62
-70.26
-76.02
-77.94
-74.87
-66.92
-55.39
-42.29
-29.51
-18.27
-8.91
-1.22
5.20
10.57
14.79
17.74
19.41
20.09
20.28
20.50
21.08
22.12
23.43
24.73
25.75
26.28
26.17
25.35
23.78
21.48
18.61
15.46
12.38
9.67
7.43
5.51
3.60
1.30
-1.65
-5.28
-9.41
-13.74
-18.01
-22.07
-25.95
-29.78
-33.76
-38.15
-43.21
-49.04
-55.44
-61.76
-66.96
-69.81
-69.33
-65.16
-57.72
-48.06
-37.54
-27.29
-18.01
-9.89
-2.81
3.43
8.88
13.54
17.36
20.45
23.07
25.49
27.90
30.30
32.52
34.37
35.75
36.70
37.35
37.83
38.18
38.37
38.36
38.14
37.81
37.54
37.48
37.69
38.11
38.54
38.76
38.53
37.65
36.04
33.78
31.12
28.47
26.18
24.19
21.75
17.49
9.77
-2.60
-19.70
-40.25
-61.90
-81.85
-97.69
-107.91
-111.99
-110.22
-103.39
-92.51
-78.77
-63.42
-47.68
-32.64
-19.11
-7.64
1.34
7.50
10.70
11.11
9.28
6.14
2.75
0.01
-1.60
-1.99
-1.37
0.02
2.01
4.54
7.49
10.53
13.21
15.01
15.63
15.15
13.98
12.73
11.95
11.91
12.47
13.17
13.42
12.71
10.85
7.99
4.50
0.84
-2.66
-5.84
-8.76
-11.66
-14.85
-18.66
-23.29
-28.70
-34.46
-39.74
-43.55
-45.02
-43.71
-39.75
-33.77
-26.61
-18.97
-11.32
-3.91
3.11
9.53
15.16
19.81
23.49
26.34
28.66
30.85
33.24
36.04
39.27
42.70
45.95
48.57
50.21
50.77
50.34
49.14
47.38
45.15
42.45
39.28
35.82
32.38
29.39
27.17
25.81
25.12
24.61
23.77
22.15
19.65
16.48
13.11
10.06
7.75
6.26
5.35
4.61
3.51
1.66
-1.15
-4.76
-8.66
-12.01
-13.81
-13.26
-9.98
-4.17
3.48
12.02
20.65
28.95
36.87
44.55
52.04
59.07
65.15
69.71
72.39
73.21
72.63
71.35
70.20
69.84
70.65
72.64
75.47
78.50
81.01
82.38
82.28
80.84
78.56
76.16
74.31
73.35
73.05
72.69
71.25
67.81
62.04
54.52
46.65
40.19
36.54
36.16
38.40
41.75
44.51
45.27
43.10
37.50
28.50
16.84
4.04
-8.01
-17.92
-25.78
-33.57
-44.42
-61.02
-83.91
-110.79
-137.22
-158.34
-170.59
-172.40
-164.01
-146.76
-122.70
-94.82
-67.20
-44.79
-32.04
-31.18
-41.07
-57.47
-74.72
-88.04
-95.39
-97.72
-97.92
-99.14
-103.48
-111.75
-123.63
-137.97
-152.87
-165.47
-172.18
-169.58
-155.64
-130.69
-97.53
-60.38
-23.44
10.20
38.98
62.45
80.65
93.77
102.07
106.11
106.85
105.43
102.77
99.36
95.18
89.83
82.94
74.42
64.78
55.15
46.91
41.27
38.63
38.36
38.97
38.75
36.54
32.19
26.52
20.80
16.11
12.86
10.74
9.01
7.01
4.57
2.02
-0.06
-1.25
-1.65
-1.72
-2.02
-2.89
-4.25
-5.89
-7.68
-9.77
-12.44
-15.63
-18.75
-20.66
-20.25
-17.06
-11.68
-5.51
-0.09
3.65
5.74
6.99
8.40
10.57
13.38
15.96
17.06
15.47
10.46
2.05
-8.93
-20.96
-32.20
-41.06
-46.60
-48.79
-48.33
-46.30
-43.57
-40.61
-37.41
-33.83
-29.84
-25.80
-22.30
-19.94
-18.99
-19.16
-19.66
-19.47
-17.68
-13.78
-7.90
-0.88
5.85
10.50
11.47
7.91
0.13
-10.28
-20.96
-29.55
-34.46
-35.38
-33.24
-29.69
-26.50
-25.02
-25.95
-29.21
-34.06
-39.21
-43.22
-44.88
-43.75
-40.42
-36.30
-33.09
-32.03
-33.45
-36.66
-40.35
-43.11
-43.87
-42.13
-37.85
-31.36
-23.25
-14.29
-5.38
2.61
9.11
13.89
17.13
19.27
20.79
22.11
23.61
25.66
28.60
32.49
36.99
41.24
44.12
44.64
42.33
37.48
30.98
23.86
16.91
10.47
4.53
-1.04
-6.27
-11.14
-15.64
-19.87
-23.96
-27.87
-31.24
-33.48
-34.03
-32.74
-30.01
-26.71
-23.85
-22.26
-22.28
-23.53
-25.10
-25.70
-24.15
-19.89
-13.18
-5.17
2.64
8.98
13.30
15.94
17.87
20.10
23.20
27.22
31.74
36.23
40.27
43.62
46.15
47.89
48.95
49.60
50.08
50.52
50.81
50.66
49.91
48.73
47.67
47.39
48.22
49.88
51.34
51.28
48.58
42.92
34.89
25.75
16.86
9.16
2.89
-2.34
-7.26
-12.62
-18.91
-26.24
-34.32
-42.51
-49.96
-55.73
-59.05
-59.42
-56.87
-51.90
-45.44
-38.54
-32.08
-26.50
-21.73
-17.43
-13.23
-9.04
-5.13
-2.00
-0.06
0.66
0.56
0.37
0.73
1.97
3.97
6.22
8.14
9.24
9.34
8.47
6.88
4.85
2.68
0.54
-1.51
-3.60
-6.00
-8.95
-12.50
-16.32
-19.80
-22.29
-23.46
-23.48
-23.00
-22.87
-23.81
-26.19
-30.00
-34.97
-40.60
-46.11
-50.39
-52.08
-49.98
-43.57
-33.38
-20.92
-8.16
3.28
12.59
19.85
25.63
30.49
34.69
38.24
41.12
43.57
46.02
48.92
52.44
56.35
60.12
63.20
65.27
66.36
66.79
66.88
66.74
66.06
64.22
60.57
54.79
47.13
38.37
29.46
21.16
13.73
7.00
0.62
-5.57
-11.50
-16.89
-21.57
-25.70
-29.69
-34.03
-39.10
-44.99
-51.59
-58.62
-65.68
-72.17
-77.15
-79.43
-77.85
-71.76
-61.42
-48.10
-33.75
-20.31
-9.06
-0.24
6.74
12.75
18.34
23.46
27.58
30.20
31.27
31.38
31.48
32.45
34.64
37.80
41.16
43.85
45.22
45.00
43.37
40.70
37.43
33.85
30.12
26.28
22.31
18.22
14.00
9.58
4.92
-0.02
-5.09
-10.02
-14.47
-18.20
-21.27
-24.05
-27.12
-31.07
-36.22
-42.44
-49.03
-54.92
-58.85
-59.79
-57.24
-51.38
-43.08
-33.44
-23.42
-13.52
-3.79
5.91
15.57
24.77
32.77
38.82
42.42
43.63
43.00
41.34
39.52
38.19
37.65
37.87
38.60
39.49
40.14
40.22
39.48
37.86
35.47
32.56
29.49
26.64
24.21
22.19
20.21
17.75
14.24
9.39
3.25
-3.72
-10.83
-17.42
-23.02
-27.56
-31.42
-35.30
-39.98
-45.92
-52.97
-60.15
-65.88
-68.40
-66.50
-59.95
-49.52
-36.75
-23.26
-10.26
1.72
12.69
22.94
32.70
42.02
50.80
58.84
65.97
72.06
76.97
80.58
82.67
83.06
81.65
78.55
74.15
69.01
63.69
58.44
53.16
47.45
40.91
33.43
25.19
16.62
8.14
-0.09
-8.14
-16.17
-24.21
-32.15
-39.80
-47.12
-54.25
-61.46
-69.05
-77.18
-85.86
-95.04
-104.55
-114.03
-122.82
-129.95
-134.32
-135.14
-132.25
-126.23
-118.25
-109.72
-101.83
-95.35
-90.61
-87.53
-85.77
-84.60
-82.65
-77.80
-67.41
-49.09
-21.94
12.74
51.50
89.80
123.66
151.01
172.16
189.16
204.59
220.27
236.77
253.45
268.77
280.53
286.00
282.33
267.33
240.66
204.59
163.63
123.11
87.23
57.64
33.24
11.36
-10.43
-33.19
-56.38
-78.65
-98.86
-116.58
-131.77
-144.16
-152.83
-156.40
-153.71
-144.59
-130.15
-112.40
-93.53
-75.18
-58.35
-43.61
-31.62
-23.46
-20.55
-24.16
-34.61
-50.63
-69.12
-85.66
-95.62
-95.77
-85.65
-67.92
-47.60
-30.30
-20.12
-18.25
-22.88
-30.22
-36.06
-37.27
-32.37
-21.60
-6.25
11.51
28.98
43.07
50.96
50.96
43.15
29.32
12.14
-6.00
-23.94
-41.84
-60.32
-79.39
-97.72
-112.67
-121.20
-121.10
-111.87
-94.84
-72.30
-46.30
-17.91
12.49
44.31
75.65
103.02
122.20
130.01
126.06
113.61
98.59
87.66
85.97
95.61
115.44
141.80
169.88
195.21
214.67
226.67
231.00
228.32
219.96
207.44
192.22
175.33
157.49
139.59
122.17
105.47
89.37
74.09
60.28
48.83
40.06
33.76
30.09
29.19
31.51
37.27
46.52
58.44
70.85
80.24
83.41
79.69
70.58
58.79
46.33
33.98
21.33
10.61
4.74
1.40
-0.59
-2.46
-3.49
-6.40
-15.11
-32.71
-59.52
-92.96
-128.17
-159.02
-181.42
-194.31
-200.15
-202.41
-203.94
-205.89
-208.32
-210.73
-211.92
-210.72
-206.02
-197.14
-183.63
-166.03
-146.43
-128.56
-116.27
-111.38
-113.00
-117.98
-123.02
-126.84
-131.50
-141.81
-162.92
-197.15
-241.93
-290.52
-334.60
-367.46
-385.85
-390.17
-383.28
-368.13
-346.61
-319.20
-285.97
-247.59
-205.98
-163.94
-124.36
-89.15
-58.99
-33.54
-12.17
5.60
20.09
31.97
42.90
55.80
74.27
101.46
138.74
184.78
235.54
285.18
327.60
357.91
373.61
375.07
365.20
348.26
328.64
309.55
292.60
278.07
265.62
254.82
245.39
237.01
229.06
220.42
209.46
193.90
170.85
137.14
90.34
30.54
-38.36
-108.54
-170.19
-214.63
-237.23
-238.27
-221.71
-192.38
-153.83
-107.79
-55.34
1.47
58.89
112.23
157.51
192.69
217.81
233.98
242.28
243.30
237.62
226.33
211.10
193.45
174.01
152.56
128.84
103.45
78.13
54.89
34.45
15.34
-6.02
-33.80
-70.85
-117.75
-172.71
-232.33
-292.48
-348.50
-395.16
-426.99
-439.74
-432.14
-407.29
-372.16
-335.25
-303.39
-279.22
-260.55
-241.94
-217.79
-185.42
-146.29
-105.05
-66.99
-35.55
-11.17
7.82
23.06
34.26
39.39
36.53
26.48
13.97
6.52
11.50
32.98
70.30
119.12
173.41
227.44
276.52
316.72
344.63
357.76
355.13
337.78
308.76
272.46
233.65
196.83
165.51
141.71
125.14
112.88
99.95
80.83
51.78
12.84
-31.68
-74.77
-109.59
-132.11
-142.40
-143.97
-141.60
-139.14
-138.13
-137.88
-136.45
-131.98
-123.73
-112.27
-99.08
-86.05
-75.01
-67.45
-64.38
-66.15
-72.39
-82.00
-93.13
-102.99
-107.72
-102.72
-83.84
-49.20
-0.80
54.95
108.70
151.15
176.27
183.20
176.08
161.73
146.68
135.03
127.95
124.64
123.40
122.16
117.98
106.63
83.25
44.50
-8.68
-69.68
-127.45
-170.49
-191.60
-190.88
-175.21
-154.60
-137.33
-126.45
-119.47
-110.74
-94.83
-68.87
-32.99
10.95
60.43
112.67
163.76
207.95
238.23
248.49
236.45
205.74
165.39
126.90
99.85
88.42
90.45
99.27
107.37
109.57
104.55
94.18
81.76
70.10
60.41
52.28
44.36
35.26
24.24
11.51
-2.01
-15.13
-26.93
-37.03
-45.58
-52.70
-58.10
-60.93
-60.08
-54.98
-46.16
-35.29
-24.53
-15.47
-8.30
-1.75
6.10
16.57
29.26
42.03
51.97
56.83
56.32
52.16
46.84
41.80
36.59
29.30
18.29
3.87
-11.56
-24.74
-33.61
-38.51
-41.71
-45.76
-51.74
-58.66
-64.33
-66.99
-66.40
-63.89
-61.35
-60.10
-60.55
-62.54
-66.15
-71.85
-80.17
-91.02
-103.55
-116.50
-128.75
-139.76
-149.41
-157.26
-162.15
-162.38
-156.54
-144.48
-127.57
-107.74
-86.14
-62.49
-35.86
-6.35
23.61
49.66
67.48
75.03
73.59
66.62
57.63
48.42
38.92
28.69
18.70
12.14
13.24
25.15
47.73
77.08
106.63
129.56
141.11
140.04
128.46
110.55
90.55
70.99
52.16
33.15
13.45
-5.73
-21.73
-32.07
-36.18
-35.95
-34.62
-34.79
-36.66
-38.10
-36.15
-29.10
-17.87
-5.65
3.83
8.35
8.32
6.35
5.62
8.00
13.04
18.41
21.32
20.23
15.68
10.03
6.25
6.38
10.60
17.28
23.90
28.22
29.26
27.45
24.20
21.19
19.57
19.60
20.80
22.33
23.57
24.35
24.83
25.19
25.24
24.38
21.90
17.35
10.81
2.77
-6.14
-15.49
-25.03
-34.30
-42.39
-47.79
-48.85
-44.47
-34.75
-21.23
-6.53
6.56
15.96
20.91
21.91
20.15
16.75
12.27
6.67
-0.19
-8.11
-16.24
-23.41
-28.58
-31.37
-32.06
-31.30
-29.68
-27.37
-24.21
-20.00
-14.79
-9.04
-3.55
0.81
3.41
4.00
2.85
0.63
-1.77
-3.56
-4.33
-4.21
-3.86
-4.24
-6.18
-10.08
-15.75
-22.42
-29.02
-34.32
-37.23
-36.98
-33.31
-26.54
-17.56
-7.60
2.10
10.55
17.21
21.94
24.89
26.38
26.80
26.67
26.57
27.06
28.48
30.81
33.69
36.47
38.52
39.39
38.93
37.33
34.94
32.16
29.34
26.68
24.22
21.87
19.51
17.11
14.81
12.82
11.29
10.19
9.23
7.93
5.83
2.70
-1.32
-5.61
-9.24
-11.14
-10.40
-6.53
0.45
9.97
21.02
32.41
42.96
51.69
58.01
61.74
63.13
62.81
61.67
60.74
60.90
62.69
66.01
70.02
73.26
74.10
71.35
64.78
55.36
44.88
35.26
27.87
23.02
20.06
17.77
14.85
10.34
3.75
-4.85
-14.88
-25.30
-34.87
-42.66
-48.49
-53.09
-57.74
-63.52
-70.73
-78.60
-85.72
-90.83
-93.37
-93.65
-92.48
-90.56
-88.01
-84.32
-78.62
-70.20
-58.85
-45.13
-30.20
-15.54
-2.37
8.66
17.69
25.50
33.16
41.67
51.54
62.66
74.19
84.57
91.89
94.28
90.55
80.77
66.51
50.58
36.20
26.09
21.60
22.48
27.09
33.19
38.76
42.63
44.54
44.81
43.72
41.06
36.38
29.63
21.86
15.46
13.49
18.52
31.38
50.59
72.91
94.26
110.65
118.65
115.72
100.61
74.04
39.10
0.80
-35.22
-64.46
-84.93
-97.39
-104.60
-109.84
-115.51
-122.47
-130.02
-136.36
-139.33
-136.98
-128.23
-113.14
-93.05
-70.07
-46.32
-23.29
-1.60
18.66
37.58
55.25
71.73
87.30
102.35
117.10
131.29
144.07
154.29
160.95
163.75
163.40
161.46
159.93
160.62
164.51
171.46
180.28
189.30
197.12
203.16
207.79
211.92
216.32
221.02
225.12
227.15
225.55
219.27
207.97
191.91
171.85
148.83
124.13
99.12
75.07
52.81
32.45
13.50
-4.97
-23.77
-43.32
-63.57
-84.28
-105.41
-127.29
-150.38
-174.84
-200.00
-224.46
-246.59
-265.41
-281.20
-295.32
-309.49
-324.69
-340.58
-355.75
-368.40
-377.06
-380.76
-378.54
-369.08
-350.86
-323.11
-286.95
-245.86
-204.85
-168.85
-140.97
-121.77
-109.82
-103.06
-100.00
-100.17
-103.60
-110.02
-118.35
-126.92
-134.17
-139.43
-143.03
-146.06
-149.51
-153.59
-157.23
-158.21
-153.64
-140.90
-118.56
-87.09
-48.97
-8.04
31.60
66.75
95.88
119.36
139.01
157.39
176.94
199.09
223.56
247.90
267.65
277.39
272.63
251.66
216.71
173.50
129.34
90.73
61.58
42.84
33.49
31.74
35.86
43.83
52.68
58.22
55.85
42.09
16.11
-20.06
-62.78
-108.80
-156.60
-205.94
-255.86
-302.78
-340.40
-361.99
-363.62
-346.38
-315.77
-278.73
-240.26
-201.68
-161.80
-119.52
-76.31
-36.28
-4.10
17.74
30.47
38.25
45.42
53.90
62.02
65.53
59.99
42.99
15.18
-20.28
-59.09
-97.49
-133.17
-164.98
-192.22
-213.68
-227.50
-231.69
-225.04
-207.91
-182.38
-151.51
-118.39
-85.46
-54.34
-26.04
-1.31
19.17
34.89
45.60
51.56
53.64
53.22
51.96
51.37
52.30
54.69
57.40
58.78
57.25
52.01
43.29
32.30
21.01
11.69
6.73
8.32
17.88
35.51
59.62
87.21
114.67
138.94
158.10
171.24
177.69
176.45
166.40
147.17
120.25
89.50
60.49
38.90
28.54
30.19
41.49
58.06
75.10
89.06
98.53
104.47
109.46
116.44
127.22
141.36
156.27
167.66
171.23
164.34
146.92
121.43
91.96
63.04
38.26
19.80
8.62
4.74
7.14
13.53
20.36
23.53
19.69
7.82
-9.94
-28.80
-43.02
-48.13
-42.59
-28.15
-8.90
10.49
26.32
36.72
41.53
41.67
38.46
33.16
26.80
19.86
12.26
3.59
-6.58
-18.18
-30.27
-40.85
-47.27
-47.12
-39.13
-23.67
-2.79
20.48
43.02
62.39
77.25
87.31
93.11
95.68
96.33
96.27
96.48
97.55
99.70
102.89
106.91
111.50
116.37
121.14
125.28
128.20
129.37
128.47
125.53
120.82
114.73
107.67
100.09
92.50
85.56
79.83
75.43
71.73
67.36
60.72
50.67
37.30
21.96
6.65
-6.98
-18.49
-28.73
-39.11
-50.49
-62.41
-73.18
-80.74
-83.70
-81.99
-76.65
-69.15
-60.60
-51.51
-41.93
-31.97
-22.01
-12.68
-4.56
2.10
7.38
11.58
14.95
17.69
19.97
22.07
24.36
26.96
29.52
31.06
30.25
26.04
18.32
8.34
-1.67
-9.23
-12.64
-11.65
-7.40
-1.80
3.41
7.53
11.04
14.94
20.25
27.39
36.08
45.98
57.00
69.31
82.86
97.10
111.07
124.00
135.81
146.95
157.50
166.08
169.51
163.73
145.87
116.21
78.96
41.02
9.43
-11.29
-20.77
-22.46
-21.76
-23.55
-30.17
-40.89
-52.66
-61.50
-64.07
-59.11
-47.51
-32.21
-17.66
-8.83
-9.99
-23.19
-47.13
-76.96
-105.58
-126.15
-134.78
-132.09
-122.74
-113.20
-109.01
-112.96
-124.40
-140.33
-156.72
-169.84
-177.18
-177.70
-171.65
-160.16
-145.06
-128.78
-114.11
-103.53
-98.20
-96.33
-92.50
-78.92
-48.47
1.33
66.16
135.87
198.63
246.12
276.68
294.63
306.49
316.64
325.20
329.06
325.00
312.46
293.84
272.58
250.79
227.62
200.14
165.65
123.87
77.64
31.76
-8.74
-40.47
-62.48
-75.88
-82.86
-85.62
-85.81
-84.30
-81.64
-78.44
-75.70
-74.78
-76.94
-82.91
-92.38
-103.94
-115.58
-125.51
-132.79
-137.70
-141.40
-145.29
-150.34
-156.72
-163.73
-169.83
-173.11
-171.78
-164.79
-152.09
-134.59
-113.58
-90.08
-64.72
-37.95
-10.81
14.69
35.78
49.98
56.24
55.31
49.37
40.82
31.24
21.01
9.84
-2.29
-14.54
-25.22
-32.64
-36.00
-35.83
-33.78
-31.87
-31.43
-32.66
-34.68
-36.17
-36.19
-34.68
-32.43
-30.58
-29.98
-30.78
-32.50
-34.48
-36.34
-38.15
-40.45
-43.91
-49.07
-56.10
-64.69
-74.15
-83.41
-91.20
-96.24
-97.43
-94.07
-85.96
-73.41
-57.29
-38.99
-20.33
-3.47
9.40
16.42
16.42
9.31
-3.96
-21.56
-41.10
-60.06
-76.13
-87.67
-94.01
-95.62
-93.92
-90.75
-87.78
-85.93
-85.32
-85.56
-86.35
-87.87
-91.07
-97.29
-107.85
-123.36
-143.32
-165.95
-188.36
-207.16
-219.13
-222.15
-215.65
-200.73
-179.57
-154.69
-128.17
-101.39
-75.15
-50.07
-26.98
-6.81
9.71
22.43
31.88
38.93
44.41
48.67
51.64
53.16
53.39
52.99
52.94
54.13
56.92
61.14
66.29
71.91
77.81
83.95
90.32
96.74
102.97
108.76
113.89
117.87
119.81
118.46
112.82
102.86
90.01
76.95
66.37
59.70
56.13
52.74
45.67
31.78
9.80
-19.36
-53.15
-88.45
-122.42
-152.95
-178.70
-199.05
-214.01
-224.10
-230.08
-232.63
-232.15
-228.69
-221.99
-211.72
-197.41
-178.56
-154.63
-125.47
-91.65
-54.91
-17.88
16.54
46.09
69.81
88.06
101.98
112.81
121.37
127.94
132.53
135.08
135.60
134.28
131.52
128.05
124.74
122.46
121.57
121.71
121.79
120.32
116.15
108.94
99.39
88.90
79.01
70.96
65.42
62.56
62.17
63.87
67.01
70.64
73.47
74.09
71.50
65.70
58.04
50.98
47.38
49.44
57.91
71.68
88.32
104.77
118.32
127.26
131.02
130.09
125.52
118.58
110.34
101.39
91.94
82.15
72.30
62.67
53.08
42.50
29.19
11.58
-10.56
-35.09
-57.90
-74.41
-81.64
-79.61
-71.29
-61.06
-52.75
-48.31
-47.64
-49.49
-52.35
-54.93
-55.94
-53.92
-47.33
-35.08
-17.23
4.72
27.88
49.04
65.80
77.42
85.09
91.37
99.00
109.68
123.25
137.53
149.17
154.89
152.74
142.81
127.17
109.01
91.45
76.44
64.29
53.99
44.03
33.45
22.36
11.83
3.15
-3.15
-7.72
-12.20
-18.37
-27.02
-37.44
-47.55
-54.71
-56.74
-52.68
-43.17
-30.35
-17.31
-7.22
-2.29
-3.04
-8.20
-15.46
-22.65
-28.86
-35.00
-43.29
-56.17
-74.88
-98.58
-124.37
-148.22
-166.30
-176.14
-177.33
-171.48
-161.58
-151.10
-142.83
-137.93
-135.48
-132.70
-126.28
-113.89
-95.56
-73.91
-53.10
-36.95
-27.04
-22.00
-18.21
-11.63
0.33
17.85
38.98
60.75
80.48
96.41
107.71
114.18
116.33
115.85
115.95
120.64
133.15
154.20
180.82
206.89
225.47
231.61
224.33
206.67
183.88
160.99
141.04
124.82
111.86
101.81
95.18
93.00
95.94
103.48
113.80
124.42
133.08
138.64
141.31
142.16
142.34
142.22
141.12
137.66
130.53
119.36
105.14
89.96
76.17
65.40
58.00
52.99
48.63
43.18
35.55
25.63
14.09
1.95
-9.94
-21.31
-32.47
-44.06
-56.68
-70.44
-84.83
-98.81
-111.11
-120.65
-126.76
-129.37
-128.94
-126.29
-122.40
-118.33
-115.02
-113.07
-112.60
-113.13
-113.67
-112.88
-109.51
-102.65
-92.13
-78.55
-63.15
-47.42
-32.81
-20.44
-11.13
-5.39
-3.53
-5.51
-10.79
-18.27
-26.35
-33.39
-38.19
-40.45
-40.91
-40.96
-42.04
-44.97
-49.63
-55.08
-60.05
-63.52
-65.11
-65.10
-64.13
-62.86
-61.72
-60.80
-59.95
-58.83
-57.08
-54.34
-50.30
-44.75
-37.75
-29.68
-21.30
-13.53
-7.18
-2.56
0.70
3.64
7.66
13.97
23.12
34.78
47.78
60.53
71.55
79.87
85.09
87.37
87.17
85.02
81.44
76.78
71.30
65.17
58.66
52.20
46.34
41.66
38.50
36.77
35.98
35.42
34.36
32.28
28.74
23.37
15.77
5.66
-6.85
-21.07
-35.76
-49.44
-60.91
-69.62
-75.80
-80.13
-83.34
-85.77
-87.31
-87.68
-86.81
-85.12
-83.38
-82.37
-82.32
-82.65
-82.09
-79.13
-72.61
-62.15
-48.07
-31.22
-12.62
6.68
25.50
42.53
56.41
66.21
71.79
74.05
74.55
74.89
75.93
77.35
77.69
74.99
67.59
54.74
36.85
15.27
-8.35
-32.59
-56.48
-79.17
-99.51
-115.72
-125.86
-128.65
-124.67
-116.56
-108.37
-103.91
-104.98
-110.63
-117.79
-122.64
-122.00
-113.91
-97.38
-72.12
-38.81
0.23
40.47
75.88
100.81
112.29
111.39
102.67
92.03
83.98
80.07
78.97
78.21
75.93
71.82
66.74
61.62
56.62
51.03
44.15
36.03
27.98
22.15
20.35
23.14
29.43
36.77
42.42
44.35
41.93
35.96
28.02
19.80
12.52
6.61
1.90
-2.19
-6.29
-10.97
-16.64
-23.59
-31.89
-41.38
-51.63
-62.04
-72.04
-81.30
-89.83
-97.84
-105.31
-111.69
-115.79
-115.98
-110.91
-100.12
-84.39
-65.57
-45.98
-27.68
-11.94
0.71
10.25
16.72
20.11
20.44
18.01
13.67
8.65
4.32
1.66
1.11
2.41
4.99
8.28
12.06
16.40
21.52
27.46
33.78
39.63
44.03
46.27
46.28
44.71
42.60
40.89
39.83
38.82
36.55
31.48
22.56
9.54
-6.89
-25.40
-44.47
-62.71
-79.08
-92.82
-103.42
-110.59
-114.36
-115.22
-113.98
-111.60
-108.77
-105.68
-101.96
-97.04
-90.52
-82.58
-74.07
-66.16
-59.87
-55.51
-52.41
-49.06
-43.59
-34.50
-21.30
-4.93
12.24
26.98
36.17
37.82
31.72
19.45
3.68
-12.67
-27.19
-38.16
-44.54
-45.79
-42.01
-34.17
-24.24
-14.90
-8.60
-6.62
-8.59
-12.83
-17.47
-21.45
-24.98
-29.06
-34.32
-40.17
-44.77
-45.85
-41.90
-32.99
-20.50
-6.29
8.39
23.19
38.38
53.81
68.40
80.35
88.14
91.61
92.54
94.06
99.23
109.77
125.52
145.01
166.64
189.80
215.02
243.15
274.00
305.57
334.17
355.71
367.23
367.85
358.75
342.28
320.96
296.73
270.81
243.92
216.73
190.04
164.62
140.76
117.69
93.17
63.94
26.95
-18.75
-70.62
-122.22
-164.87
-190.53
-194.96
-179.45
-150.31
-116.30
-85.48
-62.87
-49.91
-45.51
-47.70
-54.74
-65.29
-77.78
-89.82
-98.19
-99.65
-91.99
-74.84
-49.81
-19.93
11.34
40.99
66.96
88.26
104.82
117.27
126.53
133.45
138.46
141.63
143.10
143.50
144.41
147.88
155.52
167.61
182.64
197.88
210.77
220.35
227.75
235.44
245.33
257.00
267.18
270.84
263.51
243.50
212.64
175.43
137.00
100.98
68.64
39.30
11.53
-15.55
-41.95
-67.26
-91.34
-114.93
-139.37
-166.01
-195.42
-227.28
-260.23
-292.54
-322.66
-349.73
-373.64
-395.27
-416.29
-438.51
-463.04
-489.40
-515.16
-536.32
-548.65
-549.36
-538.11
-516.89
-488.78
-456.40
-420.98
-382.46
-340.39
-294.58
-245.40
-193.51
-139.63
-84.83
-31.08
18.40
59.50
88.19
101.94
100.60
86.79
65.43
42.43
22.97
10.36
5.17
5.42
7.80
9.16
7.85
4.06
-0.56
-4.07
-5.08
-3.04
1.92
9.29
18.40
28.26
37.49
44.46
47.63
46.10
39.99
30.74
20.94
13.84
12.42
18.39
31.45
49.19
67.82
83.54
94.01
99.11
100.73
101.52
103.25
105.74
106.82
103.64
94.41
79.68
62.42
46.63
35.43
29.69
28.01
28.15
28.80
30.65
36.03
47.45
65.83
89.49
114.63
136.59
151.52
157.51
154.91
145.81
133.25
120.19
108.73
99.73
92.82
86.84
80.58
73.51
66.02
59.26
54.50
52.49
53.05
55.08
56.70
55.55
48.92
34.18
9.32
-26.20
-70.70
-119.95
-167.77
-207.28
-232.76
-241.23
-233.24
-212.45
-184.37
-154.65
-127.72
-106.26
-91.19
-82.25
-78.43
-78.35
-80.31
-82.45
-83.18
-81.72
-78.51
-75.08
-73.20
-73.85
-76.54
-79.43
-80.22
-77.34
-70.61
-61.13
-50.43
-39.51
-28.36
-16.09
-1.74
15.24
34.81
56.67
80.35
105.13
129.52
151.26
167.86
177.67
180.75
178.94
174.92
170.86
167.48
163.86
158.30
149.19
135.76
118.02
96.52
72.11
45.88
19.43
-5.30
-26.45
-42.98
-55.08
-64.02
-71.64
-79.56
-88.72
-99.05
-109.51
-118.26
-123.15
-122.48
-115.85
-104.65
-91.91
-81.19
-75.25
-74.93
-79.00
-85.24
-91.91
-98.76
-107.03
-118.19
-132.68
-149.08
-164.41
-175.24
-178.82
-173.76
-160.17
-139.19
-112.51
-82.00
-49.51
-16.74
14.89
44.27
70.51
92.89
110.77
123.76
131.92
136.01
137.39
137.70
138.33
139.97
142.56
145.37
147.46
148.08
146.87
143.97
139.77
134.69
128.90
122.34
114.71
105.71
95.34
83.94
72.23
61.07
51.13
42.77
36.03
30.78
26.92
24.56
23.98
25.49
29.17
34.74
41.52
48.57
54.92
59.78
62.63
63.25
61.70
58.43
54.36
50.84
49.33
50.86
55.38
61.48
66.74
68.68
65.94
59.07
50.38
43.15
40.24
43.15
51.69
64.32
78.95
93.56
106.57
116.75
123.22
125.43
123.46
118.14
111.01
103.91
98.31
94.87
93.33
92.82
92.30
90.83
87.51
81.28
70.82
54.97
33.42
7.25
-21.08
-48.48
-72.19
-90.61
-103.35
-110.65
-112.62
-108.92
-99.06
-83.10
-62.22
-38.81
-15.94
3.44
17.13
24.14
24.75
20.29
12.56
3.08
-7.76
-21.08
-39.03
-63.68
-95.69
-133.54
-173.93
-212.84
-246.91
-274.09
-293.70
-305.60
-309.72
-306.15
-295.30
-278.43
-257.63
-235.64
-215.40
-199.20
-187.59
-178.58
-167.81
-149.99
-121.31
-81.49
-34.20
14.43
58.75
95.98
126.58
152.76
176.22
196.77
212.76
222.80
227.28
228.73
230.77
236.59
247.88
264.90
286.76
311.94
338.27
362.79
382.36
394.42
398.02
394.06
384.52
371.11
354.28
333.05
306.10
273.03
235.21
195.32
156.16
119.18
83.93
48.65
11.74
-27.09
-66.38
-103.85
-137.79
-168.12
-196.57
-225.89
-258.61
-295.77
-336.53
-378.71
-419.79
-458.09
-493.47
-527.25
-561.65
-599.20
-642.20
-692.16
-748.91
-809.61
-868.16
-916.04
-944.53
-947.66
-924.50
-879.45
-820.32
-755.21
-689.82
-626.47
-565.10
-505.05
-446.35
-389.82
-336.12
-284.80
-234.12
-181.95
-127.04
-69.82
-12.35
42.41
92.08
135.79
174.44
210.18
245.34
281.28
317.82
353.49
386.22
414.37
437.49
456.37
472.68
488.52
505.86
526.14
549.60
574.64
597.57
613.04
615.58
601.65
571.21
528.06
478.56
429.15
384.27
345.38
311.50
280.65
251.11
221.97
192.73
162.94
132.07
99.96
67.42
36.31
8.94
-12.86
-28.72
-40.03
-49.41
-59.50
-71.88
-86.42
-101.38
-114.21
-122.59
-125.18
-121.97
-114.10
-103.34
-91.39
-79.49
-68.12
-57.10
-46.01
-34.60
-23.22
-12.84
-4.51
1.34
5.65
10.96
20.89
38.75
65.86
100.27
136.49
166.62
182.60
178.47
151.83
104.13
40.16
-32.74
-105.54
-168.47
-212.48
-231.21
-222.91
-191.13
-143.68
-89.92
-37.57
9.15
49.45
84.19
113.85
137.78
154.78
164.50
168.25
168.60
168.19
168.39
168.98
168.62
165.90
160.17
151.87
142.04
131.84
122.15
113.51
106.24
100.57
96.68
94.59
94.10
94.79
96.08
97.32
97.88
97.22
94.85
90.48
84.02
75.64
65.85
55.39
45.01
35.15
25.77
16.14
5.14
-8.42
-25.31
-45.69
-69.33
-96.01
-125.86
-159.11
-195.47
-233.16
-268.51
-296.50
-312.08
-311.87
-295.35
-264.98
-225.41
-182.18
-140.38
-103.82
-74.59
-52.91
-37.31
-24.98
-12.74
1.89
19.66
39.41
58.73
75.11
87.17
94.93
99.59
102.68
105.31
107.85
109.97
110.97
110.19
107.32
102.52
96.39
89.64
82.65
75.00
65.26
51.55
32.63
8.99
-16.59
-39.63
-55.55
-61.63
-58.25
-48.65
-37.31
-27.73
-20.90
-15.17
-7.59
4.34
21.30
41.96
63.89
84.77
103.30
119.33
133.30
145.57
155.95
163.74
168.11
168.50
164.92
157.98
148.84
138.96
129.83
122.53
117.55
114.77
113.62
113.27
112.82
111.42
108.20
102.50
93.98
82.81
69.63
55.42
40.98
26.74
12.66
-1.33
-14.85
-26.85
-36.00
-41.30
-42.79
-41.77
-40.33
-40.50
-43.56
-49.77
-58.73
-69.95
-83.39
-99.49
-119.01
-142.33
-169.07
-197.76
-225.91
-250.38
-268.06
-276.63
-275.09
-264.02
-245.11
-220.60
-192.60
-162.73
-132.23
-102.34
-74.53
-50.30
-30.70
-15.75
-4.23
6.01
17.16
30.69
46.64
63.70
79.59
91.94
99.07
100.45
96.82
89.85
81.45
73.19
65.74
58.77
51.19
41.80
29.91
15.81
0.89
-12.77
-22.92
-27.91
-27.28
-22.26
-15.68
-11.50
-13.81
-25.56
-47.35
-76.86
-109.05
-137.47
-156.18
-161.59
-153.54
-134.92
-110.18
-83.30
-56.44
-29.80
-2.79
24.31
49.43
69.13
80.13
81.01
73.08
59.75
44.98
31.55
20.38
10.93
2.40
-5.11
-10.25
-11.01
-5.92
4.98
19.95
36.28
51.57
64.66
75.86
86.46
97.55
109.25
120.51
129.65
135.31
137.16
135.95
132.87
128.40
121.46
109.49
89.49
59.73
21.13
-22.43
-65.40
-102.54
-130.93
-150.45
-162.86
-170.03
-172.63
-170.00
-161.26
-146.64
-127.99
-108.15
-89.41
-72.41
-55.95
-37.95
-16.66
8.23
35.42
62.45
86.50
105.27
117.54
123.54
125.02
124.64
124.84
126.81
129.77
131.23
127.95
117.23
97.97
71.08
39.21
5.89
-25.36
-51.90
-72.45
-87.05
-96.59
-102.13
-104.24
-102.99
-98.31
-90.68
-81.54
-73.03
-67.10
-64.54
-64.68
-65.79
-66.21
-65.40
-64.36
-65.21
-70.17
-80.41
-95.35
-112.56
-128.35
-138.86
-141.18
-133.99
-117.81
-94.74
-67.98
-41.36
-18.80
-3.59
2.36
-0.81
-10.84
-24.11
-36.79
-46.10
-51.03
-52.17
-50.98
-48.89
-46.79
-45.14
-44.49
-45.94
-51.05
-61.35
-77.46
-98.31
-120.96
-141.39
-156.11
-163.82
-166.22
-167.29
-171.44
-181.21
-196.04
-212.69
-226.91
-235.41
-237.09
-233.01
-225.30
-216.08
-206.65
-197.53
-188.72
-179.89
-170.47
-159.57
-146.22
-129.66
-109.62
-86.41
-60.66
-33.02
-3.84
26.77
58.86
92.21
126.16
159.63
191.41
220.64
247.06
271.02
293.03
313.19
330.74
344.25
352.18
353.66
348.95
339.19
325.54
308.20
286.31
258.81
225.87
189.74
154.22
122.86
97.02
74.86
52.41
25.78
-6.62
-43.10
-79.73
-112.21
-137.67
-155.22
-165.43
-169.23
-167.22
-159.84
-148.01
-133.56
-119.14
-107.44
-100.45
-98.79
-101.54
-106.68
-111.92
-115.33
-115.85
-113.30
-108.02
-100.33
-90.21
-77.16
-60.56
-40.01
-15.73
11.24
39.17
65.99
89.72
109.00
123.26
132.80
138.51
141.47
142.62
142.60
141.90
140.96
140.31
140.38
141.33
142.88
144.41
145.17
144.63
142.63
139.42
135.39
130.92
126.16
121.05
115.42
109.11
102.07
94.33
85.95
77.01
67.63
57.99
48.35
39.00
30.14
21.81
13.80
5.74
-2.85
-12.43
-23.31
-35.54
-48.70
-61.81
-73.22
-81.03
-83.56
-79.95
-70.59
-56.97
-41.21
-25.39
-10.95
1.47
11.87
20.50
27.61
33.36
37.86
41.22
43.65
45.34
46.50
47.32
48.02
48.76
49.66
50.69
51.75
52.64
53.13
52.97
51.95
49.92
46.82
42.81
38.22
33.52
29.12
25.18
21.52
17.58
12.69
6.29
-1.77
-11.06
-20.73
-29.83
-37.77
-44.67
-51.45
-59.52
-70.04
-83.32
-98.35
-113.08
-125.29
-133.66
-138.29
-140.53
-141.91
-143.13
-143.60
-141.85
-136.38
-126.40
-111.69
-92.11
-67.47
-38.04
-5.43
27.06
55.27
75.88
88.01
93.52
95.63
96.87
97.55
95.99
89.94
78.66
64.06
50.15
41.28
39.94
45.41
53.97
60.35
59.89
50.53
33.59
13.16
-5.65
-18.87
-24.88
-24.46
-19.72
-12.91
-5.60
1.25
6.89
10.62
11.96
11.17
9.25
7.68
7.75
10.04
14.28
19.74
25.59
31.18
35.95
39.39
41.09
41.00
39.67
38.25
38.20
40.79
46.55
55.23
65.91
77.45
88.86
99.43
108.82
116.90
123.66
129.01
132.74
134.69
134.95
134.05
133.03
133.10
135.09
138.98
143.79
148.06
150.47
150.40
147.97
143.60
137.55
129.71
119.83
107.96
94.77
81.25
68.05
54.92
40.75
24.53
6.36
-11.92
-27.30
-36.84
-39.06
-34.57
-25.65
-15.25
-6.07
0.06
2.32
0.92
-2.94
-7.17
-9.26
-7.12
-0.05
10.79
22.70
32.52
37.71
37.16
31.11
20.92
8.65
-3.46
-13.25
-19.19
-20.83
-19.17
-16.40
-15.05
-17.01
-22.80
-31.59
-41.69
-51.63
-60.31
-67.01
-71.38
-73.59
-74.47
-75.42
-77.95
-82.94
-90.32
-98.55
-104.89
-106.36
-101.13
-89.33
-72.92
-54.84
-37.84
-24.36
-15.21
-9.23
-3.95
3.34
14.52
30.30
50.17
72.61
93.56
109.54
119.51
125.29
130.09
136.80
147.12
161.35
178.63
193.15
199.56
195.82
183.32
164.07
138.79
107.47
70.81
30.98
-15.24
-70.04
-131.04
-191.91
-246.85
-293.24
-331.19
-361.80
-386.20
-414.02
-453.84
-507.09
-568.03
-629.58
-687.90
-742.65
-795.23
-790.09
-695.43
-522.68
-318.72
-128.87
25.68
144.14
234.64
306.84
359.93
394.23
408.13
404.43
391.44
377.67
367.43
360.53
353.58
350.42
345.03
330.99
307.58
279.95
254.52
235.23
223.21
218.01
218.73
219.83
215.96
205.57
190.96
175.33
160.48
146.77
133.88
121.67
107.89
90.67
70.30
49.08
29.72
14.09
2.94
-3.66
-5.97
-5.47
-3.75
-1.59
1.04
4.42
8.67
13.70
19.26
25.06
30.68
35.67
39.72
42.81
44.95
46.15
46.30
45.07
41.98
36.37
27.80
16.25
2.15
-13.64
-30.12
-46.52
-62.51
-78.30
-94.34
-110.99
-128.08
-144.74
-159.64
-171.50
-179.69
-184.68
-188.07
-192.17
-199.26
-210.84
-227.28
-248.08
-272.25
-298.99
-328.18
-360.27
-396.02
-436.38
-482.41
-534.89
-593.40
-655.17
-714.27
-762.25
-790.39
-792.76
-768.75
-723.35
-665.20
-603.30
-544.04
-490.06
-441.14
-396.05
-354.17
-315.83
-281.60
-251.35
-223.84
-197.27
-170.28
-142.68
-115.45
-90.42
-69.21
-52.51
-39.82
-29.70
-20.38
-10.47
0.54
12.24
23.65
33.69
41.76
47.87
52.72
57.30
62.55
69.05
76.80
85.30
93.71
101.19
107.22
111.81
115.57
119.54
124.86
132.29
141.92
153.11
164.68
175.47
184.88
193.29
201.96
212.64
226.83
245.07
266.71
290.26
313.98
336.74
358.52
380.36
404.11
432.04
466.52
509.40
560.99
618.81
677.01
727.14
760.50
771.17
758.30
726.23
682.43
634.20
586.07
539.12
492.27
444.35
395.61
347.53
301.54
257.62
213.86
167.41
116.08
59.67
0.19
-58.88
-114.18
-163.94
-208.58
-250.34
-292.33
-337.53
-388.22
-445.45
-508.51
-574.26
-636.73
-688.02
-720.23
-728.34
-712.19
-676.73
-630.15
-580.78
-534.51
-493.81
-458.58
-427.92
-401.44
-379.44
-362.04
-348.34
-336.18
-322.94
-306.62
-286.64
-263.83
-240.00
-216.78
-194.99
-174.29
-153.56
-131.51
-107.42
-81.47
-54.74
-28.77
-4.91
16.08
34.17
49.91
63.92
76.55
87.60
96.40
102.03
103.72
101.09
94.32
84.00
71.02
56.30
40.70
24.96
9.76
-4.23
-16.32
-25.89
-32.43
-35.68
-35.67
-32.70
-27.33
-20.20
-11.97
-3.30
5.33
13.50
20.92
27.44
33.01
37.68
41.59
44.93
47.89
50.66
53.37
56.10
58.85
61.60
64.27
66.80
69.11
71.13
72.78
73.95
74.53
74.39
73.46
71.76
69.42
66.65
63.70
60.80
58.04
55.41
52.79
50.07
47.27
44.58
42.38
41.11
41.16
42.74
45.80
50.12
55.43
61.62
68.81
77.33
87.58
99.80
113.91
129.49
145.95
162.67
179.27
195.72
212.26
229.37
247.71
268.05
291.04
316.75
344.25
371.36
395.03
412.29
421.23
421.69
415.10
403.68
389.45
373.55
356.36
338.07
319.24
300.96
284.34
269.92
257.33
245.42
232.97
219.27
204.26
188.36
172.11
155.89
139.86
124.12
108.62
93.17
77.29
60.34
41.84
21.99
1.91
-16.41
-30.68
-39.08
-40.90
-36.80
-28.60
-18.53
-8.49
0.58
8.98
17.89
28.65
41.88
56.87
71.56
83.12
88.87
87.09
77.37
60.55
38.29
12.80
-13.37
-37.48
-56.96
-70.01
-76.23
-76.84
-74.28
-71.32
-69.92
-70.68
-72.86
-75.18
-76.62
-77.06
-77.12
-77.69
-79.36
-82.11
-85.43
-88.69
-91.41
-93.58
-95.51
-97.62
-100.03
-102.35
-103.80
-103.74
-102.07
-99.58
-97.53
-96.99
-98.07
-99.79
-100.56
-99.01
-94.79
-88.64
-81.93
-75.83
-70.80
-66.55
-62.47
-58.13
-53.54
-49.10
-45.34
-42.60
-40.90
-39.99
-39.45
-38.91
-38.19
-37.40
-36.85
-36.95
-37.86
-39.51
-41.60
-43.83
-46.18
-49.04
-53.19
-59.36
-67.66
-76.80
-84.00
-85.30
-76.92
-56.82
-25.88
12.04
50.97
84.75
108.72
120.81
121.50
113.10
98.58
80.85
62.26
44.51
28.71
15.35
4.38
-4.60
-12.17
-18.79
-24.73
-30.00
-34.37
-37.46
-38.81
-38.11
-35.26
-30.62
-25.00
-19.48
-15.19
-12.87
-12.65
-14.04
-16.10
-17.78
-18.24
-17.06
-14.23
-10.08
-5.09
0.29
5.70
10.89
15.68
19.84
23.11
25.24
25.94
25.05
22.57
18.63
13.66
8.30
3.53
0.51
0.46
4.20
11.88
22.75
35.34
47.85
58.63
66.57
71.29
73.03
72.47
70.41
67.48
63.89
59.35
53.08
44.18
32.14
17.35
1.22
-14.11
-26.54
-34.73
-38.53
-38.82
-36.90
-33.87
-30.36
-26.52
-22.35
-17.89
-13.27
-8.54
-3.41
2.68
10.42
20.33
32.41
46.16
60.61
74.62
87.16
97.54
105.51
111.14
114.70
116.38
116.29
114.48
111.11
106.49
100.98
94.64
87.14
77.72
65.56
50.23
31.99
11.81
-9.00
-29.10
-47.57
-63.96
-78.12
-90.12
-100.02
-107.90
-113.80
-117.77
-119.74
-119.57
-117.21
-112.88
-107.24
-101.31
-96.14
-92.43
-90.19
-88.83
-87.44
-85.24
-81.97
-77.76
-72.96
-67.64
-61.48
-53.93
-44.61
-33.71
-22.11
-11.11
-1.86
5.12
10.13
14.08
18.09
23.02
29.39
37.38
47.16
58.91
72.84
88.95
106.85
125.73
144.48
161.94
177.11
189.16
197.44
201.40
200.69
195.27
185.73
173.24
159.33
145.28
131.54
117.49
101.71
82.78
60.10
34.39
7.42
-18.49
-41.17
-58.90
-70.31
-74.37
-70.49
-59.06
-41.83
-21.82
-2.61
12.77
22.74
27.13
26.59
21.81
13.12
0.75
-14.48
-30.82
-45.69
-56.59
-61.87
-61.27
-55.64
-46.33
-34.50
-21.00
-6.54
7.88
20.82
30.56
35.64
35.35
29.85
20.07
7.25
-7.40
-22.90
-38.46
-53.45
-67.48
-80.47
-92.75
-104.88
-117.41
-130.65
-144.48
-158.45
-171.83
-183.73
-193.12
-199.04
-200.80
-198.30
-192.00
-182.66
-170.76
-156.13
-138.13
-116.21
-90.71
-63.23
-36.29
-12.41
6.83
21.17
31.53
39.14
44.89
48.85
50.41
48.82
43.60
34.82
23.08
9.46
-4.46
-16.57
-24.57
-26.58
-21.92
-11.69
1.37
13.73
22.35
25.70
24.12
19.37
13.59
8.41
4.50
1.56
-1.19
-4.71
-9.76
-16.80
-25.76
-36.06
-46.54
-55.73
-62.06
-64.18
-61.27
-53.23
-40.80
-25.42
-8.85
7.26
21.92
34.95
46.81
58.07
68.81
78.33
85.32
88.25
86.05
78.50
66.32
50.98
34.38
18.42
4.87
-4.73
-9.29
-8.22
-1.61
9.89
25.21
42.96
61.42
78.77
93.26
103.56
109.09
110.17
107.88
103.82
99.36
95.32
92.01
89.53
88.13
88.20
90.15
94.21
100.62
109.16
119.24
130.29
142.00
154.20
166.69
179.05
190.66
201.58
211.37
219.11
223.08
221.00
210.42
189.36
157.08
114.56
65.40
13.75
-36.54
-82.70
-123.14
-157.31
-185.44
-208.18
-230.94
-254.03
-274.11
-286.29
-287.65
-278.90
-263.09
-243.59
-222.82
-201.99
-180.68
-159.10
-138.17
-119.19
-103.01
-89.59
-78.08
-67.39
-56.90
-46.16
-36.21
-28.90
-25.93
-28.14
-35.11
-45.60
-58.21
-72.13
-84.93
-96.72
-108.14
-119.51
-130.24
-138.97
-144.31
-145.45
-142.70
-137.16
-130.80
-125.43
-122.52
-123.06
-127.18
-133.55
-138.87
-138.31
-126.95
-102.56
-66.95
-26.06
12.17
40.96
57.31
62.60
61.01
56.93
52.78
48.87
44.41
38.97
33.16
28.39
25.76
25.30
25.87
25.78
23.63
19.09
12.91
6.52
1.27
-2.12
-3.82
-4.73
-6.03
-8.63
-12.73
-17.86
-23.11
-27.59
-30.78
-32.44
-32.65
-31.69
-29.77
-26.94
-23.23
-18.53
-12.86
-6.33
0.88
8.54
16.40
24.11
31.22
37.17
41.39
43.54
43.72
42.53
40.92
39.86
39.96
41.21
42.97
44.37
44.70
43.80
42.19
40.77
40.48
41.99
45.66
51.45
58.78
66.06
70.67
69.46
60.05
42.32
19.08
-4.53
-22.92
-32.23
-31.73
-23.64
-11.65
0.92
12.27
22.06
30.54
37.65
42.78
45.18
44.58
41.57
37.28
32.88
29.02
25.59
21.95
17.29
11.03
3.10
-6.01
-15.45
-24.35
-32.22
-39.28
-46.48
-54.87
-65.27
-77.63
-90.68
-102.14
-109.46
-110.82
-105.70
-94.96
-80.44
-64.28
-48.40
-34.17
-22.42
-13.46
-7.16
-2.99
-0.08
2.54
5.66
9.73
14.84
20.94
27.96
35.88
44.72
54.47
64.94
75.71
86.05
95.01
101.72
105.53
106.24
104.16
99.83
93.71
86.02
76.72
65.79
53.57
40.94
29.20
19.77
13.78
11.66
13.03
16.76
21.23
24.80
26.40
25.78
23.44
20.08
16.08
11.25
5.14
-2.32
-10.33
-17.35
-21.91
-23.65
-23.93
-25.20
-29.75
-38.23
-49.17
-59.64
-66.95
-70.05
-70.00
-69.23
-70.05
-73.27
-78.06
-82.63
-85.29
-85.29
-82.68
-77.88
-71.31
-63.65
-56.33
-51.53
-51.29
-56.16
-63.97
-70.06
-69.16
-58.21
-38.29
-14.40
6.81
20.36
25.16
24.03
21.85
22.86
28.88
39.14
51.52
63.85
74.86
84.10
91.28
95.88
97.16
94.54
88.26
79.43
69.72
60.83
53.96
49.46
46.80
44.84
42.32
38.36
32.84
26.35
20.00
14.86
11.53
9.93
9.43
9.20
8.61
7.44
5.87
4.35
3.18
2.43
1.94
1.48
0.99
0.74
1.23
3.00
6.40
11.37
17.50
24.14
30.64
36.40
40.88
43.51
43.69
40.97
35.27
27.01
17.07
6.57
-3.40
-12.01
-18.77
-23.52
-26.44
-28.18
-29.94
-33.46
-40.40
-51.54
-65.90
-80.52
-91.15
-93.75
-86.16
-69.22
-46.64
-23.80
-5.92
3.48
3.54
-4.24
-16.82
-30.83
-43.41
-52.79
-58.28
-60.06
-58.91
-55.76
-51.53
-46.90
-42.34
-38.03
-34.01
-30.23
-26.64
-23.28
-20.30
-17.90
-16.22
-15.36
-15.44
-16.77
-19.86
-25.36
-33.57
-44.09
-55.61
-66.08
-73.30
-75.55
-72.42
-65.34
-57.79
-55.03
-63.11
-87.15
-129.19
-186.59
-251.72
-313.66
-361.28
-386.50
-386.47
-363.62
-323.85
-273.86
-219.00
-162.41
-105.86
-50.29
3.61
55.45
105.29
153.58
200.67
246.36
289.63
328.07
358.84
379.04
386.54
380.38
360.69
328.57
285.78
234.54
176.32
112.51
44.24
-26.70
-97.50
-164.73
-225.17
-276.60
-312.91
-329.40
-323.60
-297.32
-256.19
-207.86
-159.51
-116.39
-81.64
-56.87
-44.59
-45.50
-60.62
-89.69
-129.75
-174.62
-215.82
-244.68
-254.95
-245.24
-217.37
-177.89
-134.57
-93.44
-57.26
-25.85
2.30
28.51
52.80
74.61
93.24
109.07
123.52
138.19
153.98
170.80
187.82
203.96
218.82
232.64
246.74
262.97
282.83
306.46
332.07
356.13
374.36
383.22
381.00
368.62
349.03
325.79
301.64
277.66
253.56
228.77
203.40
178.61
156.20
137.70
123.65
113.32
105.22
97.60
88.93
77.96
63.61
45.03
21.88
-5.21
-34.43
-62.98
-87.88
-106.89
-119.16
-125.42
-127.54
-127.80
-128.16
-129.77
-132.78
-136.44
-139.44
-140.29
-137.74
-131.11
-120.51
-106.73
-91.10
-75.07
-59.96
-46.70
-35.72
-26.94
-19.93
-14.05
-8.67
-3.33
2.14
7.61
12.75
17.25
20.90
23.76
26.03
27.98
29.86
31.74
33.53
35.02
36.01
36.35
36.11
35.55
34.99
34.72
34.80
35.11
35.34
35.18
34.39
32.93
30.94
28.77
26.95
26.23
27.39
30.89
36.51
43.04
48.47
50.61
47.87
39.82
27.10
10.92
-7.60
-27.77
-49.07
-70.69
-90.98
-107.53
-117.83
-120.15
-114.32
-101.91
-85.71
-68.85
-53.92
-42.44
-34.79
-30.51
-28.71
-28.59
-29.66
-31.76
-34.85
-38.68
-42.61
-45.64
-46.75
-45.37
-41.76
-37.02
-32.70
-30.17
-30.02
-31.87
-34.56
-36.63
-36.78
-34.14
-28.29
-19.19
-7.20
6.78
21.41
35.10
46.58
55.27
61.44
65.77
68.76
70.31
69.74
66.24
59.55
50.27
39.78
29.68
21.27
15.36
12.34
12.48
16.05
23.15
33.31
45.08
56.03
63.14
63.78
56.66
42.46
23.77
4.16
-13.05
-26.03
-34.85
-41.10
-46.92
-53.93
-62.72
-72.78
-82.96
-91.90
-98.36
-101.28
-99.98
-94.30
-84.78
-72.64
-59.46
-46.67
-35.11
-24.86
-15.49
-6.47
2.41
10.93
18.62
25.07
30.34
35.21
41.01
49.17
60.45
74.23
88.53
100.43
107.15
107.04
100.26
88.56
74.41
59.93
46.01
32.41
18.14
2.18
-15.96
-35.86
-56.37
-75.81
-92.27
-104.33
-111.11
-112.92
-111.44
-109.60
-110.79
-117.82
-131.97
-149.94
-166.42
-175.00
-170.75
-152.47
-123.12
-87.95
-52.06
-18.74
10.57
35.17
54.54
68.03
75.29
76.81
74.13
69.42
64.87
61.96
60.91
61.05
61.11
59.94
57.00
52.59
47.60
43.15
40.07
38.55
38.25
38.39
38.16
36.97
34.69
31.64
28.44
25.82
24.29
24.08
24.99
26.46
27.70
28.03
27.06
25.00
22.62
20.93
20.91
22.90
26.49
30.54
33.59
34.46
32.79
29.25
25.11
21.53
19.02
16.95
13.90
8.20
-1.51
-15.92
-35.00
-57.74
-81.25
-101.61
-113.80
-113.39
-98.67
-71.99
-39.34
-8.36
14.68
27.11
30.22
28.12
25.47
25.46
28.56
32.55
33.67
27.77
12.25
-12.82
-44.44
-77.98
-108.53
-132.49
-147.43
-151.66
-143.73
-122.72
-89.66
-48.66
-6.86
27.83
48.85
54.89
49.63
39.56
30.85
26.79
27.67
31.62
36.31
40.05
42.30
43.04
42.35
40.09
35.59
28.54
18.87
6.91
-6.52
-20.15
-32.65
-42.94
-50.57
-55.82
-59.31
-61.90
-64.16
-66.04
-66.63
-64.74
-58.90
-48.24
-32.93
-14.04
6.68
27.49
47.16
65.27
81.30
95.57
108.32
119.59
129.62
138.65
146.28
150.73
148.67
136.98
113.55
79.87
41.22
4.90
-22.81
-39.16
-45.55
-46.09
-44.93
-44.31
-44.11
-43.13
-40.52
-36.69
-32.87
-30.08
-28.31
-26.41
-23.00
-17.12
-9.08
-0.36
7.05
11.66
13.32
13.39
14.11
17.47
24.19
33.36
42.73
49.64
52.02
49.04
41.28
30.70
19.94
11.68
7.74
8.43
12.58
18.15
23.09
26.14
27.00
26.04
23.73
20.22
15.68
10.21
4.43
-0.88
-5.18
-8.57
-11.56
-14.53
-17.26
-18.95
-18.78
-16.57
-13.09
-9.79
-8.01
-8.28
-10.12
-12.38
-13.96
-14.38
-13.81
-12.83
-11.95
-11.26
-10.55
-9.55
-8.18
-6.69
-5.48
-4.86
-4.98
-5.84
-7.19
-8.84
-10.56
-12.11
-13.34
-14.19
-14.72
-15.10
-15.63
-16.51
-17.68
-18.44
-17.52
-13.56
-5.74
5.70
19.49
33.80
46.80
57.01
63.65
66.66
66.72
65.51
65.44
69.26
78.94
94.43
113.20
130.84
142.54
144.68
136.93
120.59
98.64
74.55
51.10
29.84
11.36
-4.16
-16.46
-25.20
-30.36
-32.47
-32.87
-33.49
-36.45
-43.54
-56.11
-74.65
-98.47
-125.45
-151.74
-172.33
-182.50
-179.32
-162.55
-134.68
-99.85
-62.45
-26.02
7.29
36.55
61.42
81.71
96.92
106.19
108.47
103.00
89.81
70.23
46.75
22.34
-0.41
-19.78
-34.68
-44.02
-46.28
-39.90
-24.27
-0.93
26.57
53.80
77.01
94.42
106.28
113.81
118.07
119.32
117.41
112.62
106.04
99.22
93.11
87.16
79.21
66.66
47.88
23.30
-4.79
-33.29
-59.63
-82.66
-102.67
-120.74
-137.82
-154.37
-170.31
-185.35
-199.34
-212.38
-224.74
-236.79
-248.77
-260.60
-271.99
-282.44
-291.24
-297.19
-298.41
-292.45
-277.16
-251.83
-218.21
-180.74
-145.29
-117.21
-99.37
-91.16
-88.83
-86.90
-80.03
-64.42
-38.69
-3.91
36.59
78.15
115.87
145.98
166.72
178.49
182.84
181.31
174.78
163.56
148.00
129.09
108.37
87.18
65.82
43.22
17.55
-12.62
-47.30
-84.74
-122.18
-156.77
-186.30
-209.09
-223.66
-228.35
-221.67
-203.56
-176.18
-143.88
-111.79
-83.96
-61.42
-42.05
-21.99
2.05
31.22
64.20
98.10
129.63
155.87
174.40
183.43
182.21
171.90
156.08
140.24
130.09
129.26
137.66
151.14
162.77
164.92
151.50
119.65
70.43
8.78
-57.42
-118.79
-166.62
-194.69
-200.54
-185.29
-153.22
-110.35
-63.19
-17.71
21.23
50.34
67.98
74.07
70.01
58.32
42.22
24.97
9.09
-4.35
-15.78
-26.49
-37.56
-49.09
-60.05
-68.91
-74.71
-77.66
-78.82
-79.13
-78.42
-75.06
-66.48
-50.40
-25.96
5.63
41.23
76.50
107.04
129.33
141.62
144.26
139.49
130.82
122.17
116.98
117.50
124.44
137.03
153.20
170.28
185.57
196.91
203.07
203.80
199.58
191.34
180.26
167.57
154.34
141.36
129.07
117.65
107.10
97.48
88.85
81.25
74.51
68.21
61.77
54.63
46.39
36.90
26.26
14.69
2.61
-9.56
-21.38
-32.60
-43.21
-53.52
-63.93
-74.58
-85.08
-94.38
-101.03
-103.70
-101.69
-95.24
-85.50
-74.08
-62.57
-52.07
-43.18
-36.04
-30.64
-26.95
-24.88
-24.20
-24.43
-24.85
-24.66
-23.23
-20.24
-15.78
-10.31
-4.51
0.96
5.56
9.04
11.40
12.86
13.79
14.44
14.91
15.03
14.47
12.88
10.04
5.95
0.92
-4.41
-9.09
-11.88
-11.52
-7.05
1.76
14.11
28.11
41.27
51.13
56.08
55.77
51.13
43.80
35.52
27.57
20.56
14.67
9.97
6.69
5.33
6.49
10.65
17.98
28.28
41.00
55.47
71.10
87.35
103.55
118.62
131.07
139.12
141.10
135.82
122.67
101.65
73.00
37.16
-5.17
-52.52
-102.22
-150.18
-191.45
-221.30
-236.58
-236.75
-224.06
-202.82
-177.97
-153.59
-132.04
-113.72
-97.79
-83.13
-69.19
-56.09
-44.44
-34.88
-27.63
-22.40
-18.44
-14.75
-10.25
-4.13
3.98
13.79
24.40
34.44
42.32
46.53
45.92
40.04
29.40
15.46
0.38
-13.51
-24.37
-31.28
-34.38
-34.67
-33.41
-31.54
-29.34
-26.50
-22.42
-16.66
-9.25
-0.67
8.29
16.91
24.83
32.07
38.79
44.96
50.08
53.23
53.35
49.68
42.08
31.18
18.25
5.01
-6.84
-16.01
-22.06
-25.04
-25.60
-24.34
-21.78
-18.63
-16.04
-15.52
-18.32
-24.50
-32.56
-39.97
-44.30
-44.33
-40.48
-34.18
-26.88
-19.24
-11.13
-2.21
7.37
16.89
25.38
32.18
37.21
40.76
43.20
44.65
45.11
44.61
43.41
41.91
40.25
38.46
36.25
33.21
29.01
23.54
17.01
9.86
2.65
-4.08
-9.98
-14.80
-18.33
-20.35
-20.69
-19.50
-17.36
-15.29
-14.52
-15.98
-20.04
-26.29
-33.89
-41.84
-49.40
-56.23
-62.30
-67.75
-72.75
-77.47
-82.08
-86.67
-90.99
-94.37
-95.67
-93.64
-87.39
-76.90
-63.05
-47.45
-31.80
-17.32
-4.55
6.57
16.34
24.96
32.40
38.49
43.19
46.71
49.54
52.26
55.29
58.73
62.37
65.71
68.29
69.78
69.99
68.88
66.49
62.92
58.30
52.85
46.89
40.79
34.94
29.60
24.76
20.10
15.09
9.27
2.54
-4.73
-11.79
-17.94
-22.87
-26.94
-31.07
-36.18
-42.77
-50.52
-58.32
-64.72
-68.48
-69.00
-66.44
-61.47
-54.86
-47.01
-37.86
-26.96
-13.95
1.04
17.16
32.94
46.76
57.36
64.24
67.71
68.66
68.11
66.84
65.27
63.56
61.80
60.20
59.10
58.80
59.36
60.46
61.46
61.59
60.23
57.18
52.71
47.45
42.17
37.48
33.68
30.61
27.76
24.47
20.17
14.65
8.09
1.00
-6.00
-12.52
-18.51
-24.31
-30.40
-37.20
-44.85
-53.22
-61.92
-70.46
-78.19
-84.34
-88.05
-88.53
-85.45
-79.22
-70.95
-62.09
-53.78
-46.25
-38.75
-30.01
-19.06
-5.93
8.15
21.26
31.57
38.18
41.36
42.33
42.58
43.23
44.73
46.96
49.53
52.08
54.37
56.25
57.49
57.79
56.90
54.85
52.09
49.34
47.40
46.71
47.16
48.03
48.21
46.57
42.33
35.30
25.92
15.06
3.80
-6.73
-15.53
-21.74
-24.83
-24.78
-22.37
-19.20
-17.29
-18.39
-23.17
-30.87
-39.52
-46.76
-50.94
-51.62
-49.61
-46.22
-42.54
-38.86
-34.77
-29.83
-24.02
-18.10
-13.29
-10.75
-10.93
-13.37
-16.82
-19.81
-21.15
-20.42
-17.86
-14.15
-10.01
-5.83
-1.66
2.69
7.46
12.70
18.24
23.82
29.17
34.06
38.33
41.85
44.45
45.99
46.34
45.50
43.63
40.98
37.89
34.69
31.65
28.95
26.68
24.76
22.86
20.39
16.53
10.33
1.04
-11.55
-26.95
-43.80
-60.21
-74.17
-84.13
-89.47
-90.57
-88.55
-84.80
-80.44
-76.04
-71.53
-66.49
-60.46
-53.30
-45.35
-37.33
-30.19
-24.67
-21.12
-19.22
-18.07
-16.44
-13.05
-6.93
2.38
14.85
30.00
47.02
64.84
82.16
97.55
109.62
117.34
120.30
118.89
114.19
107.70
100.83
94.51
88.93
83.68
77.93
70.96
62.43
52.53
41.83
31.00
20.47
10.23
-0.19
-11.43
-24.00
-37.89
-52.30
-65.70
-76.10
-81.73
-81.51
-75.50
-64.84
-51.41
-37.24
-23.96
-12.59
-3.39
3.94
10.07
15.88
22.25
29.85
38.94
49.30
60.18
70.60
79.62
86.59
91.27
93.79
94.52
93.90
92.31
89.93
86.79
82.76
77.66
71.44
64.27
56.51
48.63
40.99
33.79
26.96
20.32
13.64
6.79
-0.30
-7.64
-15.23
-23.11
-31.26
-39.61
-47.90
-55.78
-62.84
-68.78
-73.58
-77.52
-81.15
-85.19
-90.26
-96.70
-104.36
-112.50
-119.80
-124.66
-125.61
-121.74
-112.97
-100.10
-84.52
-67.81
-51.39
-36.29
-23.12
-12.13
-3.38
3.20
7.72
10.33
11.26
10.90
9.83
8.81
8.66
9.92
12.69
16.58
20.86
24.86
28.14
30.65
32.47
33.67
34.14
33.71
32.33
30.25
28.02
26.14
24.85
23.85
22.41
19.73
15.36
9.53
3.09
-2.84
-7.41
-10.45
-12.62
-15.09
-19.12
-25.41
-33.74
-42.86
-50.79
-55.34
-54.76
-48.41
-37.08
-22.89
-8.75
2.66
9.76
12.55
12.44
11.48
11.37
12.78
15.28
17.86
19.69
20.72
21.85
24.52
30.11
39.31
51.75
66.13
80.39
92.27
99.70
101.17
96.11
85.07
69.74
52.57
36.22
22.69
12.83
6.13
1.02
-4.42
-11.88
-22.41
-36.40
-53.58
-73.20
-93.99
-114.23
-131.97
-145.45
-153.64
-156.54
-155.28
-151.66
-147.60
-144.50
-142.85
-142.26
-141.70
-140.10
-136.86
-132.11
-126.75
-122.07
-119.17
-118.30
-118.46
-117.44
-112.48
-101.26
-82.91
-58.38
-30.07
-0.72
27.77
54.96
81.60
108.65
136.32
163.64
188.72
209.54
224.64
233.29
235.51
231.89
223.32
211.01
196.40
181.12
166.68
153.99
143.04
132.77
121.58
108.32
93.14
77.78
64.89
56.74
53.88
54.57
55.49
53.30
46.34
35.37
22.96
11.74
2.70
-5.64
-16.46
-32.86
-56.13
-84.84
-115.57
-144.69
-170.28
-192.84
-214.55
-237.42
-261.40
-283.78
-300.30
-307.20
-302.91
-288.53
-266.75
-240.07
-209.61
-175.09
-135.73
-91.49
-43.52
6.02
54.87
101.46
145.20
186.08
223.77
257.08
283.95
302.05
309.70
306.35
292.36
268.51
235.28
192.62
140.26
78.42
8.60
-65.97
-140.36
-208.63
-265.11
-305.80
-329.31
-336.97
-331.94
-317.77
-296.91
-270.23
-237.44
-198.16
-153.06
-104.24
-54.85
-8.36
32.15
64.31
86.57
98.37
100.54
95.52
87.10
79.58
76.25
78.40
84.90
92.82
98.83
100.68
98.37
94.24
92.01
94.94
104.03
117.36
131.00
141.00
145.57
145.88
145.16
146.64
151.34
157.47
161.54
160.45
152.91
139.40
120.97
97.98
70.21
38.05
3.94
-27.53
-51.50
-65.83
-73.24
-81.08
-98.33
-131.23
-179.81
-237.33
-292.79
-335.19
-357.33
-357.45
-338.74
-307.13
-268.80
-228.83
-190.67
-156.43
-127.09
-102.47
-81.29
-61.57
-41.49
-20.16
1.94
23.34
42.42
58.05
70.00
78.63
84.43
87.91
89.57
90.12
90.35
90.77
91.15
90.49
87.55
81.67
73.43
64.69
58.04
55.83
59.14
67.28
78.07
88.56
95.96
98.36
95.02
86.30
73.27
57.33
40.02
22.92
7.62
-4.50
-12.51
-16.17
-15.90
-12.54
-7.00
-0.09
7.57
15.40
22.79
29.00
33.32
35.12
34.11
30.46
24.95
19.01
14.61
13.79
18.07
27.87
42.23
59.00
75.34
88.36
95.74
96.24
89.89
78.12
63.31
48.00
33.98
21.68
10.14
-2.34
-17.21
-34.97
-54.97
-75.71
-95.43
-112.48
-125.20
-131.96
-131.15
-121.74
-103.83
-78.90
-49.38
-18.05
12.72
41.10
65.70
85.22
98.71
105.66
106.44
102.46
95.80
88.64
82.69
79.09
78.44
80.71
84.99
89.32
91.05
87.72
78.37
64.15
48.03
33.64
23.76
19.43
19.99
23.84
29.26
35.06
40.43
44.60
46.68
45.93
42.13
35.96
28.81
22.08
16.95
13.86
12.48
11.89
10.90
8.48
4.23
-1.43
-7.27
-11.67
-13.30
-11.61
-7.00
-0.64
6.05
11.91
16.23
18.75
19.47
18.41
15.60
11.22
5.76
0.07
-4.77
-7.81
-8.50
-6.92
-3.76
-0.09
3.08
5.03
5.46
4.39
1.98
-1.63
-6.33
-11.87
-17.88
-23.78
-28.98
-33.04
-35.81
-37.49
-38.45
-39.16
-40.01
-41.34
-43.40
-46.36
-50.23
-54.76
-59.29
-62.75
-63.90
-61.64
-55.49
-45.84
-33.93
-21.48
-10.12
-0.87
6.10
11.30
15.56
19.55
23.51
27.24
30.25
32.07
32.38
31.09
28.22
23.85
18.07
11.12
3.40
-4.44
-11.63
-17.44
-21.49
-23.81
-24.93
-25.62
-26.57
-28.13
-30.16
-32.20
-33.69
-34.30
-34.13
-33.64
-33.57
-34.65
-37.37
-41.79
-47.34
-52.88
-56.84
-57.69
-54.46
-47.18
-36.95
-25.50
-14.67
-5.70
0.99
5.72
9.16
11.86
14.02
15.58
16.43
16.58
16.31
15.97
15.75
15.63
15.28
14.32
12.51
9.97
7.09
4.38
2.14
0.24
-1.78
-4.53
-8.43
-13.49
-19.30
-25.22
-30.68
-35.37
-39.33
-42.90
-46.57
-50.83
-56.01
-62.15
-68.87
-75.35
-80.47
-83.09
-82.36
-78.12
-70.90
-61.79
-52.05
-42.73
-34.38
-27.05
-20.44
-14.21
-8.16
-2.39
2.85
7.31
10.89
13.73
16.08
18.16
20.04
21.56
22.51
22.78
22.51
22.02
21.61
21.35
20.94
19.86
17.57
13.80
8.72
2.76
-3.42
-9.30
-14.58
-19.28
-23.65
-28.08
-33.03
-38.94
-46.04
-54.13
-62.42
-69.54
-73.86
-73.93
-69.05
-59.56
-46.72
-32.32
-18.12
-5.35
5.47
14.45
22.01
28.59
34.40
39.38
43.25
45.66
46.42
45.64
43.84
41.95
41.15
42.53
46.77
53.96
63.41
73.74
83.10
89.56
91.51
88.04
79.15
65.77
49.40
31.84
14.72
-0.73
-13.84
-24.46
-32.81
-39.31
-44.35
-48.11
-50.57
-51.55
-50.99
-49.13
-46.51
-43.63
-40.57
-36.68
-30.78
-21.77
-9.35
5.62
21.19
35.12
45.81
52.85
57.07
59.99
62.98
66.70
70.93
74.84
77.49
78.26
77.06
74.26
70.39
65.88
60.90
55.39
49.31
42.79
36.22
30.08
24.72
20.06
15.64
10.75
4.86
-2.10
-9.69
-17.08
-23.51
-28.59
-32.53
-35.96
-39.68
-44.23
-49.67
-55.52
-61.00
-65.34
-68.18
-69.67
-70.50
-71.61
-73.81
-77.48
-82.23
-86.94
-90.03
-89.85
-85.34
-76.37
-63.84
-49.46
-35.15
-22.56
-12.57
-5.25
0.04
4.37
8.80
14.14
20.72
28.33
36.37
44.00
50.49
55.40
58.62
60.35
60.90
60.59
59.67
58.43
57.10
55.82
54.64
53.41
51.87
49.74
46.84
43.20
39.04
34.69
30.49
26.66
23.23
19.96
16.44
12.28
7.22
1.37
-4.86
-10.90
-16.19
-20.42
-23.63
-26.11
-28.30
-30.56
-32.94
-35.08
-36.21
-35.43
-32.06
-26.03
-18.02
-9.31
-1.29
5.01
9.32
12.01
13.86
15.52
17.27
18.96
20.25
20.85
20.76
20.28
19.74
19.40
19.26
19.07
18.60
17.74
16.60
15.41
14.33
13.33
12.32
11.26
10.42
10.35
11.69
14.81
19.60
25.28
30.63
34.37
35.49
33.56
28.76
21.73
13.35
4.42
-4.48
-13.08
-21.34
-29.39
-37.34
-45.24
-53.00
-60.26
-66.46
-70.81
-72.47
-70.89
-66.01
-58.37
-49.08
-39.43
-30.46
-22.73
-16.20
-10.45
-4.97
0.50
5.91
10.94
15.15
18.23
20.09
20.92
21.12
21.20
21.73
23.22
26.08
30.53
36.56
43.85
51.79
59.51
65.98
70.18
71.30
68.88
62.94
53.96
42.81
30.57
18.29
6.78
-3.53
-12.54
-20.35
-27.17
-33.19
-38.66
-43.90
-49.25
-54.97
-60.91
-66.42
-70.33
-71.34
-68.49
-61.65
-51.68
-40.13
-28.72
-18.72
-10.56
-3.97
1.71
7.00
12.00
16.40
19.79
22.01
23.35
24.37
25.59
27.18
28.84
30.02
30.28
29.58
28.24
26.80
25.60
24.68
23.66
22.08
19.68
16.57
13.23
10.27
8.16
6.95
6.29
5.57
4.10
1.43
-2.53
-7.43
-12.59
-17.16
-20.37
-21.75
-21.32
-19.55
-17.30
-15.65
-15.62
-17.91
-22.62
-29.12
-36.04
-41.59
-44.04
-42.27
-36.18
-26.66
-15.23
-3.48
7.37
16.78
24.74
31.44
37.09
41.67
44.91
46.42
45.86
43.09
38.42
32.55
26.46
21.07
17.03
14.43
12.86
11.70
10.32
8.34
5.68
2.38
-1.49
-5.93
-10.91
-16.27
-21.54
-26.10
-29.37
-31.14
-31.76
-32.08
-33.08
-35.45
-39.23
-43.83
-48.36
-52.01
-54.47
-55.95
-57.07
-58.55
-60.92
-64.40
-68.79
-73.51
-77.59
-79.90
-79.39
-75.40
-67.95
-57.77
-46.13
-34.44
-23.87
-15.08
-8.19
-2.95
1.00
3.88
5.79
6.71
6.71
5.99
4.93
3.95
3.34
3.16
3.18
3.00
2.13
0.23
-2.79
-6.69
-10.95
-14.92
-17.85
-19.06
-17.98
-14.23
-7.66
1.63
13.24
26.59
40.92
55.42
69.28
81.69
91.92
99.42
103.86
105.15
103.35
98.58
90.93
80.46
67.35
52.09
35.49
18.61
2.48
-12.03
-24.26
-33.64
-39.65
-41.86
-40.15
-35.01
-27.58
-19.48
-12.28
-7.03
-4.02
-2.86
-2.81
-3.22
-3.76
-4.43
-5.40
-6.70
-8.21
-9.59
-10.47
-10.50
-9.51
-7.47
-4.46
-0.65
3.74
8.42
13.07
17.35
20.99
23.83
25.86
27.12
27.61
27.25
25.87
23.29
19.51
14.79
9.60
4.48
-0.09
-3.80
-6.52
-8.19
-8.86
-8.77
-8.36
-8.25
-9.08
-11.30
-14.99
-19.96
-25.81
-32.32
-39.52
-47.56
-56.41
-65.41
-73.22
-78.09
-78.40
-73.43
-63.67
-50.64
-36.22
-21.84
-7.94
5.95
20.69
36.80
53.91
70.79
85.70
97.02
103.79
105.99
104.39
100.30
95.01
89.47
84.08
78.72
72.99
66.44
58.85
50.29
41.03
31.49
22.02
12.99
4.71
-2.54
-8.54
-13.17
-16.50
-18.78
-20.34
-21.61
-22.91
-24.42
-26.12
-27.87
-29.45
-30.69
-31.54
-32.01
-32.21
-32.26
-32.29
-32.50
-33.09
-34.35
-36.58
-40.08
-44.87
-50.42
-55.50
-58.31
-57.02
-50.44
-38.59
-22.90
-5.73
10.34
23.32
32.39
37.83
40.76
42.53
44.22
46.35
48.86
51.31
53.07
53.70
53.06
51.36
49.14
46.96
45.34
44.54
44.63
45.45
46.77
48.28
49.71
50.82
51.53
51.91
52.22
52.73
53.55
54.45
54.84
53.86
50.79
45.37
37.93
29.29
20.28
11.48
2.94
-5.61
-14.44
-23.58
-32.69
-41.24
-48.72
-54.93
-59.96
-64.16
-68.00
-71.92
-76.24
-80.93
-85.52
-88.90
-89.55
-85.91
-77.00
-62.96
-45.15
-25.84
-7.55
7.75
19.07
26.37
30.33
31.75
31.33
29.55
26.73
23.24
19.41
15.59
11.94
8.50
5.19
1.97
-1.11
-3.95
-6.42
-8.50
-10.32
-12.09
-14.02
-16.27
-18.94
-22.10
-25.79
-30.08
-34.98
-40.45
-46.31
-52.36
-58.37
-64.21
-69.85
-75.32
-80.72
-86.09
-91.34
-96.25
-100.43
-103.55
-105.34
-105.83
-105.37
-104.56
-104.17
-104.94
-107.37
-111.50
-116.74
-121.76
-124.73
-123.71
-117.29
-105.07
-87.93
-67.74
-46.78
-26.97
-9.47
5.46
18.15
29.01
38.29
45.91
51.70
55.68
58.24
60.14
62.16
64.85
68.29
71.99
75.21
77.28
78.00
77.67
77.00
76.74
77.39
79.02
81.34
83.90
86.30
88.23
89.51
89.88
89.01
86.54
82.22
76.09
68.51
60.07
51.36
42.80
34.54
26.43
18.18
9.47
-0.01
-10.47
-22.04
-34.80
-48.72
-63.56
-78.66
-92.86
-104.53
-111.88
-113.52
-108.93
-98.79
-84.71
-68.82
-53.02
-38.55
-25.86
-14.85
-5.27
3.01
9.92
15.39
19.52
22.77
25.77
29.15
33.28
38.07
43.09
47.73
51.49
54.22
56.09
57.50
58.84
60.29
61.66
62.51
62.32
60.73
57.78
53.91
49.78
45.97
42.74
39.95
37.21
34.04
30.15
25.47
20.14
14.37
8.40
2.52
-3.05
-8.08
-12.57
-16.77
-21.23
-26.63
-33.52
-41.90
-50.96
-59.11
-64.30
-64.68
-59.33
-48.62
-34.19
-18.33
-3.20
9.77
20.15
28.27
34.70
39.87
43.84
46.46
47.62
47.48
46.54
45.46
44.90
45.22
46.41
48.19
50.05
51.51
52.23
52.10
51.13
49.42
47.06
44.21
41.08
37.96
35.10
32.58
30.27
27.88
25.18
22.14
18.97
16.01
13.47
11.23
8.88
5.90
1.97
-2.84
-8.02
-12.89
-16.91
-19.91
-22.15
-24.15
-26.52
-29.79
-34.29
-40.04
-46.69
-53.41
-58.90
-61.60
-60.09
-53.62
-42.47
-28.01
-12.30
2.51
14.86
24.03
30.08
33.51
34.90
34.69
33.25
31.03
28.67
26.88
26.27
27.06
29.04
31.71
34.47
36.94
38.99
40.74
42.40
44.13
45.98
47.86
49.56
50.79
51.27
50.80
49.32
46.92
43.83
40.26
36.37
32.22
27.83
23.16
18.15
12.65
6.52
-0.30
-7.71
-15.34
-22.71
-29.32
-34.90
-39.54
-43.67
-47.90
-52.80
-58.68
-65.36
-72.11
-77.72
-80.71
-79.75
-74.16
-64.16
-50.94
-36.33
-22.21
-10.04
-0.59
6.01
10.06
11.95
12.09
11.01
9.42
8.27
8.58
11.10
16.05
22.94
30.69
38.03
43.90
47.81
49.88
50.55
50.29
49.31
47.54
44.74
40.78
35.82
30.27
24.74
19.80
15.83
13.00
11.20
10.10
9.21
8.01
6.06
3.16
-0.56
-4.79
-9.12
-13.29
-17.27
-21.28
-25.68
-30.83
-36.91
-43.78
-50.89
-57.27
-61.62
-62.60
-59.27
-51.43
-39.81
-25.91
-11.54
1.72
12.94
21.89
28.74
33.63
36.37
36.47
33.56
27.73
19.82
11.17
3.20
-3.08
-7.38
-10.05
-11.75
-13.14
-14.63
-16.43
-18.65
-21.37
-24.63
-28.34
-32.20
-35.80
-38.75
-40.89
-42.38
-43.67
-45.27
-47.59
-50.77
-54.62
-58.79
-62.85
-66.55
-69.86
-73.04
-76.57
-81.06
-86.98
-94.39
-102.67
-110.45
-115.76
-116.65
-111.89
-101.47
-86.68
-69.77
-53.11
-38.58
-27.03
-18.43
-12.20
-7.66
-4.30
-1.83
-0.05
1.27
2.43
3.67
5.17
6.97
9.02
11.28
13.72
16.42
19.43
22.74
26.10
29.08
31.09
31.66
30.68
28.46
25.64
22.92
20.71
19.00
17.38
15.40
12.78
9.76
6.94
5.17
5.13
7.03
10.30
13.51
14.72
12.19
5.39
-4.32
-13.65
-18.49
-15.56
-3.87
14.79
36.62
57.45
74.36
86.54
94.96
101.56
108.16
115.86
124.64
133.09
138.39
136.68
124.28
99.35
63.40
21.58
-18.58
-49.65
-66.83
-69.31
-59.97
-43.79
-25.94
-10.43
0.32
5.35
4.77
-0.46
-8.67
-17.72
-25.50
-30.40
-31.64
-29.41
-24.76
-19.37
-15.13
-13.63
-15.59
-20.58
-27.05
-32.97
-36.58
-36.89
-33.75
-27.40
-17.98
-5.23
11.35
32.08
56.98
85.94
118.94
155.93
196.09
236.85
273.49
299.99
310.85
303.22
277.90
238.83
191.14
139.00
84.56
28.38
-28.96
-85.45
-137.39
-180.65
-212.64
-233.86
-247.95
-260.17
-275.15
-294.91
-318.09
-340.69
-357.86
-365.61
-361.91
-346.70
-321.00
-286.02
-242.81
-192.71
-138.13
-83.11
-32.94
7.12
33.55
45.96
47.36
43.25
39.84
42.10
52.38
70.10
92.39
115.35
135.45
150.55
160.37
166.12
169.82
173.33
177.56
182.12
185.33
184.72
177.79
162.83
139.54
109.21
74.61
39.39
7.37
-18.06
-34.59
-41.26
-38.53
-28.15
-12.81
4.33
20.10
31.81
37.44
35.86
27.02
11.97
-7.17
-27.43
-45.48
-58.68
-65.86
-67.85
-67.56
-69.43
-78.35
-98.21
-130.06
-170.72
-212.63
-245.46
-259.29
-248.29
-212.99
-159.97
-98.85
-38.24
17.33
67.80
115.63
162.56
207.52
246.72
275.73
292.01
296.22
291.69
282.68
272.49
262.32
251.19
236.92
217.34
191.24
158.98
122.28
83.61
45.57
10.33
-20.42
-45.31
-63.10
-72.77
-74.00
-67.61
-55.81
-41.70
-28.44
-18.33
-12.31
-10.01
-10.15
-11.25
-12.24
-13.04
-14.94
-20.71
-33.63
-55.65
-85.30
-116.66
-140.64
-148.35
-135.13
-103.03
-60.19
-17.33
16.87
38.90
50.58
56.39
60.31
63.42
64.48
62.05
56.55
50.39
46.27
44.79
43.22
36.78
21.58
-2.13
-28.82
-49.48
-55.73
-43.84
-16.21
20.29
58.34
93.62
125.89
157.02
187.72
215.25
233.76
237.04
222.01
190.49
148.71
104.52
64.10
29.82
0.48
-27.47
-57.83
-93.08
-133.73
-178.46
-224.68
-269.21
-308.61
-339.58
-359.56
-367.60
-365.29
-357.38
-351.02
-353.61
-369.81
-399.08
-435.13
-467.99
-487.74
-488.08
-468.26
-432.30
-386.56
-337.03
-287.68
-240.50
-196.52
-156.79
-122.41
-93.95
-70.68
-50.28
-29.37
-4.65
25.79
61.51
99.60
135.39
164.01
182.04
188.69
185.95
177.63
167.77
159.14
152.64
147.61
142.71
136.91
129.87
121.81
112.99
103.38
92.71
80.89
68.51
57.06
48.76
45.88
49.90
60.72
76.58
94.50
111.33
124.90
134.53
141.02
145.63
149.16
151.26
150.66
146.10
137.33
125.73
113.97
104.96
100.52
100.66
103.66
106.98
108.34
106.64
102.09
95.81
89.13
82.86
77.04
71.09
64.28
56.26
47.42
38.89
32.06
28.00
26.91
28.16
30.76
33.89
36.99
39.22
38.98
34.04
22.57
4.28
-18.95
-43.73
-66.66
-85.75
-100.85
-112.79
-122.01
-127.82
-128.73
-123.70
-113.39
-100.22
-87.42
-77.41
-70.73
-65.96
-60.81
-53.49
-43.87
-33.49
-25.00
-20.84
-22.08
-27.90
-35.96
-43.19
-46.59
-43.82
-33.61
-16.08
6.96
32.10
55.15
72.36
81.85
84.24
82.15
78.76
76.41
75.85
76.54
77.44
77.78
77.12
75.06
70.95
63.97
53.64
40.32
25.27
10.18
-3.45
-14.82
-24.23
-32.82
-42.16
-53.40
-66.60
-80.39
-92.24
-99.23
-99.13
-91.32
-76.99
-58.73
-39.53
-21.82
-6.92
4.96
14.32
21.74
27.51
31.67
34.17
35.17
35.07
34.46
33.86
33.55
33.54
33.60
33.52
33.29
33.08
33.14
33.60
34.28
34.76
34.47
32.99
30.31
26.82
23.17
20.02
17.70
16.09
14.64
12.58
9.24
4.32
-2.00
-9.09
-16.06
-22.11
-26.87
-30.57
-34.03
-38.40
-44.78
-53.76
-65.18
-77.93
-90.13
-99.46
-103.76
-101.64
-92.89
-78.58
-60.72
-41.64
-23.36
-7.12
6.68
18.27
28.13
36.67
44.12
50.52
55.91
60.44
64.29
67.71
70.81
73.57
75.80
77.28
77.90
77.74
77.01
75.90
74.48
72.66
70.22
66.96
62.81
57.82
52.15
46.02
39.69
33.44
27.53
22.12
17.16
12.41
7.50
2.12
-3.76
-9.91
-15.91
-21.35
-26.03
-30.04
-33.72
-37.55
-42.02
-47.63
-54.73
-63.35
-73.00
-82.53
-90.15
-93.92
-92.30
-84.76
-72.05
-56.00
-38.88
-22.71
-8.76
2.63
11.79
19.33
25.77
31.33
35.99
39.66
42.35
44.25
45.63
46.79
47.88
48.89
49.68
50.07
49.95
49.32
48.13
46.33
43.71
40.10
35.42
29.86
23.88
18.03
12.80
8.32
4.24
-0.19
-5.85
-13.30
-22.54
-32.92
-43.34
-52.66
-60.09
-65.39
-68.77
-70.60
-71.16
-70.47
-68.41
-64.99
-60.53
-55.80
-51.84
-49.70
-50.10
-53.06
-57.77
-62.53
-65.21
-63.79
-57.09
-45.14
-29.22
-11.40
6.18
21.94
35.17
45.90
54.57
61.58
67.11
71.17
73.78
75.10
75.46
75.30
74.97
74.66
74.36
73.93
73.21
72.11
70.65
68.88
66.87
64.64
62.13
59.26
55.92
52.04
47.60
42.71
37.53
32.28
27.18
22.35
17.89
13.85
10.25
7.03
4.07
1.08
-2.22
-6.08
-10.54
-15.36
-20.20
-24.63
-28.43
-31.68
-34.78
-38.39
-43.21
-49.79
-58.21
-67.83
-77.20
-84.31
-87.08
-84.07
-75.08
-61.24
-44.72
-27.99
-13.03
-0.87
8.42
15.40
20.77
24.98
28.22
30.46
31.77
32.43
32.92
33.73
35.25
37.59
40.55
43.75
46.81
49.41
51.41
52.80
53.62
53.86
53.44
52.16
49.87
46.51
42.20
37.28
32.25
27.57
23.50
19.94
16.41
12.24
6.84
0.01
-7.94
-16.31
-24.26
-31.15
-36.75
-41.28
-45.27
-49.32
-54.03
-59.82
-66.87
-74.96
-83.18
-89.97
-93.37
-91.55
-83.53
-69.67
-51.62
-31.81
-12.60
4.47
18.90
31.05
41.59
50.87
58.77
64.82
68.56
69.89
69.13
66.83
63.46
59.25
54.15
48.09
41.17
33.75
26.42
19.76
14.21
9.93
6.88
4.83
3.49
2.58
1.87
1.21
0.54
-0.10
-0.67
-1.11
-1.51
-2.04
-2.98
-4.63
-7.17
-10.62
-14.78
-19.25
-23.56
-27.35
-30.44
-32.90
-34.98
-37.15
-39.98
-44.07
-49.85
-57.19
-65.17
-72.01
-75.47
-73.54
-65.28
-51.23
-33.37
-14.53
2.58
16.03
25.07
29.98
31.61
31.00
29.05
26.46
23.80
21.58
20.30
20.37
21.99
25.09
29.27
33.87
38.23
41.79
44.32
45.88
46.69
46.92
46.67
45.80
44.17
41.68
38.38
34.54
30.55
26.86
23.90
22.05
21.44
21.92
22.98
23.85
23.72
22.05
18.85
14.67
10.37
6.66
3.76
1.21
-1.98
-6.90
-14.35
-24.53
-36.78
-49.68
-61.13
-68.69
-70.18
-64.23
-50.90
-31.76
-9.65
12.21
31.22
46.11
57.27
66.32
75.32
85.82
98.30
112.07
125.69
137.65
147.01
153.65
157.95
160.20
160.10
156.55
148.00
133.02
110.82
81.29
44.90
2.72
-43.25
-89.64
-131.63
-163.74
-181.36
-182.55
-169.18
-146.55
-121.75
-101.28
-89.10
-85.91
-89.75
-97.39
-105.68
-112.47
-116.73
-118.26
-117.34
-114.44
-110.16
-105.16
-100.11
-95.38
-90.62
-84.42
-74.28
-56.96
-29.52
9.19
57.16
109.03
157.54
195.90
220.06
229.65
227.30
216.94
202.40
186.88
173.23
164.24
162.08
166.96
176.02
183.60
183.02
169.48
142.07
103.94
60.44
16.41
-25.74
-66.23
-106.62
-148.07
-189.88
-229.33
-262.52
-285.62
-295.97
-292.47
-275.56
-246.94
-209.63
-167.74
-125.92
-88.04
-55.77
-28.07
-2.35
22.96
46.12
61.86
63.70
47.92
16.57
-22.48
-58.49
-82.21
-88.80
-78.42
-54.69
-23.04
10.15
38.04
54.32
55.59
44.11
28.96
23.47
39.99
84.00
151.30
229.57
303.67
361.28
396.23
408.37
400.85
377.47
341.49
296.22
246.11
197.02
154.96
123.65
102.63
87.29
71.07
49.20
21.63
-6.67
-28.16
-36.88
-32.20
-19.89
-9.97
-12.26
-32.02
-67.94
-113.00
-157.99
-195.10
-220.30
-233.62
-237.79
-236.71
-234.41
-234.76
-241.18
-255.71
-277.70
-303.10
-325.33
-338.07
-338.14
-327.14
-310.22
-292.67
-276.39
-258.40
-232.58
-193.58
-140.58
-78.74
-17.38
33.70
68.16
85.20
89.01
86.48
84.22
86.35
93.33
102.50
109.64
110.59
102.75
85.36
58.66
23.01
-21.53
-74.31
-132.72
-191.68
-245.04
-288.47
-322.02
-350.24
-379.29
-412.56
-447.50
-475.99
-488.22
-477.88
-445.41
-397.57
-343.65
-291.20
-243.58
-200.46
-160.23
-122.33
-87.64
-57.32
-31.26
-7.34
18.01
48.07
84.34
126.12
171.13
217.03
262.29
306.04
347.47
385.41
418.45
445.44
465.61
477.99
480.52
469.76
442.42
398.06
341.47
282.48
232.72
200.59
187.08
185.22
183.40
170.63
140.82
94.09
35.31
-28.28
-88.87
-139.08
-172.44
-184.56
-174.55
-146.26
-107.83
-69.38
-39.68
-23.59
-21.30
-29.58
-43.94
-60.56
-77.18
-92.91
-107.44
-120.26
-130.11
-134.93
-132.18
-119.71
-96.75
-64.60
-26.54
13.11
50.32
82.70
109.83
132.75
152.77
170.44
185.02
194.94
198.61
195.26
185.24
169.73
150.00
126.98
101.19
73.13
43.75
14.66
-12.13
-34.83
-52.32
-64.28
-70.81
-71.82
-66.72
-54.67
-35.49
-10.74
15.93
39.23
53.82
56.01
45.01
23.02
-5.68
-36.35
-65.14
-89.71
-109.15
-123.53
-133.55
-140.50
-146.25
-152.94
-162.08
-173.40
-184.18
-189.64
-184.59
-165.68
-133.07
-90.87
-45.77
-4.52
28.32
51.52
66.74
77.05
85.41
93.74
102.60
111.70
120.48
128.60
136.48
145.44
157.56
174.78
197.93
225.54
253.67
276.81
289.67
289.21
275.97
254.29
230.90
212.39
203.06
203.19
208.70
212.28
205.87
183.46
143.42
89.37
29.41
-25.39
-63.48
-76.31
-61.49
-24.39
22.71
64.17
86.35
81.61
51.55
5.72
-43.33
-85.93
-118.44
-142.66
-162.45
-180.10
-196.84
-211.07
-219.84
-221.79
-219.54
-218.78
-225.17
-241.52
-267.10
-303.08
-348.64
-399.38
-448.08
-487.53
-512.06
-517.80
-503.03
-468.71
-425.29
-382.44
-343.51
-306.05
-267.37
-228.16
-192.13
-164.09
-148.48
-157.15
-197.39
-266.35
-352.65
-443.28
-527.68
-597.85
-648.32
-620.93
-493.17
-295.76
-91.71
71.61
181.25
246.43
282.17
300.51
306.79
297.44
269.80
229.34
187.88
155.47
135.72
127.12
126.34
128.51
124.39
108.96
85.34
62.29
47.49
43.68
49.45
61.46
76.18
87.16
90.40
87.15
82.40
80.74
83.98
91.46
101.27
111.24
117.92
119.12
115.52
110.03
105.66
104.18
105.97
110.40
116.25
121.62
124.97
126.12
126.03
126.18
127.99
132.70
141.16
153.56
168.98
184.99
197.93
203.69
199.13
183.43
158.70
129.62
101.97
80.93
69.61
68.49
75.84
88.73
104.04
119.21
132.45
142.71
149.52
152.87
153.12
150.98
147.44
143.62
140.44
138.47
137.73
137.82
138.11
138.04
137.35
136.01
134.08
131.41
127.66
122.29
114.82
105.08
93.32
80.15
66.39
52.82
40.00
28.14
17.18
6.89
-2.97
-12.45
-21.41
-29.55
-36.64
-42.74
-48.20
-53.78
-60.37
-68.70
-79.00
-90.61
-101.85
-110.25
-113.19
-108.75
-96.39
-77.25
-53.77
-28.85
-5.03
16.14
34.17
49.14
61.33
70.78
77.39
81.16
82.44
82.06
81.09
80.50
80.77
81.81
83.03
83.64
83.07
81.00
77.45
72.54
66.49
59.49
51.89
44.18
36.96
30.69
25.57
21.39
17.62
13.70
9.28
4.32
-0.91
-6.05
-10.81
-15.20
-19.44
-23.96
-29.32
-36.06
-44.66
-55.16
-66.98
-78.65
-88.03
-92.83
-91.41
-83.46
-70.18
-53.92
-37.36
-22.65
-10.87
-2.01
4.50
9.33
12.82
15.00
15.77
15.24
13.79
12.07
10.70
10.07
10.16
10.51
10.44
9.21
6.27
1.32
-5.62
-14.28
-24.23
-34.93
-45.78
-56.18
-65.48
-73.17
-78.93
-82.70
-84.73
-85.45
-85.31
-84.59
-83.38
-81.56
-79.05
-75.96
-72.70
-70.00
-68.73
-69.63
-73.04
-78.41
-84.33
-88.52
-88.48
-82.28
-69.23
-50.24
-27.55
-4.02
17.83
36.35
51.01
62.15
70.45
76.54
80.79
83.38
84.46
84.38
83.65
82.82
82.26
82.01
81.70
80.79
78.92
76.01
72.39
68.45
64.40
60.10
55.14
49.12
42.00
34.20
26.52
19.82
14.63
10.97
8.32
5.87
2.87
-1.06
-5.79
-10.81
-15.48
-19.39
-22.52
-25.30
-28.47
-32.77
-38.71
-46.36
-55.20
-63.94
-70.63
-73.08
-69.43
-58.94
-42.30
-21.54
0.60
21.59
39.78
54.66
66.61
76.38
84.63
91.63
97.39
101.82
104.85
106.56
107.04
106.29
104.12
100.26
94.47
86.84
77.90
68.52
59.63
51.86
45.33
39.74
34.59
29.51
24.38
19.25
14.16
9.00
3.44
-2.83
-9.99
-17.97
-26.58
-35.52
-44.64
-53.99
-63.82
-74.59
-86.85
-101.03
-117.12
-134.40
-151.25
-165.36
-174.28
-176.13
-170.27
-157.49
-139.81
-119.82
-99.90
-81.68
-65.86
-52.44
-41.08
-31.44
-23.32
-16.52
-10.71
-5.34
0.25
6.61
13.92
21.89
29.77
36.59
41.50
43.97
43.90
41.44
36.86
30.41
22.43
13.44
4.23
-4.25
-11.16
-16.08
-19.22
-21.29
-23.27
-25.97
-29.70
-34.26
-39.07
-43.53
-47.32
-50.52
-53.59
-57.25
-62.19
-68.88
-77.27
-86.62
-95.44
-101.67
-103.15
-98.33
-86.87
-69.91
-49.70
-28.88
-9.63
6.88
20.42
31.26
39.62
45.40
48.24
47.93
44.67
39.19
32.63
26.13
20.59
16.51
14.01
12.97
13.22
14.56
16.80
19.70
22.86
25.79
27.90
28.80
28.37
26.95
25.10
23.45
22.36
21.66
20.74
18.79
15.19
9.89
3.48
-3.01
-8.54
-12.50
-14.93
-16.46
-18.11
-20.91
-25.57
-32.13
-39.82
-46.90
-51.02
-49.80
-41.59
-26.16
-4.85
19.80
44.89
68.12
88.28
105.27
119.70
132.32
143.68
153.96
163.21
171.47
178.98
186.13
193.32
200.78
208.39
215.58
221.37
224.65
224.33
219.65
210.19
195.98
177.23
154.40
128.09
99.02
68.01
35.82
3.03
-29.87
-62.32
-93.19
-120.58
-142.02
-155.13
-158.69
-153.32
-141.62
-127.49
-114.97
-107.11
-105.38
-109.68
-118.63
-130.03
-141.15
-149.07
-151.24
-146.26
-134.49
-117.91
-99.45
-81.70
-65.77
-51.02
-35.71
-18.36
1.03
20.70
37.72
49.29
53.85
51.20
42.04
27.34
8.30
-13.11
-33.59
-48.72
-54.31
-48.38
-32.68
-12.36
5.96
17.05
19.13
14.01
5.67
-2.20
-7.61
-10.57
-12.22
-14.02
-17.26
-23.09
-32.31
-44.77
-59.05
-72.64
-82.94
-88.72
-91.05
-92.88
-97.50
-106.60
-119.23
-132.15
-141.41
-144.18
-139.90
-130.16
-117.82
-105.84
-96.35
-90.29
-87.55
-87.37
-89.13
-92.79
-98.71
-106.93
-116.23
-123.88
-126.34
-120.68
-105.90
-83.38
-56.03
-26.85
2.26
30.73
58.64
85.70
110.75
131.96
147.61
156.82
159.72
157.17
150.32
140.21
127.72
113.65
98.70
83.44
68.39
53.98
40.54
28.23
16.91
6.06
-5.10
-17.46
-31.63
-47.66
-64.72
-81.08
-94.25
-101.63
-101.22
-92.41
-76.25
-55.27
-32.67
-11.39
6.65
20.82
31.42
39.21
44.88
48.79
51.09
52.00
51.90
51.42
51.13
51.38
52.09
52.79
52.77
51.39
48.31
43.55
37.50
30.67
23.63
16.85
10.58
4.88
-0.34
-5.26
-10.01
-14.57
-18.82
-22.57
-25.72
-28.36
-30.78
-33.43
-36.79
-41.32
-47.35
-54.99
-63.97
-73.52
-82.27
-88.47
-90.35
-86.77
-77.67
-64.28
-48.80
-33.65
-20.72
-10.83
-3.67
1.73
6.40
10.95
15.50
19.91
24.24
28.85
34.36
41.27
49.60
58.84
68.08
76.37
83.02
87.71
90.48
91.47
90.85
88.76
85.27
80.46
74.38
67.04
58.49
48.90
38.72
28.64
19.37
11.46
4.98
-0.50
-5.80
-11.90
-19.68
-29.71
-42.08
-56.16
-70.49
-82.91
-90.99
-92.74
-87.26
-75.16
-58.38
-39.53
-21.13
-4.96
8.16
18.14
25.31
30.04
32.61
33.33
32.68
31.41
30.49
30.75
32.66
36.08
40.22
43.90
45.96
45.61
42.55
37.06
29.78
21.61
13.43
5.93
-0.52
-5.93
-10.59
-14.84
-18.82
-22.39
-25.20
-26.96
-27.69
-27.86
-28.21
-29.57
-32.61
-37.74
-45.11
-54.42
-64.79
-74.60
-81.67
-83.74
-79.33
-68.34
-52.23
-33.56
-15.02
1.40
14.91
25.80
34.84
42.64
49.37
54.81
58.74
61.24
62.81
64.20
66.04
68.62
71.77
75.04
77.87
79.91
81.03
81.37
81.12
80.42
79.22
77.32
74.51
70.64
65.72
59.88
53.39
46.58
39.82
33.42
27.64
22.59
18.24
14.37
10.56
6.29
0.99
-5.79
-14.11
-23.43
-32.47
-39.43
-42.38
-39.99
-32.06
-19.68
-5.03
9.32
21.23
29.54
34.26
36.33
37.01
37.39
38.07
39.10
40.22
41.18
41.91
42.50
43.07
43.54
43.60
42.85
40.97
37.99
34.24
30.19
26.16
22.18
17.93
12.95
6.80
-0.70
-9.54
-19.48
-30.12
-40.97
-51.43
-60.82
-68.48
-74.00
-77.30
-78.85
-79.54
-80.49
-82.65
-86.42
-91.31
-95.89
-98.13
-95.98
-88.10
-74.41
-56.14
-35.48
-14.85
3.72
19.10
31.04
39.89
46.30
50.87
54.05
56.18
57.52
58.33
58.85
59.25
59.56
59.71
59.46
58.64
57.14
54.94
52.04
48.32
43.54
37.45
30.01
21.45
12.33
3.34
-4.99
-12.34
-18.62
-23.79
-27.77
-30.53
-32.06
-32.68
-32.98
-33.75
-35.74
-39.51
-45.39
-53.25
-62.48
-71.80
-79.38
-83.15
-81.48
-73.70
-60.48
-43.62
-25.45
-8.06
7.29
20.23
31.05
40.14
47.68
53.48
57.16
58.43
57.33
54.32
50.10
45.39
40.74
36.29
31.96
27.57
23.07
18.56
14.23
10.21
6.44
2.68
-1.27
-5.52
-10.04
-14.67
-19.31
-23.91
-28.53
-33.19
-37.80
-42.31
-46.65
-50.87
-55.16
-59.86
-65.34
-71.99
-80.14
-89.95
-101.17
-112.91
-123.49
-130.62
-132.02
-126.12
-112.85
-93.71
-71.44
-49.05
-28.86
-11.85
2.24
14.41
25.59
36.15
45.92
54.52
61.85
68.32
74.63
81.32
88.47
95.55
101.72
106.31
109.03
110.00
109.41
107.20
102.93
95.95
85.67
71.77
54.23
33.25
9.14
-17.48
-45.57
-73.46
-99.13
-120.59
-136.53
-146.78
-152.43
-155.53
-158.47
-163.18
-170.41
-179.16
-186.76
-189.62
-184.43
-169.36
-144.92
-113.86
-80.24
-48.10
-20.34
1.75
18.27
29.95
37.58
41.69
42.77
41.54
39.15
37.02
36.47
38.20
42.15
47.41
52.68
56.73
58.89
59.17
58.13
56.57
55.07
53.76
52.31
50.08
46.52
41.38
34.86
27.43
19.73
12.24
5.23
-1.33
-7.66
-14.17
-21.34
-29.65
-39.26
-49.84
-60.27
-68.57
-72.25
-68.91
-57.04
-36.61
-9.24
22.16
54.09
83.38
107.74
126.07
138.26
144.80
146.37
143.67
137.50
128.83
118.90
109.12
100.69
94.36
90.24
87.89
86.54
85.33
83.60
80.87
77.07
72.50
67.83
64.06
62.14
62.69
65.75
70.76
76.78
82.87
88.42
93.14
97.04
100.13
102.28
103.22
102.64
100.48
97.02
92.86
88.65
84.65
80.49
75.15
67.28
55.68
39.68
19.26
-5.02
-32.10
-60.49
-88.17
-112.77
-132.01
-144.44
-149.94
-149.87
-146.46
-141.83
-137.11
-132.12
-125.76
-116.74
-104.34
-88.78
-71.04
-52.57
-34.90
-19.41
-7.03
1.85
7.41
10.30
11.45
11.65
11.60
11.99
13.67
17.75
25.29
36.67
50.97
65.72
77.54
83.23
81.05
71.43
56.95
41.53
29.40
24.03
27.19
38.49
55.21
72.81
85.92
89.72
80.96
58.72
24.22
-19.73
-69.38
-120.54
-168.86
-210.05
-240.43
-257.82
-262.16
-255.50
-241.36
-223.49
-204.76
-186.78
-169.99
-154.09
-138.50
-122.71
-106.54
-90.65
-77.33
-70.82
-76.47
-98.52
-137.20
-186.90
-236.69
-273.64
-287.53
-274.47
-237.66
-185.11
-125.92
-67.13
-12.76
35.39
76.21
108.71
132.62
149.37
162.33
175.43
191.06
208.76
225.64
238.36
245.17
246.93
246.29
245.74
246.05
246.10
243.99
238.62
230.73
222.48
215.97
211.57
207.08
198.34
181.10
153.23
116.13
74.50
34.10
-0.90
-29.60
-53.89
-76.22
-97.15
-114.10
-122.48
-118.41
-101.32
-75.27
-47.78
-27.24
-20.39
-31.11
-60.50
-107.42
-168.42
-237.15
-304.05
-357.69
-387.72
-388.37
-360.79
-312.55
-254.89
-198.39
-149.64
-109.96
-76.93
-47.01
-17.83
11.24
39.63
66.75
92.73
118.30
144.33
171.31
198.85
225.25
247.67
262.89
268.55
264.40
252.43
235.60
215.89
193.07
165.18
130.60
90.04
46.94
5.63
-31.32
-64.54
-96.58
-128.73
-158.33
-178.94
-183.68
-169.71
-140.75
-105.71
-74.05
-50.87
-34.64
-18.84
3.65
36.31
77.30
120.79
160.35
191.77
214.22
229.31
239.58
247.30
254.11
260.99
268.39
275.94
282.16
284.61
280.52
267.57
244.44
211.05
168.75
120.52
71.44
28.41
-0.91
-10.57
1.02
29.39
64.76
94.99
109.87
104.24
79.03
39.80
-6.12
-52.56
-95.93
-135.58
-173.10
-210.97
-251.09
-293.29
-334.34
-368.28
-388.01
-387.88
-365.96
-324.76
-270.21
-209.71
-150.38
-98.53
-60.04
-40.39
-43.20
-67.77
-107.30
-149.67
-181.33
-192.60
-181.42
-153.46
-118.51
-85.58
-59.32
-39.68
-24.12
-10.60
0.86
8.71
11.51
9.27
3.69
-2.82
-8.28
-11.76
-12.82
-11.39
-8.01
-4.25
-3.28
-9.84
-28.97
-64.11
-115.32
-178.65
-247.09
-312.54
-367.83
-408.08
-431.01
-436.46
-425.91
-402.01
-368.57
-330.39
-292.58
-259.43
-233.36
-214.28
-199.88
-186.77
-171.72
-152.70
-129.23
-102.06
-72.53
-42.22
-12.20
17.13
45.83
74.36
103.41
133.94
166.91
202.79
240.76
278.19
310.91
334.35
345.32
343.48
331.76
315.31
299.55
288.17
282.18
280.24
279.67
277.74
272.18
261.23
243.44
217.76
184.11
144.20
101.76
61.89
29.72
8.62
-0.93
-1.27
3.63
9.97
15.49
19.83
23.86
28.43
33.40
37.64
39.73
39.14
36.86
35.12
36.20
41.16
48.98
56.85
61.27
59.49
50.56
35.38
16.10
-5.01
-26.31
-47.25
-68.13
-89.63
-112.22
-135.92
-160.32
-184.62
-207.74
-228.18
-243.65
-250.94
-246.49
-227.95
-195.86
-154.61
-111.69
-75.12
-50.29
-37.68
-32.81
-28.65
-19.05
-1.33
22.99
49.68
74.17
93.54
107.10
115.75
120.73
122.75
121.97
118.44
112.80
106.47
101.41
99.35
100.89
105.14
110.05
113.20
112.78
108.26
100.40
90.72
80.63
70.87
61.21
50.74
38.44
23.80
7.17
-10.23
-26.69
-40.60
-50.97
-57.74
-61.70
-64.12
-66.41
-69.65
-74.41
-80.57
-87.33
-93.23
-96.34
-94.70
-86.90
-72.64
-52.94
-30.05
-6.68
14.71
32.57
46.44
56.63
63.84
68.62
71.31
72.15
71.51
70.01
68.50
67.74
68.17
69.65
71.61
73.25
73.89
73.23
71.37
68.75
65.86
62.93
59.88
56.30
51.65
45.59
38.15
29.89
21.65
14.37
8.61
4.34
1.01
-2.33
-6.59
-12.42
-19.95
-28.66
-37.41
-44.54
-48.24
-47.00
-40.14
-28.11
-12.39
4.96
21.95
37.23
50.28
61.15
70.08
77.00
81.47
82.86
80.75
75.39
67.86
59.93
53.55
50.19
50.39
53.55
58.34
63.15
66.75
68.57
68.63
67.21
64.45
60.19
54.04
45.66
35.05
22.69
9.44
-3.74
-16.16
-27.53
-38.06
-48.20
-58.47
-69.34
-81.08
-93.79
-107.20
-120.39
-131.73
-139.05
-140.16
-133.69
-119.65
-99.64
-76.39
-52.98
-31.83
-14.27
-0.51
9.96
17.84
23.63
27.61
30.03
31.32
32.09
33.00
34.50
36.68
39.22
41.51
42.94
43.11
41.94
39.64
36.63
33.36
30.18
27.23
24.48
21.83
19.38
17.36
15.94
14.89
13.33
10.01
3.69
-6.16
-19.04
-33.70
-48.73
-63.21
-76.88
-89.69
-101.02
-109.30
-112.24
-107.78
-95.17
-75.56
-51.68
-26.88
-3.96
15.53
31.29
43.76
53.41
60.35
64.46
65.66
64.34
61.49
58.48
56.58
56.56
58.37
61.19
63.83
65.19
64.67
62.30
58.67
54.58
50.75
47.54
44.96
42.70
40.22
36.89
32.08
25.32
16.52
6.02
-5.40
-16.82
-27.42
-36.80
-45.05
-52.60
-60.05
-67.76
-75.62
-82.85
-87.98
-89.24
-84.90
-74.05
-56.97
-35.20
-11.20
12.41
33.42
50.47
62.97
71.01
75.00
75.73
74.30
72.13
70.71
71.05
73.29
76.48
78.92
78.78
74.93
67.32
56.98
45.41
33.89
22.97
12.21
0.69
-12.54
-27.75
-44.26
-60.50
-74.53
-84.64
-89.94
-90.66
-88.02
-83.85
-80.09
-78.28
-79.23
-82.92
-88.39
-93.99
-97.56
-96.79
-89.78
-75.48
-54.08
-27.05
3.11
33.57
61.89
86.52
106.83
122.67
133.55
138.34
135.41
123.51
102.84
75.74
46.62
20.83
3.29
-2.89
2.86
18.75
41.28
66.03
88.26
103.42
107.74
99.10
77.87
47.20
12.39
-20.44
-46.07
-61.64
-67.21
-65.36
-60.13
-55.56
-54.57
-58.08
-64.79
-71.54
-74.45
-70.47
-58.64
-40.54
-19.46
1.17
19.32
34.73
48.31
60.87
72.24
81.33
86.84
88.04
84.94
77.63
65.50
46.82
19.49
-17.41
-62.18
-110.19
-155.19
-191.36
-215.27
-226.77
-228.31
-223.43
-215.02
-204.29
-190.74
-173.02
-149.92
-121.30
-88.22
-52.64
-16.72
17.76
49.68
78.42
103.53
124.54
141.02
153.03
161.67
169.08
177.88
190.02
206.09
225.28
246.02
266.72
286.08
302.65
314.26
318.06
311.37
292.96
263.96
227.57
187.70
147.50
108.58
71.35
36.09
3.69
-24.49
-47.60
-66.32
-83.11
-101.41
-124.19
-153.10
-188.24
-228.68
-272.78
-318.16
-361.32
-397.83
-423.50
-436.18
-437.01
-430.03
-419.93
-409.12
-396.04
-375.78
-342.96
-295.10
-234.42
-167.11
-100.44
-39.63
13.88
61.95
107.84
154.18
201.95
250.44
297.91
342.15
380.58
410.25
427.90
430.76
417.48
389.25
350.20
306.93
267.00
236.66
218.85
212.17
211.28
208.92
198.44
176.08
141.90
99.26
53.09
7.94
-33.29
-69.71
-101.95
-131.62
-160.98
-192.62
-228.81
-270.17
-314.47
-356.05
-387.05
-400.09
-391.28
-362.06
-318.83
-270.50
-225.33
-188.85
-163.46
-149.55
-146.80
-154.56
-171.34
-194.02
-217.78
-237.10
-247.50
-246.90
-235.87
-216.96
-193.42
-167.98
-142.46
-117.80
-94.52
-73.01
-53.61
-36.48
-21.42
-7.82
5.28
18.98
34.17
51.24
69.86
89.00
107.09
122.53
134.42
143.17
150.79
160.57
176.11
200.11
233.44
274.69
320.66
367.26
410.61
447.65
476.21
494.72
501.93
497.08
480.21
452.63
416.85
376.01
333.03
289.63
246.08
201.42
154.18
103.28
48.71
-8.24
-65.17
-119.09
-167.20
-207.47
-239.00
-262.11
-278.04
-288.34
-294.28
-296.40
-294.45
-287.54
-274.64
-254.82
-227.52
-192.81
-150.73
-101.11
-44.02
19.12
84.60
146.34
196.71
228.56
237.31
223.15
191.18
149.78
107.54
70.47
40.63
16.08
-7.77
-37.26
-77.26
-129.15
-189.68
-251.39
-304.12
-337.10
-342.56
-318.70
-274.06
-223.00
-180.88
-159.19
-162.34
-186.30
-219.35
-247.10
-256.81
-246.88
-220.64
-183.03
-139.32
-96.23
-61.73
-42.06
-42.08
-62.17
-106.89
-173.93
-252.69
-328.98
-392.69
-440.94
-474.67
-499.13
-518.99
-548.98
-597.66
-662.20
-730.52
-789.38
-829.94
-846.98
-843.41
-755.59
-566.40
-314.45
-67.97
125.83
257.42
329.06
368.81
392.26
406.70
404.39
381.55
344.35
304.80
273.21
253.75
247.37
249.90
257.86
260.44
251.76
233.91
214.48
200.12
193.12
193.83
199.09
206.53
209.36
203.94
191.51
176.74
163.88
154.71
150.09
148.83
150.15
150.99
149.44
145.74
141.68
139.02
138.60
141.08
146.29
154.41
164.84
177.38
192.08
208.56
225.22
239.07
246.90
246.20
236.48
219.32
197.58
174.15
150.88
128.33
106.15
83.95
62.17
42.22
26.18
15.95
12.52
15.56
23.59
34.37
45.70
55.93
64.19
70.13
73.55
74.11
71.39
65.29
56.42
46.25
36.71
29.41
24.97
22.72
21.00
17.98
12.47
4.34
-5.62
-16.23
-26.48
-35.69
-43.31
-48.59
-50.57
-48.43
-41.95
-31.90
-19.83
-7.47
3.93
13.87
22.41
29.66
35.54
39.96
43.35
47.05
53.12
63.52
78.98
98.40
118.95
136.96
149.27
154.10
151.35
142.20
128.39
111.62
93.38
75.04
57.93
43.33
32.15
24.70
20.57
18.78
18.17
17.75
16.96
15.54
13.42
10.50
6.52
1.23
-5.49
-13.46
-22.24
-31.19
-39.73
-47.48
-54.35
-60.59
-66.70
-73.28
-80.88
-89.60
-98.79
-106.99
-112.02
-111.72
-104.64
-90.77
-71.56
-49.57
-27.62
-7.98
8.03
20.05
28.32
33.32
35.63
35.90
34.92
33.63
32.83
32.98
34.04
35.58
36.93
37.50
36.94
35.17
32.24
28.30
23.44
17.67
10.94
3.17
-5.75
-15.90
-27.36
-40.17
-54.26
-69.49
-85.55
-101.96
-117.98
-132.40
-143.62
-149.74
-149.07
-140.64
-124.71
-102.83
-77.55
-51.72
-27.74
-7.08
9.82
23.19
33.55
41.34
46.92
50.70
53.13
54.82
56.29
57.88
59.64
61.44
63.07
64.42
65.48
66.30
66.83
66.90
66.20
64.42
61.41
57.23
52.20
46.70
41.08
35.37
29.32
22.37
13.87
3.28
-9.57
-24.24
-39.48
-53.31
-63.43
-67.84
-65.52
-56.83
-43.38
-27.46
-11.22
3.90
17.27
28.72
38.20
45.44
50.11
52.10
51.84
50.28
48.49
47.27
46.76
46.54
45.94
44.40
41.80
38.45
34.78
31.06
27.11
22.42
16.36
8.61
-0.56
-10.33
-19.57
-27.23
-32.78
-36.27
-38.35
-40.04
-42.50
-46.69
-53.13
-61.55
-70.74
-78.62
-82.78
-81.25
-73.30
-59.81
-42.96
-25.43
-9.42
3.97
14.76
23.62
31.08
37.19
41.59
43.90
44.22
43.30
42.27
42.14
43.33
45.53
47.86
49.35
49.38
47.92
45.39
42.39
39.31
36.18
32.68
28.35
22.81
16.02
8.27
0.18
-7.50
-14.10
-19.22
-22.80
-25.11
-26.76
-28.54
-31.35
-36.02
-43.05
-52.27
-62.59
-72.12
-78.61
-80.23
-76.29
-67.61
-56.18
-44.34
-34.01
-25.95
-19.86
-14.83
-9.97
-4.81
0.63
6.09
11.46
16.79
22.29
28.10
34.05
39.73
44.53
47.99
49.93
50.53
50.22
49.52
48.82
48.28
47.85
47.31
46.39
44.86
42.58
39.65
36.37
33.24
30.83
29.55
29.48
30.24
31.11
31.25
29.91
26.64
21.48
15.08
8.92
5.18
6.30
14.10
28.79
48.49
69.57
87.87
100.31
105.96
106.12
103.34
99.95
97.05
94.03
89.09
80.08
65.26
44.05
17.07
-14.16
-47.73
-81.78
-114.61
-144.54
-169.76
-188.58
-200.00
-204.23
-202.83
-198.08
-192.07
-185.94
-179.82
-173.62
-167.78
-163.44
-161.59
-161.84
-161.86
-158.27
-148.42
-132.12
-111.99
-92.00
-75.38
-63.06
-53.44
-43.70
-31.68
-17.15
-1.79
11.75
21.38
26.33
27.30
25.74
23.06
20.05
16.81
13.11
8.88
4.52
0.95
-0.69
0.34
3.90
8.82
13.48
16.63
18.08
18.80
20.27
23.52
28.30
33.11
35.95
35.42
31.60
25.96
20.76
18.04
18.94
23.49
30.78
39.36
47.44
53.15
54.85
51.50
43.08
30.74
16.62
3.28
-6.89
-12.26
-12.14
-6.82
2.75
15.24
29.40
44.29
59.51
74.96
90.32
104.55
115.74
121.65
120.57
112.39
98.95
83.52
69.62
59.71
54.37
52.43
51.74
50.18
46.41
40.09
31.47
20.93
8.68
-5.20
-20.44
-36.38
-51.99
-66.22
-78.40
-88.54
-97.20
-105.12
-112.58
-119.18
-123.79
-124.94
-121.26
-111.90
-96.57
-75.71
-50.47
-22.80
4.71
29.34
49.08
63.28
72.92
80.13
87.06
94.82
102.99
109.86
113.53
113.05
109.00
103.26
98.01
94.84
94.15
95.43
97.89
101.18
105.65
112.02
120.78
131.55
142.97
153.21
160.77
165.14
167.05
168.03
169.52
172.14
175.28
177.46
176.99
172.51
163.20
148.62
128.50
102.98
72.95
40.39
8.07
-21.27
-46.01
-66.32
-83.85
-100.84
-119.08
-139.30
-161.38
-184.98
-209.96
-236.23
-263.03
-288.39
-309.17
-321.98
-324.42
-315.86
-297.32
-270.56
-237.24
-198.54
-155.40
-108.80
-59.75
-9.07
42.61
94.40
144.39
189.20
224.32
245.69
251.51
243.38
225.85
204.34
182.76
162.06
140.43
114.80
82.87
44.26
0.49
-45.85
-92.32
-137.73
-182.27
-226.54
-269.96
-309.72
-341.35
-361.22
-369.22
-369.80
-370.14
-376.20
-389.02
-403.75
-412.23
-407.74
-388.74
-359.31
-326.28
-294.86
-265.85
-235.96
-200.65
-157.30
-106.65
-51.78
4.33
60.63
118.53
180.74
249.12
322.97
398.33
468.51
526.00
564.70
581.52
576.98
554.41
518.48
473.68
423.35
369.62
313.81
256.80
198.92
139.73
77.79
11.38
-59.90
-133.48
-203.10
-259.86
-294.94
-302.76
-283.30
-242.20
-188.70
-132.58
-81.42
-39.25
-6.65
18.05
37.07
51.79
61.96
65.53
59.41
40.59
7.22
-40.85
-102.07
-173.34
-249.80
-324.45
-388.42
-432.12
-447.80
-432.18
-387.75
-321.80
-243.40
-159.90
-74.92
10.92
97.32
181.45
256.74
314.43
346.94
351.36
331.15
294.96
253.50
216.06
188.24
171.71
165.42
166.92
173.15
180.52
184.89
182.40
170.68
149.96
123.21
95.04
69.75
50.07
36.70
28.92
25.61
26.12
30.26
37.99
48.93
62.29
77.04
92.18
106.89
120.70
133.39
144.79
154.67
162.75
168.69
171.86
171.37
165.84
153.74
133.95
106.81
74.73
41.95
13.19
-8.18
-21.38
-28.30
-32.46
-37.41
-45.54
-57.83
-74.11
-93.73
-115.64
-138.18
-158.94
-174.94
-183.63
-183.88
-176.48
-163.84
-149.08
-134.74
-122.12
-111.33
-101.66
-92.48
-83.78
-76.31
-71.04
-68.49
-68.21
-69.00
-69.45
-68.61
-66.33
-63.26
-60.39
-58.64
-58.70
-60.89
-65.09
-70.72
-76.54
-80.88
-82.30
-80.60
-77.46
-76.12
-80.27
-92.57
-113.38
-140.45
-169.27
-193.63
-206.73
-202.58
-177.99
-134.26
-77.93
-19.47
30.05
62.69
76.36
74.78
65.01
53.84
45.23
39.69
35.61
31.16
25.48
18.69
11.30
3.65
-4.20
-12.11
-19.49
-25.58
-29.92
-32.52
-33.90
-34.95
-36.61
-39.79
-45.34
-53.79
-65.05
-77.82
-89.60
-97.32
-98.67
-93.48
-84.49
-76.62
-74.90
-82.15
-97.60
-117.49
-137.26
-154.05
-167.76
-179.96
-191.54
-200.51
-201.81
-189.26
-158.66
-110.03
-47.70
21.51
90.95
155.82
213.38
261.70
298.49
321.01
327.13
316.88
293.05
260.48
224.27
188.07
153.25
119.18
84.43
48.06
10.10
-28.82
-68.19
-108.16
-149.10
-190.75
-231.23
-267.24
-294.89
-311.40
-316.47
-312.11
-301.45
-287.00
-269.58
-248.88
-224.91
-199.51
-176.19
-158.32
-146.68
-138.07
-126.24
-104.66
-69.73
-22.64
31.18
84.32
130.58
166.94
193.93
214.48
232.30
250.34
270.22
292.44
317.08
344.41
374.94
408.47
442.70
472.44
490.17
488.50
463.49
416.81
355.79
290.84
231.71
184.44
150.41
127.65
112.97
103.73
98.22
95.01
92.15
86.99
77.04
61.15
40.10
16.28
-7.24
-27.90
-44.40
-56.90
-66.85
-76.26
-87.13
-100.93
-118.36
-139.44
-164.34
-194.06
-230.37
-274.54
-325.32
-377.60
-422.64
-450.69
-454.66
-432.96
-390.01
-334.02
-273.65
-215.12
-161.52
-113.84
-72.75
-39.61
-16.01
-2.64
1.71
-0.17
-5.00
-10.28
-14.76
-18.11
-20.30
-20.82
-18.78
-13.34
-4.41
7.15
19.76
31.93
43.01
53.59
65.03
78.22
92.73
106.49
116.84
122.04
122.51
120.82
120.70
125.42
136.66
154.27
176.72
201.90
227.50
251.25
270.92
284.65
291.36
291.08
284.91
274.69
262.38
249.69
237.86
227.40
218.05
208.89
198.73
186.96
174.10
161.89
152.51
147.25
145.14
142.69
134.95
117.66
89.30
51.97
10.75
-28.41
-61.07
-86.03
-105.54
-123.92
-145.12
-170.39
-197.19
-220.32
-234.29
-236.24
-227.69
-214.19
-203.35
-202.25
-215.44
-244.15
-286.46
-337.90
-391.95
-440.65
-475.77
-490.89
-483.50
-456.02
-415.09
-368.90
-324.26
-284.63
-250.17
-219.40
-191.03
-164.76
-140.78
-118.59
-96.24
-70.84
-40.08
-3.94
34.59
70.14
97.00
111.60
114.10
108.24
99.69
93.58
92.70
96.88
103.92
111.15
116.97
121.42
125.83
131.88
140.64
152.12
165.33
178.76
190.98
200.97
208.05
211.63
210.87
204.41
190.60
168.16
137.01
98.89
57.31
16.67
-18.89
-46.42
-64.40
-72.54
-71.58
-63.48
-51.61
-40.64
-35.29
-38.56
-50.13
-66.09
-80.16
-86.06
-79.93
-61.78
-35.46
-7.34
15.98
29.74
32.52
26.66
17.19
9.90
9.28
16.94
31.46
49.52
67.82
84.63
100.20
116.02
133.29
151.74
169.40
183.27
190.78
191.08
185.63
177.49
169.88
164.80
162.34
161.36
160.54
159.45
158.62
158.86
160.31
162.01
162.19
158.91
150.60
136.43
116.26
90.47
60.02
26.38
-8.56
-42.82
-74.73
-103.05
-126.86
-145.26
-157.50
-163.46
-163.95
-160.75
-156.07
-151.55
-147.56
-143.20
-137.04
-128.03
-116.24
-102.68
-88.69
-75.13
-62.13
-49.28
-36.23
-23.24
-11.30
-1.66
4.75
7.97
9.16
10.23
13.18
19.20
28.13
38.56
48.37
55.52
58.77
57.90
53.59
46.99
39.25
31.27
23.61
16.40
9.40
2.10
-5.95
-14.72
-23.36
-30.26
-33.46
-31.49
-24.10
-12.48
1.07
14.00
24.40
31.52
35.66
37.70
38.39
37.96
36.11
32.48
27.11
20.64
14.08
8.32
3.72
0.13
-2.73
-4.74
-5.22
-3.19
2.04
10.15
19.75
28.76
35.13
37.55
35.72
30.12
21.63
11.20
-0.28
-11.89
-22.64
-31.67
-38.46
-43.07
-46.19
-48.93
-52.51
-57.96
-65.74
-75.67
-86.87
-97.91
-107.11
-112.97
-114.61
-112.11
-106.49
-99.37
-92.39
-86.66
-82.45
-79.21
-75.92
-71.50
-65.33
-57.53
-48.96
-41.06
-35.28
-32.55
-32.85
-35.37
-38.81
-42.04
-44.40
-45.58
-45.22
-42.58
-36.50
-26.03
-11.13
6.97
26.02
43.55
57.85
68.37
75.48
79.80
81.61
80.75
76.86
70.06
61.10
51.31
41.95
33.72
26.38
18.89
9.96
-1.36
-15.22
-30.86
-46.90
-61.75
-74.05
-82.83
-87.42
-87.38
-82.40
-72.54
-58.40
-41.23
-22.65
-4.24
12.85
27.97
40.80
51.15
58.91
64.13
67.34
69.46
71.61
74.61
78.66
83.26
87.43
90.24
91.03
89.54
85.76
79.82
71.99
62.63
52.29
41.57
30.88
20.24
9.37
-2.17
-14.56
-27.58
-40.58
-52.77
-63.52
-72.74
-81.08
-89.97
-101.30
-116.70
-136.53
-159.03
-180.10
-194.15
-195.85
-182.26
-154.17
-116.02
-74.40
-35.79
-4.53
17.93
32.65
41.90
47.85
51.80
54.14
54.87
54.34
53.63
54.38
58.12
65.52
76.04
88.28
100.83
113.11
125.51
138.85
153.46
168.42
181.67
190.87
194.49
192.38
185.72
176.36
166.02
155.99
147.23
140.64
137.05
136.85
139.35
142.36
142.34
135.22
117.78
89.17
51.72
10.79
-26.84
-55.14
-71.05
-75.27
-71.62
-65.06
-59.65
-57.36
-58.21
-61.36
-66.23
-72.87
-81.47
-91.46
-101.04
-107.52
-108.35
-102.26
-89.70
-72.63
-53.68
-35.15
-18.43
-3.78
9.20
20.94
31.36
39.62
44.10
42.90
34.59
18.84
-3.26
-29.41
-56.79
-82.85
-106.22
-127.05
-146.85
-167.58
-190.48
-215.13
-239.27
-259.56
-272.89
-277.71
-274.55
-265.53
-253.22
-239.57
-225.38
-210.73
-195.68
-180.84
-167.30
-156.02
-147.12
-139.62
-131.78
-121.69
-108.04
-90.65
-70.58
-49.97
-31.51
-17.70
-10.08
-8.80
-12.59
-19.25
-26.37
-31.86
-34.27
-32.81
-27.38
-18.33
-6.66
6.20
18.47
28.19
33.62
33.61
27.95
17.52
4.29
-9.09
-19.76
-25.32
-24.37
-16.76
-3.59
12.97
29.88
43.93
52.26
53.25
46.95
35.25
21.32
8.90
1.39
1.28
9.97
28.01
55.37
91.40
134.34
180.86
225.91
263.63
289.35
301.47
302.31
297.18
291.90
290.18
292.18
295.15
295.62
291.61
283.58
273.50
263.21
253.10
241.95
228.02
210.52
190.22
169.19
149.73
133.13
119.22
106.61
93.59
78.94
62.59
45.51
29.17
14.81
2.79
-7.50
-17.41
-28.45
-41.67
-57.13
-73.79
-89.71
-102.50
-110.12
-111.37
-106.25
-95.85
-81.82
-65.84
-49.22
-32.72
-16.88
-2.26
10.33
19.92
25.73
27.55
26.02
22.50
18.71
16.38
16.75
20.32
26.63
34.12
40.16
41.54
35.30
20.01
-3.28
-30.82
-57.14
-76.88
-86.64
-86.15
-77.96
-66.21
-54.86
-46.51
-42.04
-41.01
-42.49
-45.50
-49.26
-53.05
-56.12
-57.67
-57.25
-55.07
-52.09
-49.89
-50.00
-53.13
-58.55
-64.18
-67.17
-65.07
-56.83
-43.24
-26.57
-9.69
4.98
16.15
23.74
28.48
31.42
33.38
34.88
36.08
36.98
37.65
38.32
39.59
42.30
47.34
55.25
65.91
78.45
91.43
103.37
113.20
120.49
125.26
127.68
127.73
125.29
120.43
113.74
106.40
99.78
94.85
91.61
89.16
86.19
81.64
75.29
67.70
59.85
52.59
46.29
40.78
35.53
29.80
22.60
12.84
-0.47
-17.98
-39.71
-65.10
-93.24
-123.21
-154.15
-184.99
-214.08
-239.05
-257.20
-266.24
-265.18
-254.60
-236.49
-213.38
-187.70
-161.24
-135.11
-109.88
-85.71
-62.47
-39.76
-17.11
5.77
28.70
50.96
71.31
88.40
101.34
109.92
114.76
117.04
117.98
118.29
117.83
115.57
109.99
99.78
84.51
65.12
43.82
23.35
6.09
-6.81
-15.70
-22.12
-27.93
-34.57
-42.62
-51.78
-61.42
-70.89
-79.70
-87.47
-93.81
-98.31
-100.77
-101.25
-100.22
-98.26
-95.89
-93.35
-90.61
-87.51
-83.86
-79.59
-74.97
-70.64
-67.71
-67.49
-70.95
-78.24
-88.35
-99.32
-108.88
-115.30
-117.84
-116.81
-113.04
-107.42
-100.61
-93.19
-85.99
-80.23
-77.12
-77.23
-80.04
-83.88
-86.51
-85.96
-81.32
-72.82
-61.64
-49.29
-36.97
-25.45
-15.03
-5.85
1.90
7.92
11.89
13.61
13.26
11.47
9.25
7.79
8.04
10.37
14.44
19.37
24.11
27.93
30.58
32.19
33.02
33.06
32.06
29.62
25.46
19.72
12.89
5.66
-1.39
-7.95
-14.14
-20.39
-27.26
-35.29
-44.85
-55.97
-68.10
-80.07
-90.13
-96.38
-97.23
-92.12
-81.62
-67.35
-51.40
-35.67
-21.45
-9.33
0.56
8.23
13.76
17.24
19.04
19.78
20.26
21.20
23.01
25.70
28.91
32.21
35.32
38.32
41.65
45.88
51.40
58.16
65.52
72.50
78.03
81.26
81.80
79.63
75.01
68.17
59.23
48.14
34.71
18.86
0.90
-18.16
-36.56
-52.00
-62.29
-66.12
-63.55
-56.04
-45.86
-35.26
-25.76
-17.95
-11.66
-6.45
-1.94
2.09
5.67
8.91
11.89
14.65
16.98
18.54
18.93
18.03
16.14
14.03
12.69
12.96
15.15
18.79
22.70
25.42
25.76
23.25
18.35
12.16
5.94
0.61
-3.44
-6.34
-8.58
-10.70
-13.15
-16.16
-19.57
-22.73
-24.41
-23.01
-16.96
-5.32
11.82
33.20
56.68
79.70
99.88
115.38
125.19
129.18
127.95
122.72
115.05
106.55
98.59
92.11
87.53
84.63
82.69
80.62
77.36
72.26
65.31
57.18
48.97
41.74
36.07
31.83
28.32
24.58
19.81
13.64
6.22
-1.95
-10.33
-18.61
-26.78
-35.19
-44.20
-53.86
-63.69
-72.57
-79.05
-81.78
-79.93
-73.43
-62.99
-49.78
-35.14
-20.31
-6.38
5.83
15.65
22.69
26.88
28.49
28.16
26.66
24.70
22.79
21.17
19.83
18.71
17.74
16.96
16.47
16.35
16.59
17.08
17.58
17.86
17.76
17.18
16.12
14.63
12.79
10.70
8.38
5.70
2.36
-2.03
-7.71
-14.59
-21.97
-28.71
-33.50
-35.28
-33.64
-28.94
-22.19
-14.64
-7.44
-1.36
3.25
6.37
8.13
8.71
8.34
7.34
6.09
4.98
4.37
4.43
5.16
6.45
8.09
9.87
11.56
12.91
13.74
13.90
13.37
12.28
10.88
9.37
7.98
6.73
5.53
4.20
2.46
0.06
-3.17
-7.12
-11.40
-15.21
-17.62
-17.79
-15.31
-10.37
-3.70
3.67
10.75
16.75
21.31
24.25
25.53
25.16
23.17
19.77
15.37
10.50
5.76
1.65
-1.54
-3.67
-4.77
-4.99
-4.49
-3.48
-2.21
-0.92
0.16
0.88
1.17
1.12
0.80
0.32
-0.33
-1.23
-2.59
-4.68
-7.73
-11.79
-16.50
-21.11
-24.58
-25.88
-24.37
-20.01
-13.45
-5.79
1.82
8.50
13.73
17.39
19.51
20.21
19.66
18.13
15.97
