1528592168.00
64.000000
-0.00
-0.00
-0.00
-0.00
-0.00
-0.00
-0.00
-0.00
-0.00
-0.00
0.00
0.01
0.01
-0.00
-0.03
-0.05
-0.05
0.00
0.13
0.36
0.66
1.01
1.37
1.72
2.06
2.40
2.79
3.24
3.80
4.42
5.06
5.66
6.20
6.68
7.15
7.68
8.31
9.14
10.09
11.04
11.88
12.56
13.14
13.76
14.65
15.96
17.91
20.32
22.90
25.38
27.58
29.58
31.68
34.32
37.81
42.53
48.14
54.12
59.87
65.02
69.63
74.14
79.25
85.47
93.38
102.47
111.97
121.01
129.01
135.97
142.49
149.87
156.81
165.58
176.80
190.59
205.76
219.36
227.02
224.04
207.01
175.06
130.63
77.64
20.50
-37.56
-95.05
-151.85
-208.20
-263.89
-318.04
-369.06
-415.82
-457.44
-493.30
-522.63
-544.30
-556.80
-558.54
-548.41
-525.94
-492.00
-448.38
-397.62
-342.50
-285.65
-229.20
-174.66
-123.05
-74.94
-30.89
8.61
43.13
72.35
96.21
114.86
128.44
136.94
140.38
139.18
134.92
130.31
128.63
132.51
142.85
158.45
176.46
193.48
206.59
213.98
214.93
209.60
198.81
183.88
166.55
148.62
131.54
116.19
102.93
91.89
83.07
76.29
70.92
65.98
60.57
54.50
48.06
41.96
36.78
32.61
29.11
25.82
22.60
19.68
17.25
15.17
12.80
9.35
4.43
-1.62
-7.77
-12.64
-15.09
-14.71
-11.96
-8.00
-4.32
-2.07
-1.66
-2.59
-3.85
-4.47
-4.18
-3.44
-3.09
-3.75
-5.34
-7.12
-8.10
-7.63
-5.80
-3.41
-1.56
-1.12
-2.25
-4.38
-6.45
-7.50
-7.13
-5.72
-4.13
-3.22
-3.40
-4.37
-5.38
-5.72
-5.00
-3.39
-1.43
0.19
0.94
0.57
-0.86
-2.90
-4.85
-5.92
-5.61
-3.97
-1.65
0.37
1.31
0.92
-0.39
-1.92
-3.02
-3.32
-2.61
-0.62
2.94
8.01
13.80
18.80
21.36
20.59
16.94
12.07
8.00
6.00
5.94
6.50
6.05
3.80
0.26
-3.04
-4.61
-3.94
-1.81
0.15
0.44
-1.36
-4.39
-7.04
-7.97
-6.95
-5.11
-4.19
-5.38
-8.56
-12.26
-14.60
-14.36
-11.69
-7.84
-4.36
-2.20
-1.44
-1.54
-2.03
-2.84
-4.15
-6.01
-7.93
-8.99
-8.36
-5.89
-2.35
0.95
2.74
2.51
0.61
-1.95
-4.03
-4.82
-4.15
-2.41
-0.38
1.05
1.31
0.34
-1.28
-2.61
-2.82
-1.67
0.31
2.04
2.47
1.17
-1.44
-4.37
-6.70
-8.07
-8.72
-9.03
-9.05
-8.37
-6.49
-3.38
0.21
2.96
3.62
1.74
-2.09
-6.17
-8.42
-7.56
-3.72
1.68
6.69
9.87
10.84
10.18
8.91
7.81
7.07
6.49
5.80
4.90
3.94
3.12
2.58
2.30
2.04
1.43
0.10
-2.03
-4.51
-6.38
-6.53
-4.34
-0.22
4.37
7.44
7.62
4.90
0.70
-2.92
-4.48
-3.92
-2.46
-1.70
-2.53
-4.49
-6.17
-6.20
-4.15
-0.83
2.23
3.70
3.22
1.52
-0.08
-0.44
0.80
3.08
5.33
6.45
5.82
3.40
-0.32
-4.61
-8.68
-11.95
-14.08
-15.06
-15.18
-14.91
-14.72
-14.86
-15.34
-15.93
-16.36
-16.60
-16.90
-17.67
-19.25
-21.47
-23.56
-24.21
-22.03
-16.24
-7.05
4.15
15.29
24.38
30.20
32.71
32.80
31.70
30.28
28.62
26.17
22.22
16.65
10.24
4.54
1.10
0.69
2.85
6.09
8.67
9.44
8.31
6.12
4.03
2.80
2.42
2.25
1.48
-0.34
-3.08
-6.10
-8.58
-9.88
-9.79
-8.54
-6.68
-4.86
-3.60
-3.14
-3.41
-4.11
-4.86
-5.47
-5.92
-6.46
-7.44
-9.11
-11.43
-14.03
-16.34
-17.86
-18.46
-18.23
-17.28
-15.40
-12.06
-6.81
0.14
7.58
13.61
16.50
15.60
11.73
6.75
2.55
0.10
-0.80
-0.98
-1.01
-0.63
1.02
4.56
9.63
14.84
18.47
19.51
18.31
16.31
15.16
15.64
17.20
18.44
18.01
15.47
11.55
7.57
4.60
2.86
1.76
0.39
-1.83
-4.80
-7.89
-10.30
-11.47
-11.40
-10.50
-9.43
-8.70
-8.49
-8.63
-8.76
-8.65
-8.34
-8.16
-8.48
-9.49
-11.03
-12.72
-14.08
-14.64
-14.05
-12.08
-8.74
-4.37
0.22
4.00
6.03
5.99
4.35
2.28
1.06
1.35
2.93
4.88
6.22
6.60
6.49
6.69
7.79
9.59
11.23
11.71
10.59
8.21
5.50
3.31
1.87
0.81
-0.40
-1.93
-3.32
-3.78
-2.83
-0.70
1.69
3.20
3.14
1.62
-0.55
-2.30
-2.84
-1.98
-0.14
1.95
3.63
4.51
4.54
3.80
2.40
0.42
-1.90
-3.96
-4.89
-3.95
-1.05
3.02
6.83
9.10
9.39
8.36
7.25
7.10
8.08
9.47
10.20
9.59
7.69
5.21
3.02
1.61
0.96
0.57
-0.20
-1.90
-4.77
-8.62
-12.78
-16.19
-17.63
-16.31
-12.31
-6.71
-1.17
2.80
4.53
4.34
3.16
1.88
0.83
-0.29
-1.96
-4.32
-6.88
-8.78
-9.35
-8.62
-7.28
-6.19
-5.75
-5.60
-4.91
-2.96
0.34
4.40
8.27
11.17
12.83
13.45
13.38
12.93
12.21
11.36
10.53
9.83
9.13
7.99
5.83
2.29
-2.38
-7.32
-11.34
-13.46
-13.35
-11.45
-8.70
-6.04
-3.91
-2.16
-0.25
2.37
5.79
9.55
12.83
14.90
15.50
14.94
13.82
12.58
11.13
8.91
5.35
0.42
-5.07
-9.76
-12.38
-12.33
-9.89
-5.99
-1.70
2.09
4.82
6.07
5.49
2.93
-1.36
-6.60
-11.67
-15.63
-18.10
-19.37
-20.05
-20.60
-20.90
-20.37
-18.35
-14.66
-9.80
-4.79
-0.70
1.83
2.76
2.54
1.82
1.25
1.38
2.74
5.67
10.22
15.89
21.69
26.41
29.04
29.18
27.13
23.59
19.36
15.04
10.99
7.40
4.48
2.33
0.92
-0.03
-1.00
-2.41
-4.45
-7.03
-9.86
-12.65
-15.14
-17.14
-18.32
-18.25
-16.54
-13.18
-8.72
-4.24
-0.94
0.41
-0.18
-1.82
-3.28
-3.54
-2.32
-0.07
2.40
4.43
5.86
6.96
8.13
9.46
10.65
11.15
10.49
8.64
6.01
3.18
0.55
-1.85
-4.26
-6.85
-9.36
-11.02
-10.91
-8.57
-4.42
0.23
3.74
4.93
3.66
0.76
-2.46
-4.85
-5.76
-5.09
-3.11
-0.42
2.12
3.53
3.07
0.70
-2.72
-5.74
-7.08
-6.32
-4.09
-1.59
0.26
1.37
2.38
3.97
6.21
8.41
9.56
9.15
7.59
6.06
5.80
7.45
10.67
14.34
17.11
17.95
16.53
13.24
9.01
4.93
1.90
0.35
0.13
0.64
1.14
1.14
0.57
-0.30
-1.11
-1.74
-2.37
-3.35
-4.82
-6.58
-8.10
-8.91
-8.91
-8.58
-8.65
-9.65
-11.51
-13.52
-14.63
-13.99
-11.42
-7.42
-3.03
0.69
3.00
3.82
3.58
3.07
3.08
4.09
6.08
8.63
11.09
12.89
13.68
13.46
12.40
10.77
8.72
6.38
3.88
1.42
-0.74
-2.42
-3.61
-4.48
-5.21
-5.80
-5.96
-5.26
-3.35
-0.35
3.15
6.24
8.16
8.59
7.78
6.30
4.58
2.74
0.60
-2.01
-4.91
-7.56
-9.32
-9.86
-9.38
-8.54
-8.00
-8.00
-8.12
-7.53
-5.51
-1.87
2.84
7.56
11.15
12.80
12.25
9.65
5.42
0.09
-5.72
-11.17
-15.27
-17.19
-16.69
-14.37
-11.40
-8.85
-7.07
-5.50
-3.11
0.76
5.79
10.77
14.20
15.17
13.78
10.94
7.81
5.24
3.56
2.66
2.23
1.91
1.28
0.03
-1.92
-4.35
-6.77
-8.78
-10.27
-11.48
-12.74
-14.08
-15.09
-15.16
-13.95
-11.73
-9.36
-7.87
-7.83
-9.11
-10.94
-12.37
-12.75
-11.97
-10.32
-8.20
-5.84
-3.18
-0.05
3.59
7.48
11.14
14.03
15.80
16.40
16.03
14.97
13.45
11.69
9.90
8.30
7.02
6.03
5.05
3.63
1.37
-1.84
-5.70
-9.44
-12.06
-12.64
-10.73
-6.62
-1.36
3.64
7.13
8.52
8.10
6.85
5.84
5.77
6.58
7.67
8.21
7.68
6.04
3.80
1.70
0.37
0.00
0.32
0.73
0.69
0.01
-1.03
-1.86
-1.99
-1.31
-0.20
0.69
0.89
0.33
-0.60
-1.32
-1.38
-0.76
0.20
1.00
1.21
0.69
-0.43
-1.89
-3.42
-4.83
-6.05
-7.07
-7.92
-8.67
-9.49
-10.53
-12.00
-14.01
-16.50
-19.11
-21.10
-21.42
-19.13
-13.78
-5.80
3.52
12.48
19.60
24.08
25.93
25.62
23.64
20.33
15.93
10.95
6.29
2.96
1.59
1.97
3.17
3.95
3.57
2.08
0.21
-1.10
-1.22
-0.09
1.91
4.20
6.19
7.49
7.86
7.28
6.00
4.44
3.04
2.02
1.31
0.57
-0.47
-1.83
-3.25
-4.31
-4.79
-4.75
-4.47
-4.15
-3.75
-3.02
-1.74
-0.04
1.61
2.56
2.45
1.46
0.18
-0.70
-0.83
-0.40
0.00
-0.20
-1.25
-2.95
-4.90
-6.78
-8.47
-10.04
-11.53
-12.84
-13.81
-14.36
-14.58
-14.71
-14.95
-15.28
-15.40
-14.79
-12.94
-9.61
-4.97
0.38
5.58
9.75
12.38
13.40
13.24
12.54
11.88
11.47
11.20
10.79
10.02
8.88
7.60
6.47
5.66
5.24
5.13
5.20
5.36
5.48
5.45
5.17
4.68
4.09
3.61
3.37
3.32
3.29
3.09
2.69
2.33
2.39
3.13
4.42
5.72
6.33
5.82
4.28
2.33
0.68
-0.25
-0.63
-1.05
-2.13
-4.02
-6.38
-8.48
-9.69
-9.77
-8.96
-7.81
-6.94
-6.77
-7.52
-9.10
-11.24
-13.45
-15.12
-15.63
-14.55
-11.86
-7.97
-3.69
0.06
2.59
3.65
3.48
2.63
1.76
1.38
1.72
2.75
4.16
5.59
6.70
7.37
7.71
8.01
8.50
9.18
9.78
9.92
9.42
8.46
7.57
7.32
7.89
8.97
9.89
10.02
9.15
7.53
5.61
3.75
2.00
0.28
-1.46
-3.04
-4.11
-4.44
-4.09
-3.44
-3.03
-3.19
-3.93
-4.91
-5.67
-5.91
-5.61
-5.00
-4.37
-3.93
-3.65
-3.35
-2.80
-1.94
-0.95
-0.23
-0.20
-1.04
-2.60
-4.44
-5.91
-6.49
-5.96
-4.49
-2.58
-0.79
0.46
1.09
1.32
1.53
1.97
2.68
3.53
4.36
5.10
5.77
6.33
6.56
6.15
4.83
2.69
0.17
-2.14
-3.88
-5.08
-6.13
-7.43
-9.12
-10.92
-12.40
-13.26
-13.55
-13.51
-13.38
-13.12
-12.42
-10.86
-8.22
-4.64
-0.66
2.97
5.52
6.55
6.05
4.50
2.71
1.53
1.45
2.43
3.92
5.23
5.83
5.68
5.07
4.34
3.61
2.75
1.63
0.48
-0.14
0.48
2.59
5.76
8.95
11.02
11.32
9.99
7.78
5.62
4.06
3.17
2.61
2.05
1.37
0.73
0.38
0.42
0.74
1.06
1.10
0.78
0.23
-0.29
-0.56
-0.55
-0.47
-0.63
-1.22
-2.21
-3.31
-4.12
-4.37
-4.04
-3.39
-2.78
-2.48
-2.55
-2.84
-3.07
-3.01
-2.63
-2.05
-1.53
-1.31
-1.52
-2.16
-3.13
-4.30
-5.58
-6.82
-7.86
-8.58
-8.91
-8.96
-8.90
-8.85
-8.68
-7.99
-6.24
-3.13
1.11
5.71
9.64
12.10
12.95
12.70
12.19
12.05
12.33
12.56
12.05
10.46
8.02
5.44
3.57
2.98
3.69
5.26
7.00
8.26
8.61
7.95
6.46
4.54
2.70
1.32
0.52
0.10
-0.32
-1.02
-2.02
-2.98
-3.46
-3.23
-2.40
-1.45
-0.88
-0.94
-1.53
-2.28
-2.87
-3.22
-3.53
-4.02
-4.76
-5.54
-6.00
-5.89
-5.31
-4.60
-4.21
-4.33
-4.83
-5.39
-5.76
-6.02
-6.49
-7.48
-9.01
-10.72
-12.03
-12.40
-11.61
-9.78
-7.20
-4.20
-1.02
2.12
4.97
7.22
8.62
9.07
8.69
7.77
6.70
5.77
5.15
4.80
4.56
4.27
3.86
3.38
2.98
2.81
2.85
2.96
2.93
2.64
2.19
1.76
1.59
1.72
2.06
2.38
2.53
2.44
2.16
1.76
1.30
0.83
0.34
-0.17
-0.79
-1.61
-2.70
-3.93
-5.02
-5.65
-5.62
-5.06
-4.35
-3.97
-4.21
-5.11
-6.42
-7.83
-9.16
-10.35
-11.34
-11.97
-11.83
-10.46
-7.58
-3.35
1.61
6.36
10.03
12.12
12.68
12.16
11.23
10.45
10.12
10.26
10.69
11.13
11.33
11.09
10.36
9.22
7.85
6.42
5.04
3.68
2.24
0.68
-0.86
-2.06
-2.55
-2.09
-0.65
1.56
4.21
7.00
9.60
11.65
12.68
12.23
9.99
6.02
0.81
-4.85
-10.15
-14.53
-17.76
-19.84
-20.82
-20.73
-19.59
-17.53
-14.91
-12.25
-10.02
-8.44
-7.44
-6.71
-5.94
-5.00
-3.91
-2.80
-1.77
-0.82
0.17
1.30
2.64
4.19
5.91
7.71
9.44
10.98
12.23
13.26
14.29
15.56
17.19
18.99
20.56
21.41
21.20
19.87
17.66
14.89
11.86
8.76
5.67
2.70
-0.01
-2.25
-3.89
-4.86
-5.17
-4.95
-4.37
-3.76
-3.45
-3.70
-4.56
-5.90
-7.44
-8.91
-10.10
-10.80
-10.84
-10.05
-8.39
-6.07
-3.54
-1.37
-0.03
0.34
-0.05
-0.76
-1.41
-1.80
-2.00
-2.18
-2.47
-2.90
-3.37
-3.68
-3.66
-3.20
-2.30
-1.12
0.09
0.99
1.32
0.96
-0.02
-1.37
-2.75
-3.83
-4.31
-4.04
-2.99
-1.32
0.65
2.43
3.53
3.51
2.17
-0.27
-3.19
-5.72
-7.02
-6.73
-5.13
-3.05
-1.48
-1.11
-1.96
-3.45
-4.79
-5.38
-5.16
-4.46
-3.74
-3.29
-3.08
-2.90
-2.59
-2.10
-1.54
-1.00
-0.50
0.08
0.86
1.93
3.29
4.86
6.47
7.92
8.99
9.52
9.49
9.02
8.32
7.60
6.92
6.22
5.40
4.37
3.16
1.86
0.47
-1.09
-3.02
-5.40
-8.06
-10.47
-11.92
-11.83
-10.04
-6.89
-3.01
0.95
4.58
7.71
10.23
12.00
12.87
12.82
12.07
10.91
9.59
8.05
6.11
3.61
0.75
-2.01
-4.20
-5.66
-6.67
-7.68
-8.88
-10.00
-10.42
-9.57
-7.32
-4.13
-0.77
2.08
4.09
5.32
5.99
6.28
6.17
5.55
4.35
2.64
0.70
-1.12
-2.48
-3.24
-3.42
-3.25
-2.98
-2.85
-2.92
-3.12
-3.27
-3.21
-2.82
-2.10
-1.16
-0.13
0.83
1.56
1.91
1.68
0.79
-0.70
-2.44
-3.88
-4.49
-4.02
-2.75
-1.43
-0.91
-1.74
-3.83
-6.46
-8.68
-9.74
-9.44
-8.15
-6.51
-5.05
-3.94
-3.02
-1.99
-0.67
0.86
2.37
3.57
4.28
4.52
4.45
4.27
4.11
4.02
3.93
3.79
3.64
3.65
4.02
4.82
5.91
6.93
7.44
7.21
6.27
4.97
3.70
2.74
2.12
1.75
1.56
1.54
1.76
2.15
2.46
2.30
1.36
-0.33
-2.42
-4.32
-5.56
-5.99
-5.82
-5.46
-5.25
-5.33
-5.63
-5.95
-6.11
-5.97
-5.41
-4.31
-2.60
-0.33
2.25
4.78
6.87
8.29
9.07
9.36
9.35
9.14
8.65
7.78
6.50
4.94
3.37
2.10
1.36
1.22
1.56
2.09
2.54
2.68
2.40
1.79
1.04
0.36
-0.12
-0.40
-0.56
-0.70
-0.86
-1.03
-1.14
-1.14
-1.06
-0.98
-0.99
-1.16
-1.50
-1.95
-2.39
-2.67
-2.69
-2.45
-2.07
-1.80
-1.87
-2.40
-3.25
-4.13
-4.65
-4.58
-3.95
-3.02
-2.18
-1.72
-1.73
-2.12
-2.69
-3.28
-3.74
-3.91
-3.57
-2.52
-0.72
1.53
3.68
5.16
5.66
5.32
4.63
4.13
4.11
4.47
4.88
4.99
4.66
3.98
3.12
2.20
1.25
0.25
-0.75
-1.61
-2.15
-2.32
-2.20
-1.95
-1.76
-1.72
-1.81
-1.94
-1.99
-1.85
-1.48
-0.94
-0.35
0.13
0.38
0.40
0.32
0.32
0.57
1.09
1.79
2.48
3.01
3.29
3.26
2.86
2.07
0.88
-0.55
-1.96
-3.07
-3.68
-3.87
-3.86
-3.93
-4.27
-4.82
-5.40
-5.80
-5.93
-5.87
-5.77
-5.78
-5.97
-6.26
-6.52
-6.49
-5.95
-4.71
-2.81
-0.50
1.78
3.53
4.39
4.31
3.48
2.23
0.83
-0.55
-1.80
-2.73
-3.10
-2.67
-1.38
0.53
2.64
4.55
6.00
7.00
7.63
7.91
7.74
6.95
5.48
3.52
1.46
-0.27
-1.45
-2.07
-2.32
-2.39
-2.34
-2.11
-1.63
-0.93
-0.20
0.33
0.51
0.31
-0.16
-0.74
-1.33
-1.92
-2.54
-3.23
-3.98
-4.79
-5.63
-6.50
-7.39
-8.25
-9.03
-9.65
-10.11
-10.43
-10.64
-10.72
-10.59
-10.13
-9.20
-7.74
-5.75
-3.26
-0.35
2.91
6.42
10.03
13.48
16.43
18.51
19.39
19.03
17.76
16.30
15.59
16.34
18.62
21.78
24.61
25.96
25.33
23.24
20.99
20.08
21.42
24.81
29.03
32.36
33.42
31.79
28.16
24.04
21.34
21.76
26.34
34.95
45.68
54.62
56.50
46.48
22.36
-13.77
-55.79
-95.81
-127.09
-146.55
-155.28
-157.34
-157.60
-159.64
-164.46
-170.36
-173.61
-169.64
-154.70
-127.50
-90.17
-47.96
-7.45
25.94
49.93
65.80
77.01
87.11
98.07
109.84
120.92
129.43
133.94
133.69
128.62
119.15
105.93
89.76
71.68
53.09
35.72
21.36
11.24
5.47
2.73
0.96
-1.34
-4.11
-5.59
-3.33
4.21
16.29
29.36
37.75
35.04
15.94
-21.85
-76.29
-140.44
-203.35
-252.53
-277.81
-274.80
-246.32
-200.80
-148.66
-98.21
-53.45
-14.42
20.84
53.24
81.57
103.52
118.02
126.92
134.53
145.37
161.36
181.01
198.81
207.24
199.71
172.92
127.75
68.91
3.59
-59.56
-110.19
-139.72
-143.60
-122.97
-84.31
-37.10
9.63
49.81
82.00
110.19
138.47
167.86
195.10
214.53
221.27
213.86
193.88
155.15
97.77
27.86
-44.59
-110.84
-165.57
-206.66
-228.08
-223.19
-189.28
-126.24
-44.14
40.41
109.65
150.41
157.37
133.38
86.64
28.10
-29.42
-75.45
-103.33
-111.40
-102.63
-83.14
-59.95
-39.67
-26.63
-21.29
-22.09
-26.46
-32.08
-37.24
-40.81
-42.00
-40.69
-37.38
-32.62
-27.60
-23.78
-22.41
-23.99
-27.86
-32.35
-35.49
-35.79
-32.57
-26.46
-18.92
-11.70
-6.09
-2.51
-0.48
0.95
2.72
5.35
8.74
12.29
15.24
16.98
17.33
16.58
15.35
14.28
13.79
13.82
13.99
13.83
12.99
11.54
9.84
8.40
7.56
7.33
7.38
7.25
6.65
5.64
4.60
3.95
3.85
4.06
4.03
3.23
1.51
-0.77
-2.93
-4.34
-4.82
-4.76
-4.88
-5.84
-7.82
-10.45
-12.97
-14.64
-15.02
-14.11
-12.18
-9.68
-7.04
-4.70
-3.06
-2.45
-2.91
-4.08
-5.16
-5.16
-3.31
0.48
5.49
10.41
13.85
14.99
13.92
11.46
8.74
6.61
5.22
4.16
2.76
0.64
-2.11
-4.92
-7.18
-8.53
-9.00
-8.86
-8.30
-7.34
-5.89
-4.02
-2.09
-0.64
-0.01
-0.12
-0.46
-0.44
0.14
0.91
1.20
0.56
-0.83
-2.14
-2.38
-0.96
1.96
5.58
8.97
11.42
12.70
12.85
12.04
10.38
7.98
5.09
2.08
-0.68
-2.91
-4.47
-5.26
-5.20
-4.33
-3.03
-2.02
-2.12
-3.74
-6.47
-9.07
-10.12
-8.84
-5.65
-2.06
0.18
0.09
-2.02
-4.77
-6.59
-6.58
-5.00
-2.88
-1.35
-0.92
-1.33
-1.85
-1.88
-1.37
-0.85
-1.01
-2.24
-4.27
-6.21
-6.96
-5.73
-2.43
2.29
7.22
11.07
12.88
12.31
9.68
5.85
1.87
-1.36
-3.35
-4.06
-3.85
-3.14
-2.21
-1.10
0.36
2.31
4.71
7.22
9.27
10.22
9.62
7.39
3.86
-0.26
-4.12
-6.95
-8.31
-8.11
-6.64
-4.38
-1.87
0.43
2.23
3.40
3.98
4.05
3.75
3.17
2.35
1.34
0.24
-0.80
-1.55
-1.83
-1.61
-1.03
-0.39
-0.01
-0.06
-0.47
-1.00
-1.32
-1.24
-0.72
0.13
1.16
2.28
3.47
4.67
5.82
6.75
7.28
7.35
7.00
6.39
5.66
4.89
4.05
3.03
1.79
0.39
-1.02
-2.22
-3.06
-3.52
-3.68
-3.72
-3.79
-3.94
-4.20
-4.58
-5.10
-5.78
-6.48
-6.87
-6.43
-4.77
-1.89
1.65
4.84
6.67
6.60
4.84
2.28
0.01
-1.17
-1.06
-0.03
1.33
2.55
3.53
4.39
5.29
6.22
6.94
7.18
6.83
6.06
5.24
4.74
4.68
4.87
4.89
4.37
3.17
1.52
-0.13
-1.34
-1.88
-1.77
-1.27
-0.64
-0.07
0.38
0.73
1.02
1.30
1.68
2.29
3.20
4.32
5.33
5.77
5.22
3.59
1.11
-1.67
-4.15
-5.95
-7.08
-7.83
-8.64
-9.77
-11.20
-12.64
-13.72
-14.16
-13.87
-12.85
-11.09
-8.55
-5.23
-1.39
2.45
5.54
7.26
7.35
6.13
4.33
2.87
2.39
3.03
4.41
5.90
6.92
7.26
7.10
6.86
6.86
7.10
7.26
6.87
5.66
3.76
1.63
-0.18
-1.36
-1.99
-2.43
-3.10
-4.17
-5.49
-6.67
-7.32
-7.24
-6.48
-5.31
-4.06
-3.00
-2.23
-1.73
-1.44
-1.32
-1.41
-1.83
-2.63
-3.75
-4.96
-6.02
-6.76
-7.24
-7.68
-8.32
-9.20
-10.15
-10.76
-10.55
-9.17
-6.45
-2.55
2.05
6.67
10.51
12.97
13.85
13.40
12.24
11.04
10.23
9.82
9.45
8.67
7.22
5.20
2.99
1.05
-0.32
-1.15
-1.69
-2.30
-3.13
-4.12
-5.00
-5.47
-5.39
-4.82
-3.98
-3.13
-2.38
-1.67
-0.88
0.08
1.17
2.23
3.09
3.62
3.83
3.79
3.63
3.43
3.21
2.92
2.51
1.97
1.34
0.66
-0.04
-0.87
-1.93
-3.29
-4.82
-6.28
-7.33
-7.87
-8.03
-8.22
-8.90
-10.30
-12.26
-14.25
-15.55
-15.47
-13.64
-10.05
-5.16
0.31
5.48
9.56
12.08
12.95
12.46
11.18
9.71
8.55
7.94
7.88
8.17
8.52
8.72
8.69
8.51
8.31
8.15
7.94
7.42
6.39
4.85
3.12
1.68
0.92
0.95
1.52
2.15
2.45
2.28
1.76
1.17
0.73
0.47
0.29
-0.01
-0.54
-1.30
-2.21
-3.17
-4.11
-5.00
-5.84
-6.59
-7.23
-7.72
-8.08
-8.38
-8.76
-9.41
-10.46
-11.90
-13.48
-14.77
-15.27
-14.63
-12.88
-10.44
-7.98
-6.16
-5.27
-5.15
-5.21
-4.75
-3.14
-0.10
4.30
9.64
15.24
20.30
24.06
25.99
25.93
24.18
21.38
18.36
15.79
14.02
13.00
12.40
11.80
10.83
9.30
7.14
4.38
1.09
-2.54
-6.23
-9.59
-12.28
-14.19
-15.50
-16.60
-17.81
-19.18
-20.41
-21.05
-20.77
-19.59
-17.78
-15.56
-12.88
-9.39
-4.78
0.90
7.04
12.76
17.34
20.65
23.15
25.42
27.63
29.22
29.07
26.25
20.70
13.46
6.26
0.64
-2.76
-4.37
-5.29
-6.57
-8.66
-11.25
-13.60
-14.94
-14.90
-13.63
-11.71
-10.07
-9.68
-11.33
-15.16
-20.53
-26.02
-29.98
-31.33
-30.05
-27.18
-24.16
-21.91
-20.26
-18.14
-14.29
-8.15
-0.26
8.05
15.36
20.78
24.12
25.52
25.08
22.75
18.68
13.57
8.79
5.87
5.72
8.14
11.89
15.43
17.80
19.09
20.18
22.05
25.13
29.05
32.97
36.07
38.01
38.88
38.93
38.30
36.87
34.51
31.33
27.92
25.24
24.24
25.42
28.39
31.81
33.81
32.62
27.32
18.29
7.00
-4.50
-14.38
-21.61
-26.14
-28.88
-31.47
-35.92
-44.13
-57.12
-74.30
-93.09
-109.39
-118.98
-119.26
-110.52
-95.82
-79.58
-65.50
-55.07
-47.30
-39.83
-30.58
-18.99
-6.28
5.39
14.14
19.35
21.95
23.88
27.22
33.27
42.07
52.42
62.30
69.59
72.71
71.10
65.19
56.26
45.94
35.68
26.45
18.66
12.42
7.85
5.26
5.13
7.90
13.75
22.38
33.01
44.25
54.06
59.95
59.52
51.39
35.97
15.66
-5.94
-25.40
-40.73
-51.88
-60.03
-66.46
-71.65
-75.17
-76.34
-74.78
-70.75
-64.83
-57.58
-49.35
-40.49
-31.63
-23.74
-17.80
-14.44
-13.71
-15.09
-17.76
-20.72
-22.89
-23.18
-20.80
-15.67
-8.70
-1.55
4.00
7.05
8.06
8.82
11.54
17.79
27.70
39.78
51.55
60.56
65.31
65.64
62.45
57.07
50.59
43.54
36.08
28.41
21.11
15.03
10.98
9.19
9.12
9.62
9.50
8.14
5.92
4.01
3.78
6.05
10.50
15.70
19.64
20.56
17.65
11.36
3.06
-5.64
-13.67
-20.88
-27.92
-35.66
-44.51
-53.97
-62.69
-69.10
-72.06
-71.48
-68.28
-63.87
-59.36
-54.95
-49.86
-42.90
-33.26
-21.13
-7.75
5.15
16.25
25.18
32.59
39.62
47.07
54.81
61.85
66.88
69.06
68.48
66.03
62.74
59.02
54.32
47.54
37.86
25.57
12.28
0.35
-8.25
-12.88
-14.43
-14.56
-14.62
-14.86
-14.45
-12.41
-8.59
-4.17
-1.25
-1.71
-6.23
-13.84
-22.53
-30.25
-35.81
-39.17
-40.96
-41.87
-42.13
-41.45
-39.42
-35.86
-31.10
-25.75
-20.53
-15.89
-11.89
-8.30
-4.80
-1.15
2.64
6.35
9.74
12.72
15.44
18.19
21.17
24.28
27.08
28.97
29.52
28.76
27.19
25.53
24.33
23.78
23.59
23.32
22.66
21.53
20.09
18.52
16.89
15.27
13.77
12.66
12.14
12.16
12.24
11.58
9.40
5.38
-0.23
-6.71
-13.19
-19.01
-23.90
-27.92
-31.12
-33.39
-34.39
-33.68
-31.12
-27.06
-22.41
-18.33
-15.72
-14.77
-14.89
-14.97
-14.03
-11.66
-8.21
-4.45
-1.08
1.63
3.82
5.82
7.77
9.58
11.00
11.82
11.99
11.54
10.54
9.14
7.57
6.18
5.27
4.94
4.92
4.81
4.38
3.87
3.93
5.19
7.73
10.81
13.14
13.48
11.37
7.36
2.70
-1.38
-4.28
-6.22
-7.86
-9.68
-11.54
-12.78
-12.72
-11.23
-8.94
-6.93
-6.08
-6.51
-7.52
-8.06
-7.36
-5.42
-2.91
-0.67
0.86
1.89
3.07
4.91
7.36
9.74
11.06
10.58
8.25
4.66
0.85
-2.18
-3.77
-3.81
-2.60
-0.67
1.46
3.39
4.92
5.96
6.54
6.86
7.24
8.07
9.55
11.48
13.22
13.91
12.96
10.35
6.70
2.95
-0.10
-2.21
-3.66
-4.98
-6.53
-8.27
-9.83
-10.77
-10.85
-10.22
-9.27
-8.49
-8.25
-8.64
-9.48
-10.38
-10.89
-10.70
-9.69
-8.01
-5.95
-3.79
-1.74
0.07
1.55
2.68
3.51
4.20
4.90
5.60
6.04
5.81
4.62
2.53
0.12
-1.76
-2.38
-1.53
0.34
2.34
3.62
3.77
2.93
1.62
0.39
-0.49
-1.02
-1.39
-1.72
-2.01
-2.22
-2.31
-2.31
-2.18
-1.74
-0.71
1.03
3.23
5.33
6.53
6.23
4.33
1.29
-2.00
-4.69
-6.35
-7.18
-7.72
-8.48
-9.58
-10.60
-10.72
-9.24
-6.06
-2.02
1.28
2.43
1.04
-2.03
-4.91
-5.63
-3.13
2.01
7.46
9.88
7.01
-1.35
-13.18
-24.95
-33.11
-35.45
-32.18
-26.02
-21.66
-22.63
-30.21
-43.33
-58.98
-72.85
-79.49
-73.41
-51.08
-13.93
32.29
77.00
106.88
110.98
85.60
37.73
-16.94
-60.76
-82.07
-76.51
-47.40
-2.61
48.41
94.62
128.03
146.38
157.76
160.84
151.71
130.02
97.21
62.97
39.16
34.48
50.35
78.42
103.34
111.73
96.70
58.65
3.81
-59.88
-125.34
-181.93
-219.07
-229.75
-211.08
-165.57
-100.96
-28.48
38.94
90.18
121.82
132.99
125.10
103.49
76.22
51.56
35.70
30.95
36.05
47.73
60.09
68.38
70.85
68.33
62.84
56.19
49.32
42.83
37.72
34.67
34.26
36.69
41.08
45.44
47.49
45.73
40.45
33.63
27.52
23.42
20.55
15.80
4.68
-17.16
-52.55
-101.82
-162.37
-228.80
-292.85
-344.46
-373.65
-373.26
-341.39
-282.58
-206.99
-127.51
-56.14
-0.81
36.33
58.46
71.96
83.52
97.63
115.26
134.06
149.76
158.19
157.43
148.92
136.56
125.00
117.66
115.52
117.05
119.00
116.89
106.27
83.66
47.32
-1.70
-58.44
-113.71
-155.96
-174.99
-167.18
-136.16
-91.13
-43.14
-1.17
30.65
53.42
71.19
87.72
101.94
111.25
114.62
113.78
111.75
110.79
111.27
111.60
109.11
97.69
74.42
41.88
6.45
-26.42
-55.24
-82.07
-110.77
-145.23
-193.24
-259.11
-339.90
-426.05
-505.45
-566.81
-601.53
-605.29
-548.84
-427.12
-265.95
-106.91
21.01
112.11
174.92
219.94
253.07
275.00
281.34
268.07
237.78
198.98
160.63
128.36
104.20
87.74
77.78
69.34
60.57
53.46
51.98
58.38
71.34
87.35
102.81
115.49
122.62
123.51
120.18
116.07
113.52
112.66
112.00
109.51
103.50
91.84
73.51
49.18
20.70
-10.21
-42.35
-74.41
-104.28
-128.96
-145.76
-153.07
-151.06
-141.53
-127.11
-110.08
-91.32
-70.42
-46.61
-20.12
7.16
32.10
51.66
64.11
69.73
70.43
68.57
65.80
62.39
57.47
49.95
39.66
27.83
16.79
8.95
5.59
6.32
9.08
10.97
9.44
3.00
-8.32
-23.10
-38.95
-53.01
-62.59
-65.57
-60.86
-48.51
-29.74
-6.82
17.32
39.44
56.49
66.16
67.35
60.46
47.35
30.90
14.20
-0.30
-11.50
-19.78
-26.50
-33.10
-40.05
-46.46
-50.16
-48.65
-40.15
-24.52
-3.41
20.20
42.92
61.85
75.19
82.26
83.24
78.80
69.93
57.91
44.32
30.85
18.89
9.04
0.99
-6.30
-13.95
-22.59
-32.00
-41.31
-49.42
-55.40
-58.68
-58.79
-55.23
-47.47
-35.25
-19.07
-0.36
18.65
35.45
47.83
54.41
54.84
49.80
40.69
29.32
17.40
6.07
-4.44
-14.72
-25.75
-38.19
-51.67
-64.49
-73.94
-77.20
-72.47
-59.80
-41.22
-20.12
-0.10
16.21
27.96
36.02
42.30
48.56
55.54
62.55
67.86
69.46
65.85
56.52
42.00
23.55
2.86
-18.24
-37.83
-54.00
-65.12
-70.22
-69.48
-64.38
-57.42
-51.46
-48.66
-49.72
-53.54
-57.67
-59.21
-55.90
-46.86
-32.65
-14.83
4.70
24.18
42.06
56.95
67.54
72.85
72.59
67.48
59.17
49.88
41.73
36.42
35.07
38.19
45.70
56.73
69.59
81.94
91.28
95.47
93.26
84.51
70.13
51.82
31.79
12.27
-5.05
-19.59
-32.12
-44.64
-59.62
-79.04
-103.26
-130.26
-155.61
-173.43
-178.11
-166.39
-138.75
-99.58
-55.79
-14.46
19.28
43.38
58.27
65.50
66.51
62.28
53.89
42.98
31.75
22.03
14.35
7.75
0.52
-8.49
-18.92
-29.06
-36.82
-41.11
-42.51
-42.90
-44.49
-48.65
-55.37
-63.27
-70.02
-72.92
-69.56
-58.62
-40.46
-17.44
6.73
28.26
44.73
55.91
63.40
69.17
74.02
76.79
74.85
65.54
47.70
22.43
-7.22
-37.15
-63.37
-82.77
-93.56
-95.37
-89.23
-77.35
-62.64
-47.83
-34.80
-24.13
-15.34
-7.59
-0.57
5.31
9.44
12.02
14.90
21.34
34.66
56.50
85.59
117.62
146.51
166.37
173.14
165.51
144.91
114.92
80.35
46.27
16.79
-5.94
-22.43
-35.61
-49.49
-67.24
-89.50
-113.87
-135.72
-150.13
-153.79
-146.12
-129.27
-106.95
-82.98
-60.23
-40.28
-23.82
-11.20
-2.53
2.49
5.16
7.94
13.86
25.36
42.99
64.80
86.72
103.99
112.82
111.71
101.72
85.83
67.75
50.70
36.56
25.78
17.69
11.01
4.36
-3.41
-13.03
-24.56
-37.10
-48.96
-57.96
-62.07
-60.02
-51.63
-38.06
-21.42
-4.17
11.51
24.04
32.65
37.49
39.57
40.65
42.34
45.51
49.98
54.49
56.96
55.30
48.19
35.71
19.92
3.53
-10.78
-20.84
-25.38
-24.19
-18.11
-8.86
1.49
11.60
19.70
23.79
22.26
14.64
1.87
-13.92
-30.12
-44.36
-51.85
-50.10
-41.45
-32.35
-29.05
-34.38
-47.66
-66.58
-89.95
-112.86
-129.59
-134.71
-124.23
-96.81
-54.60
-2.58
54.68
105.94
142.39
161.21
165.46
160.17
149.11
134.10
119.21
103.71
87.41
72.18
59.55
50.02
43.35
39.14
36.56
34.80
31.56
23.86
9.38
-13.73
-46.15
-86.59
-131.01
-172.80
-203.99
-218.07
-211.64
-185.44
-144.78
-97.77
-52.22
-12.99
18.95
45.17
66.94
84.00
94.63
96.90
90.47
77.31
61.04
45.46
33.27
25.45
21.90
22.06
25.00
29.20
32.31
31.57
24.78
11.35
-7.21
-27.64
-46.19
-60.17
-68.67
-72.35
-72.63
-70.76
-67.46
-63.07
-57.95
-52.82
-48.69
-46.35
-45.83
-46.20
-46.01
-44.00
-39.48
-32.21
-22.32
-10.00
4.79
22.21
42.07
63.16
83.26
99.85
111.25
116.85
117.21
113.82
108.45
102.52
96.41
89.69
81.83
73.39
65.41
59.03
55.02
53.37
53.08
51.96
47.00
33.51
9.94
-20.73
-51.99
-77.80
-95.15
-103.97
-106.06
-104.02
-99.71
-93.98
-88.24
-84.08
-82.60
-83.85
-86.85
-90.26
-93.06
-94.89
-94.67
-94.66
-98.94
-110.68
-129.87
-152.49
-171.36
-178.57
-166.21
-131.93
-81.84
-27.39
20.62
56.43
80.67
99.08
120.02
149.09
189.47
237.97
286.94
327.76
353.23
358.61
342.14
286.92
195.57
89.96
-4.31
-73.99
-119.73
-148.55
-167.37
-180.57
-192.27
-199.16
-198.76
-191.49
-178.71
-160.38
-135.22
-102.21
-60.75
-11.63
44.19
104.04
162.55
212.25
245.40
255.92
241.60
205.81
157.47
110.08
73.84
50.59
34.04
14.10
-17.17
-60.75
-109.92
-153.15
-178.43
-180.08
-161.13
-130.29
-96.56
-65.01
-35.20
-5.37
22.86
47.21
65.49
75.12
74.82
66.33
54.17
43.95
39.34
40.96
47.17
54.91
60.62
61.87
59.84
54.93
48.69
42.40
36.34
30.03
22.23
11.66
-1.51
-15.28
-26.51
-31.84
-29.72
-21.02
-8.49
4.47
13.46
14.79
6.31
-11.21
-32.99
-52.81
-66.34
-72.39
-72.58
-69.64
-65.71
-61.86
-58.08
-53.72
-48.50
-42.78
-37.15
-32.48
-29.36
-27.93
-28.12
-29.39
-30.77
-31.53
-31.49
-30.88
-30.64
-32.40
-36.25
-42.36
-50.78
-61.51
-74.44
-88.58
-99.50
-103.67
-96.98
-77.27
-46.48
-10.37
23.58
49.14
63.73
68.79
67.95
65.02
62.04
58.88
54.82
49.82
45.09
42.37
42.71
45.61
49.44
52.31
52.67
50.50
47.08
44.28
44.10
47.07
52.81
60.24
67.81
73.76
76.58
74.93
67.96
55.90
40.27
23.82
9.51
-0.44
-5.51
-6.57
-5.24
-3.06
-0.66
2.19
5.87
9.89
12.98
14.14
13.44
12.54
13.30
17.52
25.92
37.09
47.89
55.17
57.02
53.47
46.10
35.83
24.48
14.54
7.70
3.45
-0.32
-5.80
-14.28
-25.78
-38.49
-49.67
-56.17
-57.35
-56.28
-57.83
-66.13
-83.41
-110.12
-148.72
-198.39
-253.16
-303.75
-339.97
-352.67
-336.29
-291.43
-207.12
-97.21
9.51
90.07
139.13
163.89
175.03
181.41
188.64
202.06
218.35
234.09
246.54
251.13
241.82
215.31
173.73
123.93
73.92
30.93
1.67
-9.92
-5.84
6.42
18.60
24.69
21.32
7.94
-17.35
-53.87
-89.80
-111.52
-112.90
-97.07
-71.74
-51.11
-36.65
-29.96
-31.93
-42.54
-56.62
-72.77
-89.66
-104.18
-111.68
-106.82
-88.74
-61.95
-34.81
-16.16
-11.25
-17.33
-25.32
-25.63
-13.27
8.64
31.46
46.56
49.67
40.97
24.63
5.97
-11.03
-24.09
-33.24
-41.60
-54.30
-75.73
-108.11
-148.87
-190.49
-223.23
-238.73
-232.63
-207.16
-168.36
-121.25
-68.63
-10.64
53.26
120.26
176.97
215.71
233.65
226.25
198.81
164.93
141.20
140.19
164.62
205.55
246.97
271.08
266.33
232.82
179.21
115.86
51.41
-8.18
-58.22
-93.59
-110.59
-107.96
-86.49
-49.86
-5.41
40.44
84.09
124.09
158.37
181.92
188.85
176.63
147.49
104.34
51.98
-4.87
-62.56
-119.47
-175.26
-228.72
-276.65
-299.12
-284.23
-237.33
-178.62
-126.60
-89.45
-66.79
-53.55
-43.45
-31.48
-21.76
-16.81
-19.00
-28.62
-44.96
-67.25
-94.53
-125.35
-147.83
-156.89
-149.30
-124.41
-84.64
-36.50
10.73
48.89
74.15
87.89
92.14
90.38
85.37
78.66
70.94
62.73
55.52
51.40
51.97
55.67
60.22
63.44
63.73
61.78
58.22
54.84
53.54
55.69
60.57
66.76
72.48
75.64
75.15
71.55
67.49
66.72
72.18
83.64
97.26
106.21
102.33
79.94
38.11
-18.92
-83.22
-145.64
-198.07
-235.01
-248.55
-235.84
-199.89
-149.63
-97.74
-57.18
-37.22
-40.31
-61.39
-89.91
-114.55
-126.26
-120.67
-98.71
-65.50
-28.50
5.78
34.44
58.99
83.18
110.27
140.63
171.15
197.01
213.95
221.26
222.16
221.38
221.12
219.82
213.95
201.22
182.96
162.66
144.08
129.02
116.26
102.07
83.10
59.24
33.96
12.00
-5.30
-20.38
-37.32
-59.06
-86.18
-117.01
-148.64
-178.61
-197.31
-197.90
-182.72
-161.24
-140.87
-122.88
-105.40
-87.01
-68.31
-51.12
-38.52
-32.33
-31.30
-32.00
-30.80
-25.98
-18.05
-9.01
-1.34
2.21
0.15
-7.33
-17.03
-25.79
-31.99
-35.98
-39.32
-43.80
-51.32
-63.11
-76.50
-91.26
-105.65
-116.41
-119.28
-110.27
-87.72
-54.13
-15.77
19.59
45.60
59.99
64.39
62.68
58.65
54.39
50.10
45.27
39.93
35.04
32.14
32.07
34.22
36.91
38.55
38.40
37.55
37.33
39.25
44.08
51.41
59.73
67.05
72.12
74.96
76.54
77.98
80.26
83.62
88.05
93.24
97.69
99.82
97.97
90.52
76.47
56.53
32.62
8.05
-13.92
-32.10
-46.08
-55.90
-62.46
-67.30
-71.75
-77.73
-86.81
-100.57
-121.31
-148.42
-178.03
-204.65
-223.56
-225.20
-205.70
-166.28
-106.29
-38.72
19.10
56.66
74.90
81.51
84.08
85.70
86.26
84.70
79.75
73.48
69.40
69.97
76.81
87.75
99.56
110.64
120.96
130.08
138.34
145.49
150.43
152.03
150.10
144.49
135.70
124.43
107.62
85.46
60.38
36.63
18.58
7.99
1.07
-8.16
-24.12
-46.76
-70.49
-88.18
-95.47
-93.62
-88.76
-90.12
-102.86
-125.27
-150.76
-172.43
-188.12
-200.75
-215.71
-222.52
-213.32
-186.85
-149.04
-107.65
-68.40
-35.30
-10.70
5.12
14.43
18.59
19.58
19.72
21.06
24.36
28.40
31.33
31.56
29.46
25.12
19.70
15.07
11.98
11.30
11.83
11.48
7.67
-0.72
-14.59
-32.90
-52.12
-66.87
-71.38
-62.00
-35.39
1.83
40.19
70.56
87.91
92.75
89.67
84.97
83.70
88.10
96.03
103.86
105.78
97.12
76.11
44.35
6.84
-29.70
-58.34
-75.46
-82.32
-83.15
-83.68
-85.52
-89.46
-96.18
-106.26
-119.06
-132.72
-143.13
-144.53
-132.29
-105.40
-67.83
-26.89
5.55
22.48
23.31
12.59
-2.50
-15.88
-24.15
-25.78
-23.52
-20.47
-18.75
-19.70
-23.47
-27.89
-30.12
-27.77
-20.19
-9.06
2.98
14.22
25.25
34.20
43.74
57.51
78.42
107.38
143.25
183.45
224.26
260.19
284.19
290.18
275.07
242.00
200.91
165.31
146.69
148.46
163.59
177.76
177.05
154.35
112.72
63.14
17.85
-16.06
-39.38
-58.05
-76.91
-94.50
-103.45
-95.02
-65.24
-19.05
30.75
68.46
82.76
71.88
43.83
10.75
-17.39
-36.85
-50.71
-65.19
-86.56
-117.43
-154.93
-192.19
-221.74
-237.49
-235.39
-213.64
-172.64
-117.12
-55.92
0.44
42.57
64.42
65.87
52.66
30.61
10.03
-3.28
-14.53
-34.78
-65.88
-100.11
-126.21
-132.24
-113.07
-72.50
-22.88
20.34
45.83
49.26
32.63
1.13
-39.01
-80.55
-115.65
-137.59
-141.68
-125.40
-89.72
-39.22
20.08
73.74
109.19
123.86
123.31
114.70
108.29
107.89
115.97
132.85
156.09
182.62
203.62
212.03
203.39
177.76
139.96
97.79
57.03
18.94
-18.72
-59.97
-107.23
-159.05
-209.30
-248.11
-265.85
-258.63
-230.19
-189.11
-144.89
-103.68
-62.21
-20.52
20.02
57.86
89.77
110.72
116.74
107.55
86.77
59.56
29.94
1.16
-24.02
-42.93
-52.79
-50.97
-36.81
-13.00
14.43
38.64
55.88
68.00
78.79
91.42
104.77
115.54
118.40
106.55
77.66
36.19
-9.40
-46.81
-68.04
-72.49
-66.03
-57.81
-55.76
-62.91
-76.51
-89.75
-95.28
-86.87
-62.29
-24.22
19.53
58.06
80.72
80.91
58.35
19.35
-25.44
-64.33
-87.64
-90.32
-72.93
-40.93
-2.97
31.79
56.80
69.77
72.63
69.68
64.56
58.45
50.21
38.21
21.44
1.76
-16.63
-29.12
-32.96
-28.76
-19.98
-11.22
-5.83
-4.74
-6.37
-7.98
-7.35
-4.04
0.60
4.29
5.17
2.91
-1.06
-4.29
-4.64
-1.71
2.77
5.69
4.09
-3.24
-15.08
-28.31
-39.20
-45.08
-45.37
-41.55
-36.27
-32.01
-30.10
-30.44
-32.00
-33.58
-34.51
-34.94
-35.54
-36.81
-38.62
-40.06
-39.74
-36.50
-29.84
-20.23
-8.83
2.93
13.77
22.87
29.86
34.72
37.61
38.80
38.70
37.91
37.24
37.59
39.59
43.27
47.82
51.64
52.92
50.36
43.89
34.74
25.02
16.72
10.86
7.19
4.54
1.74
-1.63
-5.03
-7.49
-8.37
-7.96
-7.35
-7.78
-9.76
-12.68
-15.02
-15.16
-12.25
-6.67
0.13
6.29
10.24
11.20
9.21
4.87
-0.96
-7.49
-14.04
-20.25
-25.85
-30.71
-34.66
-37.43
-38.64
-37.79
-34.45
-28.40
-19.85
-9.48
1.59
12.13
21.08
27.88
32.51
35.36
36.95
37.66
37.64
36.89
35.29
32.75
29.20
24.57
19.01
12.92
7.07
2.40
-0.34
-0.96
0.03
1.67
3.04
3.71
3.94
4.38
5.57
7.49
9.53
10.79
10.66
9.24
7.24
5.50
4.34
3.30
1.49
-1.73
-6.05
-10.21
-12.58
-12.07
-8.82
-4.06
0.54
3.77
5.44
6.12
6.60
7.18
7.44
6.56
3.90
-0.53
-6.03
-11.59
-16.46
-20.56
-24.36
-28.50
-33.13
-37.67
-40.84
-41.27
-38.11
-31.53
-22.63
-13.04
-4.19
3.06
8.61
12.79
16.02
18.53
20.34
21.33
21.34
20.24
17.92
14.38
9.87
4.97
0.57
-2.53
-3.93
-3.83
-2.81
-1.37
0.54
3.43
7.84
13.65
19.74
24.40
26.16
24.63
20.71
16.11
12.36
10.02
8.52
6.72
3.79
-0.15
-4.11
-6.95
-8.20
-8.52
-9.31
-11.82
-16.17
-21.12
-24.66
-25.19
-22.43
-17.51
-12.25
-8.14
-5.69
-4.44
-3.59
-2.61
-1.46
-0.29
1.01
2.97
6.33
11.62
18.67
26.44
33.12
36.51
34.66
26.79
14.09
-0.20
-11.69
-16.58
-13.39
-3.71
8.59
19.27
25.79
28.08
27.83
26.79
25.40
22.53
16.65
7.33
-3.82
-13.51
-18.29
-16.29
-8.24
2.79
12.77
18.48
18.80
14.80
8.81
3.01
-1.62
-5.42
-9.21
-13.31
-16.97
-18.67
-17.27
-13.01
-7.75
-4.16
-4.32
-8.59
-15.43
-22.22
-26.70
-28.08
-27.25
-26.10
-26.35
-28.53
-31.72
-33.96
-33.22
-28.22
-19.15
-7.63
3.81
12.57
17.01
17.03
14.17
10.85
9.24
10.20
12.99
15.76
16.68
15.00
11.55
8.23
6.94
8.55
12.31
16.25
18.15
16.75
12.37
6.83
2.43
0.76
1.85
4.22
5.88
5.52
3.35
0.87
-0.23
0.85
3.41
5.77
6.29
4.37
0.73
-3.22
-6.22
-7.89
-8.77
-9.73
-11.37
-13.62
-15.83
-17.13
-16.94
-15.28
-12.68
-10.04
-8.19
-7.53
-7.90
-8.69
-9.21
-9.13
-8.63
-8.30
-8.71
-9.96
-11.65
-13.08
-13.70
-13.24
-11.70
-9.06
-5.20
-0.09
5.91
11.85
16.45
18.69
18.34
16.13
13.31
11.04
9.85
9.59
9.65
9.43
8.68
7.48
6.19
5.27
5.07
5.71
6.98
8.47
9.75
10.67
11.41
12.42
13.95
15.75
16.96
16.45
13.56
8.52
2.50
-2.99
-6.77
-8.54
-8.81
-8.38
-7.68
-6.57
-4.51
-1.22
2.91
6.79
9.20
9.51
8.05
5.99
4.61
4.60
5.73
7.13
7.82
7.11
4.68
0.50
-5.30
-12.32
-19.60
-25.72
-29.25
-29.45
-26.83
-22.97
-19.67
-18.01
-17.82
-18.05
-17.71
-16.41
-14.31
-11.53
-7.62
-1.79
6.18
15.14
22.69
26.21
24.35
17.98
9.99
3.84
1.85
4.27
9.57
15.76
21.52
26.67
31.62
36.38
40.09
41.29
38.87
33.00
25.39
18.53
14.36
13.27
13.85
13.82
11.34
6.07
-0.82
-7.46
-12.52
-15.94
-18.80
-22.58
-27.99
-34.35
-39.89
-42.62
-41.39
-36.46
-29.32
-22.01
-16.26
-13.02
-12.52
-14.66
-19.26
-26.05
-34.37
-42.98
-50.20
-54.55
-55.30
-52.73
-47.78
-41.37
-33.87
-25.24
-15.37
-4.71
5.52
13.73
18.63
19.83
17.98
14.47
10.68
7.56
5.36
3.77
2.28
0.54
-1.31
-2.64
-2.42
0.39
6.45
15.61
26.81
38.30
48.09
54.48
56.43
53.77
47.07
37.43
26.14
14.46
3.58
-5.47
-11.85
-15.15
-15.56
-14.11
-12.37
-11.94
-13.79
-17.80
-22.86
-27.42
-30.13
-30.19
-27.34
-21.56
-12.87
-1.32
12.52
27.31
40.98
51.35
56.97
57.65
54.28
48.01
39.36
27.81
12.44
-6.69
-27.50
-45.95
-57.43
-58.80
-50.02
-34.38
-17.03
-2.79
5.94
9.68
10.75
11.32
12.17
12.51
11.11
7.49
2.26
-3.05
-6.98
-9.12
-10.18
-11.12
-12.22
-12.75
-11.51
-8.21
-3.08
3.24
9.79
15.51
19.69
22.19
23.30
23.58
22.90
22.36
23.83
28.40
35.17
41.63
45.32
45.02
41.22
33.68
23.82
14.03
5.92
-0.55
-6.51
-13.82
-25.44
-45.33
-79.04
-126.73
-181.01
-229.50
-259.87
-264.23
-241.61
-197.77
-129.18
-47.63
26.81
80.92
115.18
136.46
150.26
158.83
162.37
160.23
149.31
128.14
97.68
60.41
19.39
-21.92
-59.99
-92.19
-116.97
-134.39
-141.90
-134.73
-109.79
-69.54
-21.97
22.25
54.33
70.83
73.43
68.96
65.46
68.30
77.50
88.75
95.61
92.45
75.27
44.00
4.43
-32.84
-56.17
-58.00
-37.90
-2.44
38.04
74.20
101.53
120.94
135.70
147.28
152.73
146.40
123.95
85.77
37.95
-9.88
-48.54
-73.18
-82.73
-81.60
-76.45
-72.13
-69.85
-67.91
-63.72
-55.93
-45.42
-34.67
-26.60
-22.74
-22.59
-24.10
-24.89
-23.29
-19.03
-13.10
-7.14
-2.81
-0.76
-0.48
-0.79
-0.46
1.23
4.25
7.96
11.50
14.09
15.55
16.20
16.64
17.35
18.49
19.86
21.01
21.39
20.38
18.06
14.59
10.21
5.16
-0.39
-6.38
-12.65
-18.53
-24.07
-29.11
-33.45
-36.92
-39.44
-40.97
-41.54
-41.03
-40.08
-38.01
-34.54
-29.66
-23.43
-16.12
-8.06
0.34
9.39
18.20
26.45
33.79
39.90
44.48
47.18
47.80
45.99
42.18
36.70
30.13
22.94
15.42
7.67
-0.41
-8.26
-16.08
-23.32
-29.22
-32.73
-33.17
-31.13
-26.68
-20.72
-14.29
-8.11
-2.05
4.48
12.31
21.71
31.94
41.22
47.26
48.23
43.41
33.87
21.92
10.40
1.23
-4.05
-6.92
-9.34
-13.04
-18.91
-26.83
-36.23
-45.91
-53.53
-55.35
-47.19
-26.60
4.42
38.41
64.81
74.43
64.20
38.90
8.82
-15.57
-28.49
-30.97
-28.81
-28.18
-31.80
-37.97
-42.50
-42.05
-36.55
-28.76
-22.70
-21.41
-25.38
-32.85
-41.36
-48.77
-54.48
-58.29
-58.84
-53.36
-39.23
-16.44
10.53
33.62
44.61
39.35
20.31
-4.60
-25.66
-36.12
-34.40
-23.62
-8.80
6.15
19.54
31.30
41.36
48.69
51.30
47.97
38.62
24.63
8.06
-9.30
-27.12
-46.55
-68.27
-92.53
-116.28
-133.51
-137.62
-124.63
-95.85
-58.02
-20.66
7.86
23.89
29.63
31.06
34.75
45.07
63.18
87.47
114.36
138.99
156.07
160.38
150.13
127.12
96.84
66.17
40.77
22.77
10.26
-1.22
-15.93
-36.04
-60.69
-86.14
-107.15
-118.84
-117.65
-104.58
-83.68
-60.63
-40.16
-24.34
-12.21
-0.95
11.74
26.64
43.15
60.74
79.76
100.76
121.89
139.49
147.62
140.88
117.73
81.32
38.44
-3.39
-39.97
-69.55
-91.67
-105.69
-110.18
-104.08
-88.32
-68.12
-50.49
-41.40
-42.93
-52.52
-64.95
-75.34
-81.13
-82.81
-82.50
-81.77
-80.72
-78.01
-71.99
-61.53
-47.02
-29.82
-11.88
5.20
20.74
34.75
47.68
59.10
69.24
77.62
83.48
86.17
85.41
81.75
76.19
69.87
63.73
58.37
53.83
49.87
46.58
43.44
40.48
37.78
35.44
33.40
31.49
29.41
26.90
24.30
21.39
18.42
15.66
13.26
11.24
9.58
8.27
7.30
6.76
6.58
6.73
6.91
6.66
5.48
3.16
-0.16
-3.95
-7.41
-9.93
-11.17
-11.36
-11.29
-11.86
-13.65
-16.48
-19.43
-21.22
-20.83
-18.05
-13.83
-10.05
-8.61
-10.62
-15.60
-21.66
-26.14
-26.94
-23.40
-16.92
-10.59
-7.59
-9.96
-17.45
-27.80
-37.93
-45.12
-47.76
-45.67
-40.20
-33.83
-30.93
-37.22
-58.52
-97.73
-151.98
-211.24
-260.95
-287.84
-285.06
-256.13
-213.31
-171.89
-142.80
-130.61
-131.57
-136.07
-134.12
-118.72
-89.11
-49.73
-7.16
33.42
69.81
102.28
131.67
158.26
184.33
212.86
246.89
288.14
336.11
386.90
432.49
461.64
463.22
434.31
380.31
313.77
250.19
203.84
183.30
189.16
214.00
226.67
204.65
143.61
58.79
-28.78
-104.86
-165.58
-213.19
-251.96
-284.80
-309.25
-322.13
-321.03
-309.87
-294.46
-280.34
-270.42
-265.48
-264.40
-262.39
-254.76
-238.84
-215.02
-184.67
-153.09
-123.11
-96.22
-72.64
-50.16
-26.34
0.22
29.10
59.26
89.96
121.89
155.84
191.52
227.06
257.84
277.50
280.27
264.33
233.13
194.74
158.24
130.46
114.56
109.91
113.73
122.70
134.10
145.56
154.89
159.58
157.53
148.05
132.33
113.01
93.09
74.89
59.41
46.55
35.46
25.16
14.99
4.83
-4.95
-13.53
-19.99
-23.58
-24.09
-22.29
-19.89
-19.31
-22.90
-32.07
-46.67
-64.99
-84.26
-101.50
-114.36
-121.52
-122.75
-118.65
-110.37
-99.38
-87.25
-75.47
-65.18
-56.92
-50.58
-45.61
-41.36
-37.33
-33.32
-29.32
-25.38
-21.50
-17.69
-14.08
-10.93
-8.52
-7.05
-6.48
-6.51
-6.75
-6.84
-6.65
-6.24
-5.77
-5.36
-5.04
-4.66
-4.10
-3.25
-2.19
-1.12
-0.29
0.06
-0.16
-0.92
-2.05
-3.34
-4.57
-5.59
-6.31
-6.72
-6.86
-6.74
-6.33
-5.55
-4.28
-2.51
-0.38
1.88
3.99
5.76
7.16
8.28
9.22
9.99
10.50
10.60
10.21
9.35
8.13
6.63
4.88
2.84
0.44
-2.31
-5.38
-8.68
-12.14
-15.70
-19.30
-22.78
-25.93
-28.50
-30.25
-31.03
-30.79
-29.57
-27.45
-24.57
-21.07
-17.16
-13.05
-8.95
-5.02
-1.41
1.77
4.38
6.32
7.54
8.03
7.93
7.41
6.66
5.86
5.15
4.64
4.38
4.36
4.47
4.51
4.25
3.50
2.21
0.51
-1.36
-3.04
-4.27
-4.89
-4.90
-4.47
-3.78
-3.01
-2.28
-1.63
-1.04
-0.51
-0.04
0.32
0.51
0.50
0.33
0.07
-0.18
-0.42
-0.68
-1.07
-1.65
-2.43
-3.31
-4.12
-4.63
-4.68
-4.17
-3.10
-1.56
0.22
1.99
3.44
4.34
4.53
4.04
3.04
1.75
0.43
-0.72
-1.60
-2.15
-2.38
-2.35
-2.20
-2.06
-2.07
-2.25
-2.49
-2.57
-2.27
-1.44
-0.13
1.46
3.08
4.53
5.75
6.77
7.63
8.35
8.86
9.07
8.94
8.48
7.80
7.01
6.21
5.42
4.65
3.84
2.93
1.92
0.87
-0.10
-0.87
-1.32
-1.46
-1.43
-1.46
-1.75
-2.43
-3.41
-4.51
-5.48
-6.16
-6.53
-6.75
-7.09
-7.80
-9.01
-10.65
-12.49
-14.18
-15.49
-16.25
-16.50
-16.35
-15.93
-15.37
-14.74
-14.14
-13.60
-13.11
-12.56
-11.80
-10.67
-9.10
-7.16
-5.01
-2.84
-0.78
1.10
2.80
4.30
5.49
6.30
6.65
6.64
6.48
6.43
6.70
7.35
8.29
9.37
10.46
11.50
12.52
13.52
14.42
15.10
15.42
15.30
14.73
13.70
12.24
10.38
8.27
6.20
4.53
3.62
3.60
4.36
5.59
6.91
8.00
8.70
8.94
8.74
8.16
7.29
6.23
5.12
4.00
2.88
1.77
0.69
-0.29
-1.07
-1.61
-1.98
-2.36
-2.92
-3.76
-4.86
-6.07
-7.22
-8.18
-8.90
-9.38
-9.67
-9.83
-9.90
-9.91
-9.84
-9.58
-8.99
-7.90
-6.18
-3.84
-1.05
1.88
4.57
6.73
8.18
8.85
8.80
8.14
7.04
5.67
4.18
2.68
1.30
0.08
-0.93
-1.70
-2.10
-1.97
-1.12
0.55
2.94
5.83
8.88
11.74
14.21
16.26
18.05
19.71
21.24
22.41
22.98
22.68
21.18
18.26
13.83
8.01
1.16
-6.24
-13.54
-19.64
-23.58
-24.87
-23.74
-21.04
-17.94
-15.38
-13.77
-12.77
-10.78
-6.10
2.15
13.42
26.00
37.63
46.53
51.91
54.12
55.08
56.81
60.42
65.50
70.57
73.41
71.91
64.18
44.33
9.74
-37.34
-89.56
-137.33
-172.19
-188.85
-185.45
-164.07
-130.35
-90.95
-51.68
-15.78
16.18
46.43
74.84
98.67
113.44
115.05
102.78
79.88
52.38
26.84
8.06
-2.25
-4.79
-1.70
4.49
11.16
16.71
20.09
20.69
18.24
12.86
5.49
-2.30
-8.58
-11.40
-9.58
-3.47
5.01
12.95
17.60
17.60
13.38
6.82
0.22
-4.73
-7.96
-11.00
-16.15
-25.26
-38.49
-54.01
-68.60
-78.97
-83.24
-81.74
-76.77
-71.42
-68.17
-67.84
-69.66
-71.85
-72.64
-70.93
-66.50
-59.82
-51.75
-43.34
-35.61
-29.44
-25.17
-22.32
-19.53
-14.95
-6.96
5.01
20.09
36.22
50.81
61.69
67.65
68.54
64.97
57.92
48.59
38.32
28.62
21.01
16.61
15.76
17.85
21.47
25.02
27.20
27.47
26.07
23.73
21.26
19.24
17.86
16.96
16.17
15.17
13.77
12.00
10.09
8.34
7.05
6.35
6.17
6.26
6.28
5.98
5.33
4.49
3.77
3.44
3.62
4.17
4.80
5.20
5.20
4.92
4.63
4.63
5.09
5.97
7.02
7.90
8.37
8.44
8.35
8.58
9.58
11.65
14.65
18.12
21.31
23.51
24.31
23.73
22.16
20.22
18.67
18.32
20.01
24.35
31.17
39.15
45.73
47.85
43.09
30.77
12.33
-9.17
-30.46
-49.22
-64.66
-77.01
-86.55
-92.91
-95.11
-92.39
-85.07
-74.83
-64.06
-54.76
-47.62
-41.85
-35.88
-28.43
-19.26
-9.31
-0.16
6.77
10.87
12.41
12.24
11.30
10.28
9.41
8.61
7.70
6.62
5.49
4.61
4.29
4.63
5.50
6.53
7.29
7.47
7.00
6.07
4.99
4.08
3.57
3.52
3.91
4.62
5.55
6.56
7.52
8.28
8.72
8.77
8.46
7.92
7.32
6.80
6.44
6.24
6.16
6.20
6.43
6.93
7.69
8.56
9.27
9.52
9.15
8.24
7.08
6.08
5.54
5.57
6.04
6.67
7.14
7.21
6.78
5.83
4.42
2.65
0.69
-1.24
-2.94
-4.24
-5.07
-5.50
-5.71
-5.89
-6.13
-6.44
-6.67
-6.67
-6.36
-5.79
-5.10
-4.47
-4.05
-3.82
-3.69
-3.46
-2.98
-2.19
-1.14
-0.02
0.96
1.65
2.02
2.17
2.25
2.41
2.71
3.09
3.43
3.62
3.58
3.33
2.89
2.32
1.65
0.93
0.26
-0.23
-0.40
-0.14
0.58
1.65
2.90
4.11
5.06
5.62
5.77
5.60
5.25
4.93
4.79
4.91
5.26
5.74
6.25
6.71
7.16
7.66
8.27
9.04
9.95
10.96
12.07
13.27
14.54
15.85
17.10
18.16
18.94
19.39
19.64
19.89
20.43
21.54
23.41
26.02
29.09
32.14
34.50
35.55
34.78
31.91
26.83
19.63
10.53
-0.07
-11.69
-23.90
-36.51
-49.65
-63.59
-78.30
-93.04
-106.17
-115.48
-118.95
-115.58
-105.69
-90.80
-72.95
-53.85
-34.58
-15.56
2.93
20.36
35.81
48.28
57.11
62.32
64.56
64.82
64.07
62.96
61.83
60.82
60.06
59.62
59.28
58.40
55.86
50.37
41.00
27.64
11.32
-5.94
-21.56
-33.03
-38.51
-37.37
-30.30
-19.16
-6.43
5.46
14.77
20.68
23.20
22.77
20.00
15.58
10.50
6.16
4.11
5.60
10.81
18.58
26.64
32.27
33.31
28.89
19.64
7.48
-4.98
-15.18
-21.25
-22.43
-19.09
-12.53
-4.42
3.53
9.68
12.36
10.06
2.06
-10.66
-25.13
-37.02
-42.33
-39.26
-29.11
-15.72
-3.62
3.99
6.29
4.43
0.13
-5.74
-13.52
-23.99
-37.20
-51.71
-64.89
-74.08
-77.93
-76.87
-72.70
-67.42
-62.06
-56.21
-48.49
-37.80
-24.30
-9.74
3.27
12.36
16.62
17.00
15.71
15.12
16.70
20.43
25.06
28.74
29.78
27.39
22.07
15.36
9.26
5.40
4.54
6.45
10.26
14.82
19.32
23.68
28.34
33.80
40.16
46.98
53.41
58.55
61.16
60.58
57.16
52.19
47.20
43.20
40.46
38.63
37.03
33.95
28.18
20.02
11.29
4.28
0.69
1.33
6.22
14.79
24.17
31.39
34.94
35.39
34.31
33.03
32.04
30.83
27.81
18.11
-3.15
-37.99
-84.06
-135.89
-187.20
-232.80
-270.06
-284.63
-268.71
-227.23
-175.82
-128.56
-90.35
-59.25
-32.08
-7.56
13.63
28.19
34.25
33.36
29.96
28.34
30.34
35.30
41.42
47.14
50.03
48.92
44.65
39.69
36.43
35.72
37.00
39.14
41.21
41.80
40.16
36.77
33.10
30.53
29.54
29.80
30.68
31.66
32.04
31.46
30.12
28.70
27.87
27.87
28.59
29.83
31.37
32.93
34.33
35.48
36.41
36.88
36.82
35.99
34.12
31.04
26.73
21.32
15.03
8.18
1.62
-4.59
-10.14
-14.78
-18.37
-20.84
-22.23
-22.71
-22.45
-21.67
-20.59
-19.37
-18.09
-16.84
-15.64
-14.46
-13.34
-12.26
-11.19
-10.18
-9.21
-8.28
-7.39
-6.77
-6.22
-5.71
-5.26
-4.84
-4.51
-4.25
-4.06
-3.95
-3.92
-3.91
-3.97
-4.09
-4.25
-4.48
-4.77
-5.10
-5.47
-5.87
-6.27
-6.72
-7.26
-7.86
-8.58
-9.40
-10.24
-11.07
-11.86
-12.61
-13.44
-14.42
-15.56
-16.89
-18.34
-19.80
-21.05
-21.96
-22.38
-22.25
-21.85
-20.74
-18.75
-15.75
-11.65
-6.52
-0.68
5.42
11.10
15.68
18.84
20.43
20.63
19.91
18.71
17.23
15.22
12.09
6.99
-0.30
-9.51
-19.86
-30.17
-39.30
-46.57
-52.00
-56.09
-59.67
-62.57
-63.92
-62.24
-56.03
-44.40
-27.99
-8.71
11.78
29.88
43.96
53.58
58.59
58.58
53.78
45.38
36.25
30.61
31.41
39.33
50.78
59.20
58.53
46.78
27.19
6.07
-10.60
-21.30
-27.97
-34.17
-42.10
-49.99
-52.91
-46.09
-28.70
-2.28
25.63
49.19
67.40
80.81
89.46
90.96
80.69
53.64
8.78
-49.64
-110.57
-160.40
-188.26
-189.83
-168.81
-130.50
-86.14
-43.75
-12.69
2.77
4.79
0.23
-3.42
-1.38
7.16
20.91
38.26
55.83
69.51
72.48
59.70
32.66
-0.01
-26.10
-36.17
-28.33
-10.33
6.21
11.32
-0.53
-25.18
-51.04
-68.04
-74.37
-73.07
-65.48
-47.28
-13.62
35.70
93.22
144.75
174.21
172.12
140.72
94.17
55.91
47.98
81.20
150.99
239.88
324.24
385.35
414.53
400.94
348.10
273.46
198.82
137.59
94.55
59.21
25.81
-5.04
-29.94
-45.42
-52.22
-56.96
-69.10
-96.24
-141.16
-199.14
-260.99
-316.11
-353.68
-366.88
-354.98
-322.52
-276.79
-226.11
-177.26
-136.34
-108.15
-93.83
-91.22
-96.15
-104.33
-113.19
-122.99
-135.00
-149.74
-164.68
-173.33
-168.36
-146.14
-109.51
-66.32
-25.42
8.38
36.22
63.98
98.74
144.61
200.01
257.83
307.95
340.50
348.99
332.04
293.53
241.19
183.65
127.77
76.86
30.78
-12.68
-56.17
-101.53
-149.41
-199.09
-248.28
-292.87
-327.31
-345.78
-344.28
-322.32
-283.06
-232.37
-176.74
-121.73
-71.44
-28.64
5.07
29.55
46.77
60.67
75.91
95.92
121.21
149.36
176.41
198.96
215.67
227.49
236.81
245.94
255.94
266.01
273.42
273.95
262.92
236.78
194.86
140.55
80.77
23.95
-22.86
-56.25
-77.12
-89.52
-98.31
-106.89
-116.23
-125.45
-133.14
-138.38
-140.78
-139.76
-133.89
-121.29
-101.35
-76.39
-51.93
-34.65
-29.23
-35.66
-48.95
-61.72
-68.22
-67.43
-63.05
-60.47
-62.52
-66.92
-67.23
-56.59
-32.02
3.29
41.05
71.74
88.99
92.00
84.97
74.27
65.15
59.66
56.78
54.07
49.76
43.74
37.41
32.76
31.17
32.59
35.41
37.21
35.45
28.38
15.23
-3.72
-26.97
-51.58
-72.94
-85.37
-83.83
-66.49
-36.58
-2.04
27.30
44.05
46.53
38.99
28.69
21.34
17.71
13.95
5.10
-10.48
-28.78
-41.71
-41.66
-26.32
-0.64
25.39
41.97
44.40
35.04
21.42
11.49
9.49
14.32
21.20
25.03
23.24
16.60
7.96
0.34
-4.41
-6.10
-5.74
-4.92
-4.99
-6.75
-10.41
-15.76
-22.46
-29.98
-37.07
-41.27
-38.92
-26.62
-3.33
28.09
60.98
87.35
101.43
102.43
94.64
84.76
77.94
75.31
74.48
72.67
69.78
69.23
75.76
91.81
114.58
136.16
147.22
141.95
121.67
95.05
75.06
73.63
96.66
141.58
197.69
250.70
287.96
302.38
293.40
264.99
222.83
172.29
118.18
64.94
19.08
-10.80
-16.42
5.49
49.61
102.08
144.81
162.11
144.69
93.69
19.68
-61.27
-134.52
-191.04
-228.50
-249.59
-258.76
-262.29
-265.19
-270.64
-280.19
-295.85
-320.26
-355.89
-403.99
-448.87
-475.36
-475.76
-454.75
-423.24
-390.01
-356.29
-316.85
-265.16
-198.31
-121.50
-44.72
18.55
66.31
99.52
120.77
132.93
138.54
140.31
139.62
138.21
138.28
142.28
149.02
154.38
153.25
142.53
122.83
96.75
67.77
39.01
13.21
-8.63
-26.14
-39.26
-48.37
-54.31
-58.67
-63.40
-69.65
-77.12
-85.33
-93.32
-99.99
-104.41
-106.00
-104.80
-101.89
-97.08
-89.58
-78.88
-64.53
-46.26
-24.15
1.23
28.88
57.39
83.66
106.10
123.81
136.58
144.72
148.78
149.41
147.19
142.36
135.51
127.45
118.67
109.59
100.54
91.80
83.48
75.64
67.98
60.59
53.88
47.84
42.25
36.94
31.72
26.33
22.02
17.49
12.28
6.58
0.36
-6.43
-13.48
-20.33
-26.53
-31.66
-35.66
-38.16
-38.59
-37.08
-34.19
-30.23
-25.42
-20.08
-14.42
-8.95
-5.86
-4.22
-3.40
-3.36
-3.81
-4.29
-4.68
-4.83
-5.18
-5.80
-6.56
-6.34
-6.89
-9.11
-13.02
-18.71
-25.97
-34.82
-44.68
-54.69
-64.56
-74.43
-83.63
-91.03
-96.17
-98.77
-99.37
-98.26
-95.73
-92.42
-89.16
-89.02
-91.75
-97.30
-102.67
-109.04
-116.64
-124.72
-132.29
-138.90
-143.86
-147.16
-149.81
-152.64
-156.21
-159.53
-160.72
-157.14
-151.84
-144.64
-134.41
-120.28
-101.78
-79.60
-54.83
-29.11
-4.19
18.66
39.94
60.80
82.21
104.55
127.09
148.75
168.20
184.70
198.55
211.80
226.95
246.00
269.75
297.44
327.12
355.94
380.78
398.35
405.63
399.16
375.90
334.87
278.63
213.35
146.69
84.76
30.14
-17.41
-58.74
-92.30
-113.40
-116.61
-99.84
-67.44
-29.55
2.30
20.97
26.71
25.89
26.19
31.65
40.91
48.83
50.63
45.08
35.41
27.18
24.85
29.31
37.45
44.64
46.55
41.08
29.13
14.31
1.34
-5.87
-5.88
-0.07
9.50
20.17
29.80
37.57
44.23
51.16
59.19
68.01
76.66
86.35
98.21
112.16
126.24
137.49
143.23
142.16
134.98
124.22
115.52
112.93
116.94
124.71
132.27
136.39
134.91
126.23
94.73
35.05
-44.89
-127.19
-195.36
-241.65
-266.41
-274.42
-271.67
-263.25
-250.09
-232.55
-212.01
-191.25
-173.05
-158.68
-148.01
-139.98
-133.27
-124.96
-113.47
-99.29
-84.57
-71.58
-61.26
-53.40
-47.12
-41.37
-34.27
-24.89
-13.80
-2.68
6.17
12.07
14.86
14.82
12.43
8.70
4.30
-0.64
-5.48
-10.77
-16.31
-21.61
-26.08
-29.29
-30.92
-31.04
-30.07
-28.58
-27.16
-25.82
-24.43
-22.76
-20.73
-18.60
-16.81
-15.79
-15.73
-16.49
-17.37
-17.57
-16.53
-14.22
-11.38
-9.18
-8.68
-10.35
-13.73
-17.40
-19.65
-19.26
-16.15
-11.69
-8.09
-7.46
-10.84
-17.50
-25.08
-30.63
-32.33
-29.52
-23.87
-18.44
-16.30
-19.49
-28.33
-41.33
-55.42
-66.21
-68.60
-58.69
-35.84
-4.08
27.57
48.25
49.83
31.01
-1.18
-34.32
-55.60
-57.62
-40.94
-12.90
16.02
37.04
45.76
42.83
32.42
20.15
11.44
10.15
17.26
30.61
45.44
55.97
57.98
50.26
34.96
16.33
-1.57
-16.50
-28.13
-37.08
-43.80
-47.42
-46.91
-42.28
-35.41
-29.74
-28.61
-34.08
-45.44
-60.32
-75.98
-90.72
-104.40
-117.23
-128.69
-137.04
-139.78
-134.78
-121.57
-101.12
-75.53
-47.24
-18.19
9.98
35.71
57.39
73.87
81.76
82.05
77.81
71.94
66.37
61.16
55.22
47.25
36.56
25.76
14.33
2.35
-10.20
-22.79
-35.30
-47.82
-60.53
-73.52
-86.81
-100.23
-113.45
-126.50
-138.80
-150.19
-160.60
-169.90
-177.78
-183.65
-186.57
-184.67
-181.12
-176.61
-171.54
-166.09
-160.33
-154.16
-147.46
-140.25
-132.03
-122.75
-112.04
-100.22
-87.70
-74.85
-62.04
-49.71
-38.49
-28.57
-20.41
-14.08
-9.89
-7.96
-7.94
-9.21
-11.11
-13.10
-13.86
-12.75
-9.66
-5.23
-0.01
6.01
13.28
22.21
32.85
47.34
66.14
87.56
108.35
125.82
139.22
149.52
158.40
167.32
182.46
206.91
239.09
274.05
307.47
338.22
367.93
399.04
433.06
478.63
539.25
610.63
682.81
746.48
797.16
835.30
864.04
887.59
921.37
974.46
1043.69
1114.36
1168.14
1190.53
1174.83
1121.97
967.82
696.44
345.45
-13.00
-318.50
-547.13
-703.43
-802.47
-859.62
-887.57
-885.50
-855.70
-807.40
-753.74
-703.85
-659.26
-616.39
-571.34
-523.88
-468.31
-403.63
-334.53
-268.99
-213.14
-173.60
-149.16
-137.35
-136.05
-137.45
-135.52
-128.46
-118.71
-109.34
-101.65
-93.91
-84.31
-73.02
-60.24
-49.34
-45.71
-55.41
-80.09
-115.59
-152.63
-181.27
-194.25
-187.79
-163.88
-129.75
-95.50
-70.65
-61.42
-69.01
-89.87
-117.03
-140.64
-151.10
-142.25
-112.82
-65.69
-6.20
60.41
129.80
194.52
247.59
283.52
299.32
295.43
276.29
248.52
218.32
188.65
157.44
121.43
78.63
29.99
-21.26
-71.56
-119.11
-164.87
-210.84
-258.20
-302.11
-333.07
-341.62
-323.52
-282.66
-229.93
-178.61
-129.97
-88.04
-54.66
-29.02
-9.34
4.94
13.29
15.93
15.23
14.99
16.87
21.57
28.29
35.15
40.10
42.06
41.13
38.38
35.58
33.36
32.44
33.35
35.57
37.91
39.04
38.25
35.88
33.12
30.70
29.61
30.43
32.90
36.15
39.11
41.01
41.85
42.28
42.84
43.95
45.65
47.05
46.62
42.74
34.40
21.72
5.97
-11.02
-26.97
-40.67
-51.86
-61.01
-68.90
-76.27
-83.68
-91.75
-100.63
-109.32
-115.32
-114.76
-103.99
-81.57
-49.83
-14.40
17.48
40.18
51.74
53.98
50.89
46.33
42.26
38.69
34.84
30.35
25.92
22.75
21.55
21.97
22.77
22.59
20.38
16.22
10.92
5.71
1.34
-2.07
-5.08
-8.47
-12.64
-17.40
-21.74
-24.47
-24.57
-21.65
-16.12
-8.89
-0.90
7.35
15.91
25.29
35.66
46.66
57.25
65.79
70.58
70.52
65.52
56.68
46.36
37.36
32.18
32.08
35.74
39.26
37.50
26.25
3.67
-26.85
-58.77
-85.17
-99.74
-98.70
-81.81
-52.12
-15.35
21.60
52.29
70.90
75.92
69.28
54.96
37.12
18.95
2.10
-12.53
-23.98
-31.29
-33.36
-30.46
-24.03
-16.21
-8.76
-2.56
2.96
9.27
17.72
29.09
43.08
58.78
75.06
90.71
104.20
113.42
116.03
110.10
95.61
74.66
51.13
29.33
12.52
2.24
-1.49
0.49
6.74
15.49
24.42
31.03
33.65
32.35
29.23
27.73
30.92
39.81
52.74
65.77
74.22
74.18
63.54
42.91
15.32
-14.30
-40.65
-59.89
-71.14
-76.91
-82.07
-91.93
-109.45
-133.54
-158.71
-176.45
-178.27
-158.66
-117.06
-57.94
10.33
77.83
135.44
177.01
200.58
208.37
205.63
198.77
193.22
191.72
193.76
195.94
193.29
180.99
155.82
117.29
67.65
11.37
-46.00
-99.13
-144.69
-182.46
-215.26
-247.88
-284.88
-328.98
-380.41
-436.19
-490.05
-532.89
-554.86
-548.79
-514.09
-458.73
-397.78
-348.03
-320.93
-317.66
-328.83
-339.62
-336.91
-314.47
-273.79
-220.97
-162.26
-101.16
-39.05
22.80
80.68
128.60
161.69
179.99
189.62
200.86
223.71
263.10
317.24
376.87
427.87
456.89
456.17
425.79
374.07
315.38
266.48
242.90
251.24
285.36
328.91
361.83
368.29
343.31
295.13
241.78
204.71
196.15
212.83
239.61
257.98
254.35
224.81
174.78
103.52
23.07
-47.85
-96.93
-124.70
-138.33
-142.88
-138.60
-123.96
-99.47
-68.83
-37.77
-14.63
-5.03
-8.75
-20.83
-35.11
-47.39
-56.84
-64.28
-70.24
-77.54
-87.91
-101.12
-116.42
-134.28
-156.61
-185.17
-218.30
-250.94
-275.88
-284.70
-270.73
-232.43
-175.12
-109.85
-49.51
-4.20
20.79
24.65
10.38
-16.87
-51.05
-85.64
-113.58
-128.02
-124.07
-101.40
-65.76
-27.37
2.37
15.00
7.92
-15.21
-46.46
-77.09
-100.55
-114.10
-118.32
-115.55
-108.25
-97.99
-85.40
-70.70
-54.36
-37.37
-20.97
-5.93
7.95
21.91
37.57
55.72
75.44
94.08
108.24
115.40
115.24
109.85
102.69
96.82
93.50
91.90
90.06
86.49
81.18
75.70
72.16
71.96
74.89
79.25
82.71
83.48
81.02
76.05
69.88
63.52
57.07
49.75
40.51
28.88
15.44
1.81
-9.90
-17.86
-21.33
-20.91
-18.34
-15.77
-14.83
-16.07
-19.01
-22.57
-25.83
-28.45
-30.78
-33.36
-36.41
-39.54
-41.81
-42.09
-39.68
-34.76
-28.56
-22.92
-19.35
-18.18
-18.02
-16.27
-10.52
-0.12
13.07
25.42
33.43
35.57
33.05
28.88
26.03
25.63
26.57
26.56
23.91
18.87
13.65
11.14
13.18
19.41
27.31
33.50
35.40
32.45
26.32
19.97
16.11
15.72
17.68
19.41
18.47
14.00
7.15
0.43
-3.75
-4.39
-2.34
0.37
1.62
0.38
-3.03
-7.30
-11.04
-13.50
-14.73
-15.21
-15.33
-15.17
-14.53
-13.29
-11.83
-11.06
-12.01
-14.96
-18.82
-21.18
-19.35
-11.92
0.04
13.15
23.30
27.84
26.95
23.32
20.41
20.29
22.49
24.67
24.47
21.38
17.25
14.97
16.55
21.69
27.94
32.09
31.98
27.49
20.34
12.89
6.93
3.05
0.79
-0.66
-1.91
-3.16
-4.32
-5.35
-6.33
-7.26
-7.98
-8.22
-7.74
-6.59
-5.15
-3.91
-3.33
-3.64
-4.80
-6.59
-8.70
-10.66
-11.99
-12.31
-11.61
-10.31
-9.21
-9.23
-11.06
-14.79
-19.67
-24.11
-26.07
-23.75
-16.42
-5.11
7.62
18.52
25.10
26.68
24.51
20.90
17.85
16.00
14.60
12.42
8.98
5.13
2.62
2.94
6.30
11.36
15.88
17.89
16.69
13.13
9.00
6.03
5.02
5.50
6.14
5.51
3.06
-0.55
-3.92
-5.74
-5.63
-4.32
-3.10
-2.94
-3.95
-5.45
-6.70
-7.51
-8.52
-10.59
-14.06
-18.26
-21.79
-23.31
-22.41
-19.81
-16.91
-14.88
-14.14
-14.43
-15.29
-16.33
-17.20
-17.26
-15.45
-10.74
-2.94
6.74
15.99
22.51
25.15
24.46
22.23
20.24
19.15
18.26
16.28
12.58
7.94
4.31
3.59
6.37
11.49
16.55
19.25
18.51
14.97
10.40
6.75
5.16
5.51
6.73
7.45
6.80
4.78
2.01
-0.69
-2.71
-3.86
-4.37
-4.60
-4.96
-5.74
-7.05
-8.90
-11.12
-13.48
-15.71
-17.59
-18.86
-19.29
-18.76
-17.30
-15.26
-13.30
-12.32
-12.99
-15.24
-17.94
-19.13
-16.86
-10.32
-0.54
9.92
18.18
22.49
23.02
21.51
20.04
19.69
20.04
19.73
17.68
14.12
10.54
8.82
9.84
12.84
15.82
16.74
14.76
10.68
6.44
3.87
3.70
5.20
6.77
6.94
5.20
2.16
-0.87
-2.74
-3.05
-2.23
-1.22
-0.95
-1.90
-3.94
-6.43
-8.51
-9.48
-9.09
-7.62
-5.76
-4.36
-4.03
-5.01
-7.12
-9.92
-12.95
-15.86
-18.34
-20.12
-20.98
-20.83
-19.85
-18.59
-17.96
-18.79
-21.27
-24.49
-26.57
-25.36
-19.59
-9.82
1.60
11.54
17.66
19.51
18.55
16.99
16.34
16.58
16.47
14.71
11.19
7.32
5.16
6.02
9.53
13.77
16.41
16.12
13.28
9.63
7.07
6.57
7.63
8.81
8.73
6.95
4.18
1.79
0.95
1.87
3.76
5.34
5.55
4.08
1.47
-1.25
-3.12
-3.69
-3.23
-2.56
-2.64
-4.07
-6.78
-10.02
-12.83
-14.49
-14.80
-14.11
-12.99
-11.93
-11.15
-10.76
-11.00
-12.15
-14.28
-16.78
-18.25
-17.04
-12.21
-4.34
4.53
11.86
15.96
16.73
15.48
13.85
12.77
11.99
10.51
7.59
3.60
-0.10
-1.88
-1.00
1.93
5.33
7.50
7.62
6.07
4.04
2.72
2.59
3.26
3.82
3.49
2.16
0.45
-0.73
-0.86
-0.10
0.80
1.06
0.33
-1.13
-2.69
-3.80
-4.25
-4.29
-4.37
-4.88
-5.98
-7.56
-9.33
-11.00
-12.37
-13.35
-13.94
-14.11
-13.86
-13.29
-12.67
-12.48
-13.15
-14.78
-16.78
-17.93
-16.71
-12.09
-4.23
5.36
14.38
20.82
23.81
23.88
22.42
20.76
19.39
17.87
15.41
11.69
7.36
3.79
2.36
3.50
6.42
9.47
11.05
10.43
8.05
5.12
2.78
1.48
0.82
-0.00
-1.56
-3.72
-5.66
-6.51
-5.95
-4.39
-2.77
-1.96
-2.27
-3.35
-4.45
-4.90
-4.57
-3.83
-3.44
-4.02
-5.77
-8.32
-11.00
-13.13
-14.25
-14.26
-13.34
-11.84
-10.20
-8.99
-8.87
-10.33
-13.34
-16.91
-19.27
-18.53
-13.68
-5.38
4.12
12.05
16.48
17.24
15.70
13.75
12.50
11.78
10.63
8.30
5.16
2.63
2.30
4.71
8.92
12.95
15.04
14.59
12.46
10.25
9.29
9.85
11.09
11.75
11.03
8.97
6.44
4.53
3.93
4.58
5.83
6.80
6.83
5.69
3.51
0.67
-2.34
-5.12
-7.37
-9.01
-10.23
-11.35
-12.72
-14.55
-16.80
-19.15
-21.15
-22.33
-22.38
-21.29
-19.38
-17.25
-15.63
-15.14
-15.99
-17.80
-19.48
-19.56
-16.81
-10.80
-2.32
6.86
14.82
20.31
23.23
24.41
24.78
24.73
23.96
21.88
18.37
14.19
10.72
9.17
9.83
11.82
13.71
14.28
13.21
11.09
8.80
6.94
5.46
3.87
1.76
-0.88
-3.59
-5.79
-7.12
-7.60
-7.59
-7.48
-7.52
-7.73
-8.05
-8.36
-8.60
-8.69
-8.50
-8.00
-7.36
-6.91
-7.08
-8.01
-9.41
-10.67
-11.23
-10.89
-9.98
-9.08
-8.64
-8.71
-9.09
-9.60
-10.33
-11.50
-13.05
-14.26
-13.84
-10.55
-4.10
4.39
12.79
18.92
21.63
21.18
18.93
16.38
14.32
12.60
10.58
7.91
4.99
2.85
2.48
4.13
7.04
9.84
11.27
10.84
8.99
6.76
5.17
4.63
4.86
5.13
4.79
3.67
2.09
0.55
-0.65
-1.50
-2.21
-3.01
-3.92
-4.80
-5.47
-5.89
-6.20
-6.70
-7.60
-8.93
-10.53
-12.14
-13.48
-14.35
-14.66
-14.43
-13.86
-13.25
-13.09
-13.87
-15.81
-18.54
-20.97
-21.59
-19.13
-13.30
-5.14
3.28
9.86
13.42
14.11
13.08
11.55
10.10
8.47
6.12
3.00
-0.04
-1.58
-0.59
2.77
7.10
10.45
11.38
9.74
6.58
3.47
1.62
1.30
1.94
2.67
2.89
2.54
2.02
1.82
2.15
2.85
3.52
3.80
3.51
2.65
1.38
-0.14
-1.77
-3.34
-4.66
-5.59
-6.09
-6.39
-6.86
-7.90
-9.65
-11.87
-14.06
-15.63
-16.27
-16.00
-15.15
-14.14
-13.30
-12.86
-13.01
-13.92
-15.50
-17.19
-17.83
-16.12
-11.32
-3.84
4.66
12.03
16.63
18.15
17.47
16.00
14.68
13.57
12.08
9.75
6.86
4.48
3.75
5.08
7.80
10.48
11.74
11.05
8.84
6.17
4.02
2.76
2.10
1.53
0.73
-0.19
-0.81
-0.75
0.07
1.31
2.47
3.18
3.24
2.69
1.74
0.60
-0.49
-1.31
-1.75
-1.93
-2.13
-2.72
-3.90
-5.54
-7.15
-8.10
-8.03
-7.10
-6.00
-5.69
-6.94
-9.85
-13.65
-16.86
-17.87
-15.60
-10.12
-2.71
4.69
10.34
13.37
14.09
13.53
12.77
12.23
11.54
9.95
7.04
3.25
-0.15
-1.75
-0.81
2.24
5.97
8.74
9.52
8.39
6.39
4.76
4.26
4.75
5.41
5.32
4.07
1.94
-0.30
-1.88
-2.41
-2.04
-1.32
-0.89
-1.18
-2.14
-3.41
-4.48
-5.05
-5.20
-5.28
-5.70
-6.67
-7.98
-9.19
-9.89
-9.96
-9.61
-9.31
-9.54
-10.62
-12.54
-14.74
-16.21
-15.76
-12.54
-6.54
1.06
8.41
13.72
16.15
16.07
14.68
13.15
11.94
10.72
8.88
6.26
3.45
1.55
1.39
2.96
5.42
7.55
8.48
8.06
6.79
5.40
4.39
3.86
3.65
3.55
3.48
3.49
3.62
3.88
4.15
4.29
4.20
3.90
3.46
2.97
2.49
2.01
1.47
0.79
-0.17
-1.46
-3.08
-4.85
-6.46
-7.55
-7.87
-7.37
-6.30
-5.18
-4.64
-5.22
-7.02
-9.49
-11.47
-11.59
-8.96
-3.73
2.80
8.69
12.31
13.11
11.86
10.02
8.83
8.62
8.68
7.92
5.75
2.57
-0.38
-1.81
-1.16
0.98
3.28
4.41
3.84
2.09
0.29
-0.54
-0.09
1.12
2.15
2.30
1.48
0.25
-0.63
-0.77
-0.29
0.28
0.42
0.00
-0.74
-1.47
-2.02
-2.52
-3.25
-4.33
-5.64
-6.83
-7.65
-8.00
-8.05
-7.99
-7.91
-7.81
-7.71
-7.80
-8.32
-9.25
-10.11
-10.00
-8.02
-3.93
1.59
7.14
11.25
13.01
12.46
10.42
7.96
5.82
4.16
2.77
1.45
0.25
-0.47
-0.28
0.95
2.90
4.90
6.18
6.31
5.28
3.57
1.81
0.46
-0.36
-0.85
-1.23
-1.53
-1.49
-0.77
0.78
2.97
5.22
6.83
7.30
6.57
4.91
2.83
0.72
-1.17
-2.81
-4.24
-5.48
-6.47
-7.25
-8.02
-9.05
-10.46
-12.01
-12.97
-12.38
-9.64
-4.91
0.72
5.76
8.99
10.03
9.46
8.28
7.23
6.38
5.29
3.58
1.49
-0.10
-0.23
1.34
3.86
5.93
6.32
4.73
1.99
-0.52
-1.69
-1.31
-0.04
1.12
1.49
1.04
0.34
-0.00
0.25
0.88
1.35
1.25
0.45
-0.85
-2.25
-3.36
-3.99
-4.18
-4.14
-4.11
-4.25
-4.57
-4.95
-5.26
-5.50
-5.76
-6.17
-6.61
-6.68
-5.79
-3.55
-0.02
4.10
7.85
10.42
11.54
11.55
11.01
10.36
9.60
8.42
6.61
4.38
2.37
1.29
1.48
2.59
3.81
4.33
3.82
2.57
1.24
0.43
0.27
0.45
0.48
0.04
-0.75
-1.48
-1.69
-1.22
-0.26
0.73
1.30
1.24
0.60
-0.34
-1.30
-2.03
-2.47
-2.66
-2.74
-2.86
-3.10
-3.47
-3.94
-4.56
-5.39
-6.49
-7.67
-8.46
-8.22
-6.46
-3.19
1.02
5.15
8.29
9.95
10.20
9.51
8.35
6.96
5.36
3.61
1.98
0.97
0.97
2.05
3.75
5.37
6.32
6.34
5.62
4.57
3.55
2.69
2.01
1.49
1.18
1.16
1.38
1.62
1.51
0.85
-0.33
-1.71
-2.90
-3.65
-4.03
-4.24
-4.46
-4.68
-4.71
-4.41
-3.90
-3.55
-3.84
-4.96
-6.59
-7.93
-8.06
-6.42
-3.18
0.86
4.63
7.35
8.81
9.32
9.37
9.22
8.74
7.59
5.60
3.10
0.83
-0.41
-0.19
1.28
3.29
5.02
5.93
5.95
5.31
4.35
3.26
2.11
0.98
-0.01
-0.70
-1.00
-1.00
-0.98
-1.23
-1.86
-2.82
-3.86
-4.81
-5.57
-6.13
-6.48
-6.56
-6.34
-5.92
-5.59
-5.70
-6.47
-7.75
-8.98
-9.39
-8.34
-5.71
-2.00
1.92
5.15
7.21
8.07
8.08
7.67
7.08
6.31
5.32
4.14
3.04
2.39
2.43
3.09
3.98
4.62
4.69
4.19
3.38
2.63
2.18
2.04
2.03
1.95
1.65
1.16
0.62
0.13
-0.23
-0.51
-0.78
-1.15
-1.69
-2.43
-3.34
-4.32
-5.22
-5.85
-6.12
-6.05
-5.80
-5.61
-5.77
-6.39
-7.33
-8.18
-8.32
-7.21
-4.71
-1.22
2.47
5.47
7.29
7.96
7.90
7.58
7.21
6.62
5.55
3.97
2.22
0.97
0.72
1.52
2.88
4.05
4.46
4.01
3.04
2.08
1.49
1.27
1.13
0.79
0.12
-0.71
-1.39
-1.69
-1.60
-1.30
-1.07
-1.08
-1.39
-1.90
-2.49
-3.06
-3.55
-3.92
-4.16
-4.26
-4.28
-4.36
-4.66
-5.26
-6.12
-6.94
-7.27
-6.66
-4.88
-2.07
1.26
4.43
6.84
8.13
8.30
7.58
6.32
4.77
3.14
1.59
0.34
-0.38
-0.41
0.19
1.14
2.03
2.53
2.53
2.13
1.51
0.84
0.17
-0.45
-0.91
-1.05
-0.74
-0.06
0.66
0.96
0.53
-0.59
-2.03
-3.29
-4.03
-4.23
-4.10
-3.94
-3.85
-3.77
-3.55
-3.19
-2.91
-2.98
-3.56
-4.44
-5.09
-4.87
-3.39
-0.80
2.24
4.87
6.48
6.94
6.62
6.03
5.51
5.03
4.32
3.16
1.68
0.32
-0.41
-0.27
0.56
1.57
2.26
2.39
2.11
1.71
1.39
1.12
0.69
-0.07
-1.14
-2.22
-2.94
-3.10
-2.79
-2.32
-2.00
-2.04
-2.39
-2.90
-3.41
-3.85
-4.16
-4.32
-4.23
-3.86
-3.29
-2.72
-2.48
-2.82
-3.79
-5.09
-6.19
-6.44
-5.39
-3.02
0.15
3.33
5.70
6.85
6.88
6.23
5.42
4.73
4.14
3.46
2.62
1.79
1.34
1.50
2.24
3.19
3.88
4.04
3.70
3.18
2.83
2.83
3.08
3.35
3.43
3.25
2.88
2.43
1.98
1.46
0.80
0.03
-0.75
-1.37
-1.78
-2.10
-2.54
-3.25
-4.20
-5.14
-5.79
-5.95
-5.67
-5.21
-4.84
-4.78
-5.09
-5.72
-6.56
-7.41
-7.90
-7.63
-6.22
-3.63
-0.23
3.28
6.20
8.10
8.95
9.03
8.66
7.97
6.97
5.66
4.22
3.07
2.61
2.95
3.84
4.75
5.21
5.07
4.54
3.97
3.59
3.36
2.99
2.19
0.93
-0.53
-1.77
-2.44
-2.46
-2.08
-1.65
-1.50
-1.71
-2.17
-2.66
-2.99
-3.14
-3.13
-3.06
-2.98
-2.92
-2.87
-2.90
-3.13
-3.70
-4.64
-5.78
-6.77
-7.11
-6.38
-4.41
-1.45
1.95
5.10
7.40
8.56
8.66
8.02
6.94
5.65
4.21
2.67
1.20
0.15
-0.17
0.37
1.55
2.82
3.63
3.66
3.01
2.09
1.33
0.91
0.72
0.49
0.00
-0.74
-1.50
-2.04
-2.24
-2.17
-2.02
-1.96
-2.07
-2.38
-2.83
-3.35
-3.92
-4.47
-4.92
-5.21
-5.30
-5.25
-5.17
-5.17
-5.37
-5.77
-6.28
-6.63
-6.44
-5.38
-3.29
-0.41
2.70
5.34
6.99
7.52
7.23
6.52
5.74
4.93
3.92
2.62
1.18
0.01
-0.43
-0.00
1.03
2.15
2.81
2.80
2.26
1.54
0.93
0.50
0.18
-0.18
-0.59
-0.94
-1.10
-1.03
-0.86
-0.80
-1.02
-1.51
-2.11
-2.65
-3.03
-3.28
-3.49
-3.76
-4.07
-4.33
-4.41
-4.25
-3.85
-3.33
-2.88
-2.69
-2.93
-3.60
-4.50
-5.21
-5.24
-4.20
-2.11
0.63
3.35
5.42
6.53
6.75
6.37
5.68
4.80
3.62
2.10
0.42
-0.96
-1.56
-1.17
-0.01
1.35
2.30
2.52
2.10
1.41
0.81
0.46
0.21
-0.15
-0.71
-1.39
-1.97
-2.24
-2.16
-1.87
-1.59
-1.48
-1.61
-2.00
-2.61
-3.38
-4.15
-4.73
-4.96
-4.79
-4.39
-4.02
-4.00
-4.45
-5.27
-6.19
-6.82
-6.80
-5.90
-4.09
-1.55
1.34
4.10
6.28
7.56
7.90
7.43
6.40
5.02
3.45
1.86
0.53
-0.21
-0.07
1.00
2.70
4.45
5.62
5.85
5.15
3.85
2.42
1.17
0.19
-0.64
-1.48
-2.38
-3.24
-3.90
-4.25
-4.37
-4.42
-4.65
-5.19
-6.00
-6.91
-7.64
-7.98
-7.85
-7.30
-6.50
-5.63
-4.90
-4.47
-4.46
-4.80
-5.23
-5.28
-4.48
-2.53
0.43
3.83
6.90
9.02
9.96
9.90
9.25
8.33
7.24
5.90
4.26
2.54
1.16
0.54
0.81
1.71
2.72
3.40
3.57
3.37
3.05
2.73
2.33
1.64
0.54
-0.80
-2.02
-2.77
-2.90
-2.59
-2.21
-2.02
-2.12
-2.29
-2.31
-2.03
-1.55
-1.06
-0.75
-0.69
-0.82
-1.10
-1.58
-2.39
-3.55
-4.82
-5.64
-5.42
-3.87
-1.26
1.63
3.94
5.13
5.26
4.83
4.38
4.08
3.68
2.83
1.40
-0.19
-1.21
-1.08
0.27
2.26
4.02
4.89
4.66
3.66
2.39
1.25
0.35
-0.41
-1.14
-1.77
-2.09
-1.93
-1.34
-0.67
-0.33
-0.58
-1.30
-1.99
-2.13
-1.48
-0.25
0.96
1.50
1.05
-0.26
-1.98
-3.56
-4.66
-5.14
-4.98
-4.17
-2.71
-0.69
1.66
3.94
5.72
6.70
6.82
6.20
5.08
3.68
2.23
0.96
0.14
-0.00
0.55
1.58
2.68
3.39
3.44
2.79
1.66
0.39
-0.69
-1.36
-1.54
-1.37
-1.11
-1.08
-1.51
-2.38
-3.40
-4.16
-4.32
-3.84
-2.97
-2.11
-1.51
-1.24
-1.23
-1.40
-1.80
-2.49
-3.36
-4.02
-3.90
-2.54
-0.00
3.14
5.96
7.65
7.89
6.94
5.35
3.65
2.04
0.48
-1.08
-2.53
-3.53
-3.70
-2.96
-1.64
-0.31
0.42
0.28
-0.55
-1.62
-2.48
-2.88
-2.89
-2.72
-2.58
-2.58
-2.71
-2.92
-3.17
-3.40
-3.54
-3.54
-3.35
-2.99
-2.55
-2.18
-2.10
-2.43
-3.17
-4.06
-4.64
-4.41
-3.10
-0.83
1.83
4.16
5.57
5.94
5.55
4.89
4.27
3.66
2.75
1.36
-0.35
-1.83
-2.48
-1.98
-0.56
1.11
2.31
2.59
2.01
0.98
-0.02
-0.69
-1.04
-1.20
-1.34
-1.51
-1.66
-1.77
-1.88
-2.14
-2.62
-3.33
-4.08
-4.67
-4.89
-4.72
-4.24
-3.66
-3.23
-3.13
-3.41
-3.92
-4.29
-4.06
-2.88
-0.73
1.98
4.58
6.42
7.19
7.03
6.37
5.65
5.00
4.29
3.28
1.93
0.52
-0.47
-0.65
0.00
1.14
2.24
2.86
2.83
2.27
1.47
0.62
-0.14
-0.79
-1.30
-1.60
-1.57
-1.15
-0.47
0.19
0.51
0.27
-0.53
-1.66
-2.80
-3.68
-4.17
-4.34
-4.31
-4.20
-4.08
-4.03
-4.15
-4.52
-5.09
-5.57
-5.49
-4.40
-2.16
0.86
3.95
6.35
7.60
7.71
7.07
6.15
5.25
4.37
3.39
2.31
1.29
0.67
0.65
1.24
2.20
3.18
3.89
4.22
4.15
3.72
2.95
1.91
0.72
-0.40
-1.19
-1.47
-1.23
-0.69
-0.18
0.02
-0.24
-0.88
-1.72
-2.55
-3.22
-3.66
-3.86
-3.81
-3.50
-3.05
-2.65
-2.56
-2.94
-3.64
-4.22
-4.02
-2.54
0.21
3.68
6.90
9.01
9.58
8.79
7.23
5.54
4.02
2.66
1.29
-0.08
-1.18
-1.60
-1.10
0.16
1.65
2.73
3.02
2.54
1.63
0.67
-0.15
-0.89
-1.70
-2.62
-3.49
-4.03
-4.02
-3.47
-2.53
-1.47
-0.55
0.07
0.28
0.04
-0.58
-1.45
-2.31
-2.93
-3.21
-3.20
-3.09
-3.15
-3.56
-4.29
-5.13
-5.65
-5.37
-3.99
-1.52
1.60
4.67
6.99
8.18
8.27
7.63
6.67
5.65
4.61
3.48
2.32
1.39
1.01
1.35
2.30
3.44
4.29
4.54
4.16
3.42
2.64
2.03
1.57
1.12
0.53
-0.22
-1.01
-1.62
-1.92
-1.90
-1.70
-1.47
-1.37
-1.41
-1.55
-1.77
-2.06
-2.46
-3.05
-3.79
-4.55
-5.10
-5.23
-4.88
-4.20
-3.52
-3.19
-3.37
-3.87
-4.21
-3.84
-2.41
-0.00
2.90
5.64
7.69
8.84
9.15
8.80
7.91
6.50
4.61
2.47
0.57
-0.57
-0.63
0.28
1.66
2.88
3.47
3.36
2.76
1.99
1.23
0.49
-0.28
-1.03
-1.57
-1.70
-1.36
-0.75
-0.27
-0.27
-0.81
-1.69
-2.52
-3.02
-3.13
-3.02
-2.90
-2.91
-3.00
-3.05
-2.99
-2.91
-2.99
-3.44
-4.30
-5.37
-6.25
-6.45
-5.58
-3.54
-0.60
2.69
5.65
7.74
8.73
8.69
7.95
6.79
5.37
3.73
1.95
0.29
-0.86
-1.10
-0.33
1.17
2.78
3.81
3.86
2.99
1.63
0.28
-0.69
-1.27
-1.58
-1.85
-2.12
-2.30
-2.27
-1.97
-1.49
-0.99
-0.65
-0.58
-0.84
-1.43
-2.22
-3.07
-3.76
-4.15
-4.18
-3.98
-3.74
-3.66
-3.83
-4.18
-4.62
-4.99
-5.13
-4.85
-3.94
-2.25
0.16
2.97
5.63
7.62
8.63
8.68
8.04
7.05
5.92
4.74
3.54
2.45
1.66
1.34
1.53
2.01
2.49
2.69
2.55
2.12
1.58
1.01
0.42
-0.23
-0.95
-1.62
-2.08
-2.19
-1.92
-1.42
-0.92
-0.65
-0.71
-1.05
-1.54
-2.06
-2.58
-3.15
-3.80
-4.46
-4.94
-5.02
-4.60
-3.77
-2.81
-2.10
-1.94
-2.40
-3.33
-4.34
-4.95
-4.73
-3.44
-1.17
1.69
4.54
6.84
8.23
8.69
8.33
7.32
5.80
3.87
1.75
-0.15
-1.36
-1.53
-0.70
0.73
2.13
2.94
2.97
2.34
1.41
0.51
-0.19
-0.67
-0.99
-1.20
-1.27
-1.16
-0.89
-0.51
-0.13
0.17
0.36
0.49
0.55
0.48
0.17
-0.46
-1.38
-2.37
-3.16
-3.47
-3.24
-2.62
-1.96
-1.66
-1.99
-2.92
-4.16
-5.17
-5.41
-4.50
-2.47
0.34
3.30
5.77
7.35
7.94
7.69
6.90
5.79
4.49
3.10
1.73
0.63
0.07
0.19
0.92
1.90
2.68
2.90
2.51
1.72
0.89
0.29
-0.05
-0.25
-0.51
-0.94
-1.48
-1.99
-2.30
-2.35
-2.17
-1.86
-1.57
-1.44
-1.60
-2.07
-2.80
-3.64
-4.39
-4.89
-5.07
-4.97
-4.70
-4.38
-4.13
-4.06
-4.26
-4.75
-5.31
-5.53
-4.92
-3.13
-0.26
3.12
6.21
8.29
9.12
8.91
8.15
7.23
6.28
5.15
3.69
1.94
0.28
-0.83
-1.09
-0.60
0.23
0.89
1.03
0.63
-0.10
-0.89
-1.56
-2.09
-2.55
-2.99
-3.32
-3.45
-3.27
-2.77
-2.09
-1.41
-0.88
-0.53
-0.30
-0.09
0.13
0.26
0.17
-0.25
-1.01
-1.96
-2.87
-3.53
-3.86
-3.94
-3.94
-4.07
-4.42
-5.02
-5.79
-6.50
-6.86
-6.49
-5.12
-2.72
0.37
3.55
6.11
7.62
8.04
7.67
6.96
6.18
5.34
4.32
3.05
1.71
0.66
0.24
0.55
1.34
2.18
2.68
2.63
2.12
1.39
0.68
0.14
-0.20
-0.35
-0.37
-0.30
-0.19
-0.15
-0.26
-0.54
-0.93
-1.25
-1.34
-1.16
-0.82
-0.53
-0.51
-0.88
-1.57
-2.37
-3.03
-3.39
-3.39
-3.07
-2.58
-2.07
-1.78
-1.90
-2.57
-3.70
-4.97
-5.87
-5.85
-4.63
-2.27
0.74
3.71
6.02
7.35
7.71
7.33
6.48
5.33
3.92
2.35
0.84
-0.27
-0.59
0.04
1.45
3.09
4.31
4.68
4.14
3.04
1.88
1.07
0.67
0.46
0.15
-0.38
-1.00
-1.43
-1.45
-1.12
-0.69
-0.45
-0.57
-0.95
-1.40
-1.76
-2.06
-2.53
-3.33
-4.45
-5.61
-6.44
-6.64
-6.23
-5.50
-4.82
-4.49
-4.55
-4.89
-5.32
-5.61
-5.49
-4.70
-3.00
-0.38
2.84
6.03
8.46
9.70
9.73
8.93
7.79
6.67
5.58
4.40
3.09
1.81
0.97
0.85
1.50
2.55
3.46
3.79
3.38
2.46
1.47
0.78
0.57
0.76
1.08
1.30
1.26
0.98
0.59
0.20
-0.12
-0.40
-0.69
-1.03
-1.35
-1.60
-1.75
-1.87
-2.10
-2.58
-3.32
-4.19
-4.98
-5.45
-5.50
-5.14
-4.53
-3.83
-3.24
-2.90
-2.93
-3.38
-4.16
-5.03
-5.57
-5.25
-3.71
-0.91
2.75
6.50
9.50
11.15
11.26
10.09
8.18
6.05
4.02
2.24
0.76
-0.30
-0.74
-0.42
0.61
2.01
3.28
3.98
3.90
3.15
2.01
0.81
-0.23
-0.97
-1.38
-1.45
-1.27
-0.93
-0.60
-0.45
-0.51
-0.69
-0.78
-0.64
-0.24
0.25
0.59
0.57
0.14
-0.62
-1.49
-2.28
-2.87
-3.20
-3.31
-3.28
-3.20
-3.20
-3.37
-3.80
-4.46
-5.16
-5.52
-5.11
-3.59
-0.95
2.41
5.78
8.41
9.80
9.88
8.95
7.52
6.01
4.64
3.46
2.45
1.67
1.27
1.42
2.10
3.11
4.05
4.54
4.33
3.46
2.17
0.81
-0.30
-1.06
-1.48
-1.69
-1.86
-2.06
-2.31
-2.60
-2.95
-3.38
-3.97
-4.79
-5.90
-7.42
-9.45
-12.01
-15.01
-18.16
-21.01
-23.06
-23.88
-23.30
-21.38
-18.40
-14.77
-10.89
-7.08
-3.58
-0.50
2.21
4.75
7.36
10.25
13.34
16.28
18.57
19.78
19.77
18.74
17.08
15.19
13.31
11.48
9.69
8.03
6.73
6.01
5.92
6.28
6.71
6.84
6.49
5.73
4.80
3.93
3.24
2.69
2.20
1.67
1.08
0.46
-0.09
-0.52
-0.82
-1.00
-1.10
-1.15
-1.18
-1.23
-1.32
-1.52
-1.87
-2.35
-2.85
-3.19
-3.22
-2.90
-2.39
-1.96
-1.85
-2.13
-2.65
-3.15
-3.46
-3.65
-3.95
-4.58
-5.49
-6.20
-6.07
-4.55
-1.63
2.13
5.77
8.40
9.51
9.17
7.84
6.12
4.40
2.87
1.52
0.37
-0.48
-0.85
-0.65
0.01
0.82
1.38
1.43
0.94
0.14
-0.65
-1.22
-1.51
-1.65
-1.77
-1.93
-2.08
-2.13
-2.02
-1.86
-1.75
-1.80
-1.99
-2.23
-2.41
-2.51
-2.64
-2.90
-3.40
-4.09
-4.81
-5.34
-5.52
-5.30
-4.74
-3.97
-3.20
-2.61
-2.36
-2.55
-3.12
-3.87
-4.40
-4.26
-3.10
-0.86
2.14
5.26
7.73
9.04
9.06
8.03
6.44
4.69
2.96
1.28
-0.33
-1.68
-2.46
-2.37
-1.35
0.27
1.96
3.19
3.70
3.56
3.03
2.38
1.74
1.11
0.45
-0.18
-0.64
-0.77
-0.52
-0.01
0.51
0.84
0.93
0.84
0.71
0.61
0.47
0.13
-0.53
-1.57
-2.85
-4.11
-5.12
-5.79
-6.20
-6.61
-7.31
-8.51
-10.39
-12.95
-16.06
-19.37
-22.27
-24.03
-23.97
-21.73
-17.59
-12.31
-6.88
-2.09
1.73
4.73
7.24
9.43
11.22
12.36
12.69
12.41
12.00
11.92
12.41
13.25
13.94
13.97
13.16
11.71
10.02
8.47
7.19
6.13
5.17
4.25
3.40
2.74
2.31
2.01
1.71
1.28
0.77
0.32
0.07
0.04
0.04
-0.18
-0.77
-1.69
-2.67
-3.40
-3.66
-3.45
-2.92
-2.32
-1.84
-1.56
-1.52
-1.73
-2.18
-2.77
-3.26
-3.26
-2.36
-0.40
2.38
5.41
7.97
9.46
9.64
8.66
6.91
4.86
2.86
1.16
-0.12
-0.87
-1.05
-0.69
0.04
0.87
1.53
1.81
1.68
1.24
0.65
0.06
-0.41
-0.73
-0.90
-1.02
-1.16
-1.41
-1.75
-2.06
-2.17
-1.94
-1.37
-0.65
-0.10
0.00
-0.49
-1.45
-2.57
-3.48
-3.87
-3.66
-2.96
-2.02
-1.18
-0.77
-0.97
-1.83
-3.15
-4.53
-5.46
-5.47
-4.25
-1.91
1.07
3.96
6.10
7.11
7.01
6.19
5.08
3.98
2.97
1.97
0.94
-0.07
-0.93
-1.64
-2.36
-3.46
-5.25
-7.85
-11.05
-14.36
-17.29
-19.39
-20.41
-20.21
-18.80
-16.28
-12.84
-8.83
-4.70
-0.92
2.22
4.62
6.35
7.58
8.45
8.99
9.14
8.84
8.07
6.92
5.55
4.22
3.19
2.68
2.74
3.20
3.79
4.17
4.04
3.36
2.31
1.31
0.89
1.44
3.14
5.79
8.86
11.60
13.35
13.77
12.89
11.08
8.87
6.68
4.76
3.18
1.89
0.91
0.29
0.08
0.24
0.61
0.99
1.17
1.04
0.63
0.06
-0.51
-0.97
-1.23
-1.33
-1.31
-1.22
-1.04
-0.71
-0.21
0.42
1.06
1.57
1.82
1.79
1.55
1.23
0.91
0.56
0.10
-0.54
-1.37
-2.26
-3.03
-3.52
-3.68
-3.53
-3.21
-2.86
-2.66
-2.75
-3.20
-3.89
-4.53
-4.71
-4.01
-2.21
0.51
3.61
6.40
8.32
9.16
9.03
8.30
7.28
6.16
4.98
3.75
2.61
1.81
1.62
2.09
3.01
3.90
4.32
4.06
3.21
2.11
1.10
0.34
-0.22
-0.72
-1.28
-1.88
-2.41
-2.79
-3.05
-3.36
-3.88
-4.72
-5.87
-7.34
-9.18
-11.47
-14.26
-17.37
-20.45
-22.94
-24.35
-24.31
-22.79
-19.96
-16.22
-12.03
-7.85
-4.14
-1.22
0.85
2.30
3.59
5.24
7.58
10.49
13.51
15.95
17.29
17.38
16.46
14.96
13.28
11.60
9.91
8.20
6.59
5.30
4.59
4.49
4.80
5.15
5.20
4.85
4.23
3.58
3.08
2.75
2.48
2.11
1.65
1.18
0.85
0.73
0.74
0.70
0.43
-0.10
-0.76
-1.32
-1.64
-1.71
-1.63
-1.58
-1.67
-1.92
-2.30
-2.79
-3.37
-4.01
-4.63
-5.09
-5.24
-5.03
-4.55
-4.00
-3.60
-3.51
-3.73
-4.15
-4.51
-4.50
-3.78
-2.16
0.37
3.49
6.64
9.20
10.73
11.09
10.46
9.20
7.65
6.03
4.41
2.89
1.59
0.72
0.40
0.59
1.04
1.40
1.38
0.88
0.01
-0.95
-1.75
-2.25
-2.47
-2.55
-2.58
-2.59
-2.52
-2.28
-1.89
-1.43
-1.00
-0.69
-0.43
-0.17
0.15
0.46
0.60
0.42
-0.10
-0.88
-1.74
-2.52
-3.12
-3.47
-3.53
-3.25
-2.60
-1.72
-0.92
-0.58
-1.02
-2.27
-3.97
-5.46
-5.99
-5.05
-2.63
0.81
4.44
7.43
9.21
9.63
8.93
7.51
5.75
3.84
1.92
0.12
-1.26
-1.85
-1.37
0.06
1.94
3.50
4.04
3.26
1.40
-0.88
-2.82
-3.86
-3.94
-3.37
-2.70
-2.33
-2.46
-3.06
-3.95
-5.00
-6.14
-7.50
-9.16
-11.13
-13.25
-15.28
-17.01
-18.31
-19.14
-19.44
-19.05
-17.69
-15.15
-11.49
-7.11
-2.74
0.83
3.09
3.98
3.90
3.56
3.67
4.70
6.81
9.76
13.03
15.95
17.97
18.79
18.39
17.04
15.07
12.80
10.43
8.17
6.21
4.79
4.10
4.14
4.63
5.15
5.29
4.85
3.89
2.66
1.42
0.34
-0.56
-1.35
-2.04
-2.54
-2.68
-2.40
-1.76
-0.98
-0.34
-0.00
-0.00
-0.19
-0.37
-0.42
-0.37
-0.38
-0.61
-1.13
-1.91
-2.77
-3.51
-3.99
-4.19
-4.17
-4.04
-3.89
-3.75
-3.66
-3.67
-3.90
-4.42
-5.16
-5.80
-5.84
-4.81
-2.53
0.72
4.26
7.31
9.26
9.93
9.52
8.43
7.05
5.62
4.29
3.12
2.26
1.86
1.99
2.59
3.42
4.10
4.32
3.92
2.98
1.78
0.70
0.00
-0.25
-0.22
-0.15
-0.24
-0.49
-0.72
-0.75
-0.48
-0.03
0.39
0.56
0.42
0.05
-0.31
-0.50
-0.47
-0.29
-0.16
-0.27
-0.71
-1.43
-2.26
-2.97
-3.42
-3.54
-3.39
-3.05
-2.66
-2.30
-2.13
-2.28
-2.82
-3.63
-4.37
-4.49
-3.53
-1.31
1.85
5.22
7.92
9.23
8.86
6.96
3.99
0.36
-3.66
-7.90
-12.19
-16.18
-19.34
-21.15
-21.30
-19.86
-17.23
-13.95
-10.48
-7.09
-3.91
-1.00
1.56
3.66
5.29
6.52
7.49
8.30
8.92
9.27
9.30
9.06
8.67
8.26
7.83
7.21
6.23
4.78
3.04
1.33
0.01
-0.75
-0.99
-0.94
-0.83
-0.82
-0.93
-1.11
-1.38
-1.82
-2.52
-3.41
-4.21
-4.38
-3.43
-1.15
2.17
5.80
8.81
10.55
10.86
10.03
8.65
7.17
5.78
4.42
3.01
1.62
0.49
-0.08
0.00
0.58
1.30
1.80
1.91
1.64
1.12
0.45
-0.37
-1.38
-2.56
-3.74
-4.62
-4.91
-4.48
-3.49
-2.29
-1.25
-0.59
-0.28
-0.13
0.08
0.50
1.02
1.45
1.55
1.19
0.35
-0.84
-2.22
-3.60
-4.83
-5.77
-6.33
-6.47
-6.18
-5.58
-4.83
-4.16
-3.84
-4.03
-4.70
-5.51
-5.87
-5.16
-2.97
0.53
4.63
8.36
10.86
11.78
11.32
10.05
8.47
6.84
5.19
3.47
1.88
0.79
0.52
1.12
2.18
3.09
3.31
2.67
1.45
0.19
-0.67
-1.00
-0.97
-0.96
-1.22
-1.79
-2.45
-2.88
-2.84
-2.29
-1.40
-0.47
0.20
0.48
0.36
-0.03
-0.54
-1.01
-1.40
-1.74
-2.06
-2.46
-2.95
-3.50
-4.00
-4.36
-4.54
-4.58
-4.54
-4.48
-4.38
-4.18
-3.88
-3.63
-3.66
-4.09
-4.79
-5.23
-4.73
-2.81
0.43
4.28
7.72
9.92
10.57
9.97
8.65
7.10
5.46
3.67
1.67
-0.32
-1.85
-2.42
-1.86
-0.47
1.16
2.37
2.80
2.47
1.71
0.89
0.24
-0.18
-0.42
-0.51
-0.45
-0.21
0.23
0.76
1.24
1.50
1.47
1.18
0.74
0.28
-0.14
-0.51
-0.87
-1.37
-2.17
-3.42
-5.14
-7.26
-9.51
-11.70
-13.68
-15.47
-17.13
-18.70
-20.12
-21.21
-21.77
-21.56
-20.39
-18.06
-14.42
-9.40
-3.19
3.68
10.37
15.96
19.81
21.71
21.91
20.91
19.18
17.05
14.67
12.20
9.87
8.02
6.96
6.75
7.19
7.80
8.16
8.02
7.36
6.34
5.19
4.04
2.96
2.01
1.24
0.72
0.53
0.69
1.12
1.71
2.32
2.85
3.21
3.38
3.30
3.00
2.54
2.01
1.52
1.12
0.75
0.29
-0.40
-1.35
-2.48
-3.57
-4.45
-4.98
-5.18
-5.18
-5.14
-5.23
-5.57
-6.17
-6.93
-7.60
-7.80
-7.10
-5.14
-1.88
2.35
6.78
10.53
12.84
13.35
12.20
9.95
7.25
4.70
2.62
1.12
0.18
-0.24
-0.19
0.25
0.88
1.42
1.53
1.03
-0.09
-1.58
-3.11
-4.31
-4.91
-4.85
-4.26
-3.42
-2.63
-2.09
-1.88
-1.91
-2.03
-2.11
-2.12
-2.13
-2.19
-2.33
-2.44
-2.37
-2.05
-1.53
-1.06
-0.91
-1.26
-2.03
-2.96
-3.69
-3.92
-3.55
-2.67
-1.58
-0.65
-0.23
-0.58
-1.75
-3.53
-5.44
-6.86
-7.17
-6.05
-3.60
-0.29
3.18
6.18
8.33
9.49
9.68
9.01
7.63
5.78
3.78
2.03
0.92
0.68
1.28
2.45
3.73
4.69
5.00
4.58
3.52
2.04
0.36
-1.35
-2.97
-4.39
-5.52
-6.25
-6.47
-6.19
-5.51
-4.62
-3.72
-2.96
-2.35
-1.89
-1.49
-1.09
-0.67
-0.31
-0.10
-0.17
-0.56
-1.18
-1.88
-2.47
-2.84
-2.98
-3.00
-3.07
-3.38
-4.14
-5.53
-7.71
-10.68
-14.09
-17.30
-19.49
-20.01
-18.64
-15.77
-12.10
-8.38
-5.01
-2.02
0.77
3.47
5.94
7.89
9.09
9.61
9.75
9.89
10.28
10.84
11.33
11.48
11.18
10.50
9.59
8.62
7.65
6.70
5.76
4.93
4.33
4.06
4.13
4.42
4.71
4.79
4.56
4.06
3.43
2.79
2.18
1.54
0.79
-0.08
-0.95
-1.69
-2.21
-2.55
-2.90
-3.41
-4.17
-5.06
-5.88
-6.41
-6.52
-6.26
-5.78
-5.29
-4.97
-4.88
-4.95
-4.97
-4.60
-3.48
-1.36
1.72
5.38
8.95
11.75
13.29
13.47
12.48
10.68
8.37
5.77
3.07
0.52
-1.53
-2.74
-2.94
-2.32
-1.30
-0.36
0.16
0.19
-0.10
-0.47
-0.78
-1.01
-1.24
-1.48
-1.65
-1.62
-1.28
-0.66
0.12
0.85
1.38
1.65
1.66
1.48
1.17
0.78
0.36
-0.06
-0.46
-0.93
-1.60
-2.58
-3.84
-5.16
-6.19
-6.68
-6.50
-5.77
-4.79
-3.99
-3.75
-4.31
-5.69
-7.63
-9.69
-11.37
-12.19
-11.94
-10.71
-8.81
-6.70
-4.76
-3.18
-2.01
-1.15
-0.42
0.38
1.41
2.78
4.48
6.43
8.48
10.42
12.03
13.09
13.36
12.76
11.34
9.34
7.13
5.07
3.49
2.54
2.23
2.41
2.94
3.62
4.25
4.68
4.84
4.73
4.48
4.22
4.08
4.07
4.13
4.12
3.86
3.19
2.01
0.34
-1.63
-3.59
-5.15
-6.06
-6.24
-5.85
-5.20
-4.65
-4.46
-4.73
-5.37
-6.06
-6.35
-5.80
-4.09
-1.23
2.37
6.03
9.06
10.99
11.73
11.44
10.43
8.90
7.00
4.84
2.69
0.95
0.03
0.13
1.08
2.36
3.30
3.42
2.58
1.04
-0.75
-2.34
-3.44
-4.00
-4.12
-3.94
-3.54
-2.96
-2.21
-1.34
-0.45
0.32
0.84
1.01
0.81
0.33
-0.27
-0.82
-1.22
-1.47
-1.72
-2.15
-2.86
-3.79
-4.72
-5.40
-5.68
-5.59
-5.24
-4.78
-4.30
-3.86
-3.52
-3.39
-3.60
-4.13
-4.76
-5.02
-4.36
-2.49
0.51
4.07
7.38
9.70
10.66
10.31
9.02
7.26
5.37
3.53
1.84
0.39
-0.66
-1.16
-1.07
-0.56
0.08
0.50
0.48
-0.02
-0.86
-1.84
-2.83
-3.79
-4.80
-5.95
-7.37
-9.14
-11.20
-13.42
-15.55
-17.33
-18.52
-18.95
-18.50
-17.15
-14.91
-11.87
-8.29
-4.53
-1.00
1.94
4.10
5.52
6.34
6.77
6.93
6.86
6.65
6.40
6.18
5.97
5.62
4.91
3.72
2.28
1.05
0.69
1.64
3.91
7.01
10.15
12.55
13.80
13.87
13.03
11.61
9.84
7.77
5.47
3.14
1.16
-0.03
-0.20
0.52
1.67
2.60
2.83
2.23
1.08
-0.19
-1.16
-1.69
-1.88
-1.93
-2.01
-2.11
-2.13
-1.93
-1.50
-0.93
-0.39
-0.02
0.12
0.07
-0.10
-0.32
-0.57
-0.86
-1.20
-1.57
-1.97
-2.37
-2.80
-3.31
-3.90
-4.52
-5.05
-5.32
-5.21
-4.70
-3.95
-3.21
-2.80
-2.92
-3.58
-4.50
-5.15
-4.92
-3.38
-0.48
3.33
7.26
10.50
12.52
13.30
13.14
12.42
11.40
10.07
8.39
6.42
4.44
2.82
1.83
1.42
1.31
1.16
0.75
0.04
-0.88
-1.98
-3.35
-5.14
-7.47
-10.27
-13.29
-16.14
-18.42
-19.83
-20.18
-19.41
-17.58
-14.83
-11.48
-7.87
-4.37
-1.21
1.56
3.96
6.04
7.75
8.95
9.46
9.24
8.36
7.09
5.74
4.58
3.76
3.33
3.22
3.25
3.17
2.71
1.80
0.65
-0.25
-0.34
0.78
3.08
6.07
9.00
11.20
12.31
12.35
11.56
10.28
8.73
7.09
5.46
4.08
3.22
3.14
3.85
5.11
6.41
7.21
7.17
6.31
4.88
3.29
1.78
0.42
-0.86
-2.12
-3.29
-4.17
-4.59
-4.49
-4.06
-3.58
-3.26
-3.15
-3.19
-3.22
-3.19
-3.16
-3.24
-3.55
-4.08
-4.69
-5.21
-5.46
-5.34
-4.89
-4.19
-3.39
-2.61
-1.94
-1.45
-1.22
-1.31
-1.73
-2.32
-2.72
-2.44
-1.08
1.40
4.57
7.65
9.82
10.60
10.00
8.48
6.62
4.83
3.22
1.69
0.18
-1.19
-2.11
-2.28
-1.63
-0.46
0.72
1.43
1.42
0.82
-0.03
-0.77
-1.22
-1.41
-1.46
-1.47
-1.45
-1.32
-1.00
-0.52
-0.00
0.38
0.50
0.33
-0.03
-0.43
-0.75
-0.92
-0.96
-0.98
-1.15
-1.66
-2.62
-3.99
-5.53
-6.91
-7.85
-8.17
-7.91
-7.32
-6.74
-6.49
-6.81
-7.81
-9.52
-11.81
-14.32
-16.51
-17.72
-17.43
-15.53
-12.32
-8.50
-4.73
-1.47
1.21
3.45
5.40
7.09
8.39
9.20
9.56
9.67
9.78
9.97
10.06
9.81
9.08
7.94
6.65
5.55
4.79
4.30
3.82
3.12
2.17
1.20
0.57
0.56
1.26
2.45
3.73
4.68
5.05
4.79
4.09
3.19
2.36
1.73
1.26
0.86
0.36
-0.35
-1.25
-2.27
-3.29
-4.22
-4.97
-5.52
-5.86
-6.00
-6.07
-6.20
-6.56
-7.16
-7.79
-8.02
-7.33
-5.39
-2.17
1.87
5.98
9.42
11.70
12.75
12.78
12.09
10.89
9.21
7.06
4.59
2.19
0.35
-0.52
-0.41
0.28
0.91
0.92
0.11
-1.30
-2.86
-4.15
-4.96
-5.33
-5.40
-5.26
-4.87
-4.16
-3.07
-1.74
-0.40
0.66
1.30
1.53
1.51
1.43
1.41
1.46
1.49
1.38
0.99
0.30
-0.64
-1.70
-2.76
-3.65
-4.35
-4.86
-5.25
-5.61
-5.97
-6.33
-6.65
-6.85
-6.72
-6.02
-4.52
-2.11
1.06
4.56
7.73
9.91
10.70
9.97
7.88
4.72
0.79
-3.56
-7.90
-11.74
-14.58
-16.07
-16.15
-15.04
-13.15
-10.84
-8.35
-5.77
-3.11
-0.38
2.32
4.83
6.94
8.51
9.48
9.88
9.85
9.60
9.35
9.20
9.11
8.94
8.54
7.84
6.94
5.99
5.19
4.66
4.33
4.02
3.51
2.66
1.49
0.15
-1.10
-2.06
-2.61
-2.80
-2.76
-2.64
-2.60
-2.74
-3.10
-3.58
-3.93
-3.76
-2.68
-0.45
2.82
6.62
10.16
12.73
13.94
13.83
12.76
11.15
9.28
7.28
5.15
2.99
1.05
-0.35
-0.97
-0.79
-0.07
0.81
1.46
1.66
1.34
0.62
-0.33
-1.33
-2.20
-2.76
-2.91
-2.59
-1.84
-0.84
0.18
0.90
1.13
0.84
0.18
-0.63
-1.33
-1.82
-2.15
-2.46
-2.95
-3.66
-4.52
-5.32
-5.82
-5.83
-5.34
-4.48
-3.55
-2.84
-2.59
-2.85
-3.49
-4.17
-4.50
-4.06
-2.63
-0.20
2.92
6.22
9.09
11.04
11.78
11.30
9.81
7.65
5.17
2.65
0.41
-1.33
-2.33
-2.50
-1.99
-1.15
-0.43
-0.20
-0.58
-1.36
-2.17
-2.65
-2.64
-2.26
-1.77
-1.43
-1.33
-1.37
-1.31
-0.99
-0.38
0.37
1.00
1.29
1.17
0.75
0.23
-0.20
-0.54
-0.94
-1.61
-2.66
-3.94
-5.15
-5.93
-6.10
-5.74
-5.19
-4.88
-5.13
-6.10
-7.73
-9.83
-12.08
-14.07
-15.35
-15.53
-14.51
-12.51
-10.00
-7.48
-5.26
-3.30
-1.40
0.63
2.76
4.79
6.45
7.65
8.51
9.23
9.91
10.42
10.45
9.81
8.55
7.02
5.66
4.73
4.21
3.82
3.30
2.56
1.83
1.41
1.54
2.16
3.01
3.68
3.93
3.73
3.22
2.62
2.08
1.63
1.25
0.90
0.59
0.30
-0.02
-0.48
-1.16
-2.12
-3.27
-4.38
-5.17
-5.45
-5.21
-4.66
-4.17
-4.06
-4.46
-5.15
-5.62
-5.29
-3.72
-0.95
2.56
6.04
8.75
10.23
10.41
9.48
7.81
5.71
3.43
1.24
-0.60
-1.78
-2.08
-1.51
-0.34
0.97
2.01
2.51
2.42
1.84
0.94
-0.13
-1.22
-2.16
-2.76
-2.94
-2.75
-2.40
-2.14
-2.14
-2.38
-2.63
-2.59
-2.10
-1.29
-0.46
-0.00
-0.13
-0.81
-1.76
-2.66
-3.27
-3.52
-3.50
-3.36
-3.16
-2.96
-2.80
-2.75
-2.95
-3.47
-4.18
-4.74
-4.67
-3.55
-1.27
1.84
5.09
7.75
9.28
9.56
8.87
7.67
6.34
5.07
3.82
2.55
1.28
0.18
-0.45
-0.47
0.03
0.77
1.33
1.37
0.75
-0.47
-2.16
-4.13
-6.29
-8.52
-10.64
-12.43
-13.67
-14.21
-14.10
-13.48
-12.49
-11.21
-9.59
-7.59
-5.22
-2.62
0.03
2.52
4.69
6.37
7.39
7.57
6.90
5.55
4.01
2.85
2.46
2.91
3.85
4.72
5.07
4.72
3.82
2.77
2.06
2.03
2.89
4.63
7.06
9.81
12.40
14.35
15.28
15.10
13.95
12.19
10.23
8.41
6.92
5.83
5.13
4.72
4.48
4.24
3.79
3.00
1.82
0.34
-1.24
-2.73
-4.00
-5.00
-5.74
-6.21
-6.39
-6.22
-5.68
-4.82
-3.79
-2.77
-1.88
-1.21
-0.70
-0.32
-0.03
0.15
0.14
-0.10
-0.57
-1.20
-1.90
-2.57
-3.17
-3.68
-4.10
-4.45
-4.72
-4.89
-4.98
-5.02
-5.05
-5.13
-5.30
-5.57
-5.86
-5.93
-5.44
-4.03
-1.50
1.98
5.84
9.30
11.62
12.42
11.72
9.89
7.40
4.68
2.02
-0.34
-2.13
-3.06
-2.97
-1.99
-0.52
0.84
1.60
1.59
0.98
0.15
-0.53
-0.90
-1.04
-1.12
-1.30
-1.62
-1.94
-2.12
-2.10
-1.91
-1.68
-1.49
-1.38
-1.32
-1.28
-1.29
-1.43
-1.74
-2.17
-2.58
-2.81
-2.78
-2.51
-2.14
-1.77
-1.46
-1.22
-1.07
-1.09
-1.44
-2.24
-3.37
-4.48
-4.99
-4.35
-2.32
0.86
4.50
7.69
9.75
10.41
9.88
8.64
7.14
5.61
4.07
2.49
0.97
-0.21
-0.70
-0.44
0.37
1.21
1.62
1.33
0.40
-0.92
-2.40
-3.96
-5.74
-7.89
-10.42
-13.12
-15.63
-17.54
-18.59
-18.72
-18.00
-16.59
-14.63
-12.25
-9.52
-6.56
-3.51
-0.57
2.06
4.18
5.68
6.52
6.79
6.64
6.30
5.95
5.69
5.45
5.13
4.68
4.07
3.38
2.66
1.90
1.05
0.12
-0.72
-1.06
-0.44
1.43
4.38
7.77
10.72
12.50
12.83
11.94
10.38
8.69
7.10
5.62
4.15
2.68
1.42
0.69
0.65
1.19
1.94
2.39
2.22
1.41
0.25
-0.88
-1.69
-2.16
-2.46
-2.75
-3.12
-3.45
-3.54
-3.25
-2.62
-1.85
-1.17
-0.74
-0.57
-0.59
-0.70
-0.88
-1.11
-1.38
-1.65
-1.83
-1.90
-1.86
-1.80
-1.84
-2.07
-2.52
-3.13
-3.71
-4.04
-3.97
-3.47
-2.74
-2.13
-1.97
-2.38
-3.09
-3.55
-3.06
-1.22
1.86
5.53
8.85
11.06
11.84
11.43
10.30
8.85
7.19
5.25
3.01
0.75
-0.96
-1.62
-1.06
0.30
1.69
2.40
2.16
1.28
0.41
0.09
0.39
0.92
1.12
0.66
-0.35
-1.39
-1.80
-1.21
0.31
2.28
4.11
5.37
5.99
6.19
6.36
6.83
7.76
9.12
10.73
12.28
13.45
13.99
13.86
13.30
12.73
12.65
13.44
15.24
17.96
21.27
24.58
27.13
28.14
27.21
24.70
21.96
20.90
23.22
29.50
38.74
48.83
57.56
63.67
67.44
70.29
73.88
79.20
86.08
93.57
100.47
105.99
109.87
112.26
113.40
113.54
113.12
112.65
112.39
111.74
108.80
100.34
82.68
53.17
11.72
-38.45
-91.65
-141.43
-182.86
-213.83
-235.23
-249.88
-261.33
-273.14
-288.38
-309.12
-335.34
-363.93
-388.76
-402.02
-397.01
-370.66
-324.78
-265.05
-198.65
-131.66
-67.94
-9.64
42.09
86.64
124.43
157.38
188.60
220.60
253.40
283.64
305.57
313.88
306.29
285.00
255.79
225.49
198.77
176.37
155.29
130.75
98.90
58.45
10.93
-40.50
-92.64
-143.03
-189.58
-229.69
-259.45
-274.08
-269.57
-244.60
-201.30
-144.77
-81.10
-15.82
46.83
103.61
151.62
188.09
210.86
219.39
215.14
201.16
181.05
158.04
134.61
112.27
91.62
72.18
52.33
29.74
2.31
-31.02
-69.92
-113.14
-158.95
-205.05
-247.88
-282.00
-300.71
-297.98
-271.04
-221.97
-157.19
-85.50
-15.39
46.12
93.55
122.58
130.58
118.12
90.21
56.01
26.02
8.24
5.18
13.57
26.89
38.90
46.30
49.07
49.06
47.92
46.04
42.80
37.57
30.64
23.37
17.71
15.09
15.72
18.44
21.31
22.46
21.01
17.38
13.03
9.70
8.49
9.40
11.39
13.00
13.14
11.58
9.00
6.52
5.11
5.08
6.08
7.27
7.82
7.22
5.50
3.17
0.88
-0.79
-1.67
-1.97
-2.20
-2.79
-3.92
-5.36
-6.61
-7.16
-6.77
-5.57
-4.06
-2.83
-2.28
-2.48
-3.10
-3.54
-3.14
-1.41
1.79
6.11
10.78
14.85
17.51
18.41
17.74
16.06
13.96
11.84
9.77
7.70
5.65
3.87
2.74
2.50
3.00
3.72
3.98
3.32
1.72
-0.41
-2.50
-4.14
-5.21
-5.86
-6.27
-6.47
-6.33
-5.62
-4.33
-2.67
-1.06
0.13
0.73
0.84
0.73
0.67
0.77
0.95
1.03
0.89
0.48
-0.13
-0.89
-1.75
-2.75
-3.92
-5.21
-6.46
-7.39
-7.77
-7.51
-6.75
-5.84
-5.18
-5.04
-5.44
-6.09
-6.49
-6.12
-4.55
-1.63
2.39
6.94
11.21
14.42
16.02
15.85
14.18
11.58
8.63
5.78
3.28
1.25
-0.24
-1.08
-1.20
-0.72
0.07
0.73
0.87
0.31
-0.89
-2.47
-4.10
-5.45
-6.30
-6.54
-6.22
-5.53
-4.75
-4.23
-4.16
-4.47
-4.86
-4.95
-4.50
-3.57
-2.44
-1.48
-0.96
-0.88
-1.08
-1.31
-1.41
-1.32
-1.07
-0.68
-0.19
0.35
0.78
0.86
0.34
-0.86
-2.51
-4.08
-4.86
-4.23
-1.93
1.69
5.81
9.41
11.68
12.30
11.49
9.76
7.58
5.19
2.63
-0.00
-2.41
-4.03
-4.33
-3.17
-1.01
1.25
2.68
2.78
1.69
0.10
-1.25
-1.91
-1.95
-1.74
-1.67
-1.82
-1.98
-1.84
-1.24
-0.34
0.47
0.80
0.51
-0.23
-1.03
-1.50
-1.46
-1.02
-0.55
-0.43
-0.92
-2.05
-3.58
-5.15
-6.38
-7.00
-6.95
-6.35
-5.45
-4.55
-3.91
-3.72
-4.02
-4.69
-5.34
-5.34
-4.05
-1.05
3.54
8.93
13.91
17.27
18.35
17.25
14.70
11.63
8.78
6.39
4.43
2.80
1.55
0.90
0.93
1.44
1.90
1.75
0.71
-1.02
-2.87
-4.21
-4.75
-4.64
-4.32
-4.24
-4.56
-5.07
-5.40
-5.25
-4.61
-3.72
-2.90
-2.34
-2.01
-1.73
-1.33
-0.80
-0.25
0.17
0.40
0.49
0.52
0.54
0.46
0.13
-0.54
-1.48
-2.50
-3.36
-3.88
-4.05
-4.00
-3.95
-4.13
-4.70
-5.70
-7.01
-8.29
-8.97
-8.41
-6.18
-2.32
2.49
7.21
10.75
12.48
12.40
11.05
9.16
7.29
5.64
4.16
2.79
1.68
1.15
1.45
2.56
4.03
5.23
5.57
4.80
3.10
0.95
-1.11
-2.70
-3.66
-4.04
-4.00
-3.74
-3.39
-3.07
-2.83
-2.65
-2.44
-2.12
-1.65
-1.05
-0.44
0.04
0.29
0.24
-0.14
-0.79
-1.57
-2.24
-2.51
-2.17
-1.18
0.25
1.66
2.56
2.55
1.54
-0.24
-2.23
-3.75
-4.14
-2.97
-0.24
3.57
7.59
10.89
12.78
13.06
12.00
10.15
8.07
6.13
4.46
3.08
2.05
1.48
1.52
2.10
2.97
3.70
3.90
3.43
2.42
1.17
-0.01
-1.00
-1.88
-2.82
-3.95
-5.19
-6.28
-6.86
-6.66
-5.71
-4.31
-2.90
-1.89
-1.40
-1.29
-1.22
-0.92
-0.37
0.20
0.41
-0.03
-1.10
-2.51
-3.80
-4.55
-4.60
-4.08
-3.28
-2.54
-2.11
-2.11
-2.58
-3.54
-4.91
-6.45
-7.66
-7.91
-6.60
-3.55
0.84
5.66
9.79
12.41
13.28
12.70
11.26
9.47
7.55
5.49
3.28
1.10
-0.66
-1.55
-1.43
-0.55
0.49
1.04
0.71
-0.49
-2.19
-3.90
-5.23
-6.04
-6.39
-6.44
-6.29
-5.93
-5.28
-4.28
-3.00
-1.61
-0.37
0.50
0.89
0.76
0.17
-0.73
-1.76
-2.68
-3.32
-3.57
-3.49
-3.26
-3.13
-3.28
-3.75
-4.40
-4.97
-5.22
-5.07
-4.58
-3.94
-3.38
-3.07
-3.14
-3.61
-4.43
-5.31
-5.82
-5.39
-3.62
-0.51
3.38
7.09
9.66
10.54
9.82
8.10
6.18
4.62
3.57
2.87
2.27
1.72
1.40
1.56
2.27
3.24
3.94
3.85
2.81
1.12
-0.58
-1.69
-1.93
-1.50
-0.87
-0.49
-0.49
-0.68
-0.72
-0.36
0.35
1.12
1.62
1.65
1.20
0.46
-0.34
-1.01
-1.41
-1.47
-1.25
-0.91
-0.70
-0.89
-1.59
-2.65
-3.72
-4.35
-4.24
-3.37
-2.00
-0.62
0.26
0.32
-0.50
-1.94
-3.44
-4.35
-4.06
-2.26
0.93
4.92
8.81
11.77
13.26
13.23
11.98
9.98
7.68
5.33
3.09
1.14
-0.25
-0.82
-0.46
0.63
1.96
2.93
3.13
2.51
1.39
0.21
-0.64
-1.00
-0.98
-0.74
-0.43
-0.11
0.25
0.69
1.17
1.58
1.82
1.77
1.42
0.77
-0.10
-1.04
-1.87
-2.42
-2.56
-2.32
-1.85
-1.41
-1.25
-1.52
-2.22
-3.22
-4.32
-5.29
-5.93
-6.07
-5.66
-4.82
-3.82
-3.00
-2.70
-3.06
-3.96
-5.01
-5.62
-5.19
-3.33
-0.02
4.30
8.84
12.65
14.97
15.46
14.23
11.74
8.58
5.28
2.22
-0.32
-2.14
-3.06
-3.04
-2.23
-1.05
0.01
0.53
0.38
-0.28
-1.10
-1.76
-2.09
-2.07
-1.82
-1.45
-1.02
-0.55
-0.05
0.46
0.88
1.12
1.15
0.95
0.59
0.11
-0.43
-1.00
-1.54
-2.02
-2.41
-2.70
-2.95
-3.21
-3.51
-3.83
-4.08
-4.16
-3.99
-3.60
-3.16
-2.94
-3.19
-4.02
-5.26
-6.47
-7.06
-6.48
-4.45
-1.09
3.02
7.05
10.20
11.92
12.08
10.94
8.95
6.60
4.21
2.03
0.22
-1.01
-1.47
-1.08
-0.03
1.23
2.13
2.25
1.54
0.37
-0.75
-1.40
-1.48
-1.23
-0.97
-0.88
-0.92
-0.81
-0.34
0.47
1.37
2.02
2.20
1.90
1.32
0.66
0.06
-0.44
-0.89
-1.31
-1.70
-2.15
-2.74
-3.56
-4.59
-5.66
-6.48
-6.80
-6.49
-5.66
-4.63
-3.75
-3.33
-3.56
-4.41
-5.67
-6.90
-7.46
-6.71
-4.29
-0.33
4.46
9.02
12.37
13.92
13.64
11.94
9.38
6.49
3.68
1.28
-0.41
-1.14
-0.91
-0.00
1.06
1.75
1.75
1.10
0.08
-0.96
-1.83
-2.53
-3.15
-3.75
-4.30
-4.65
-4.64
-4.19
-3.39
-2.42
-1.53
-0.88
-0.51
-0.35
-0.31
-0.29
-0.27
-0.29
-0.40
-0.63
-1.01
-1.56
-2.32
-3.29
-4.41
-5.50
-6.37
-6.82
-6.77
-6.30
-5.67
-5.15
-5.02
-5.37
-6.10
-6.87
-7.14
-6.32
-3.98
-0.15
4.63
9.38
13.13
15.22
15.55
14.50
12.63
10.38
7.97
5.45
2.95
0.76
-0.70
-1.10
-0.47
0.74
1.91
2.47
2.12
0.95
-0.68
-2.31
-3.55
-4.09
-3.89
-3.08
-1.95
-0.83
-0.03
0.32
0.18
-0.37
-1.25
-2.49
-4.20
-6.47
-9.23
-12.21
-15.01
-17.20
-18.45
-18.60
-17.64
-15.65
-12.77
-9.24
-5.37
-1.61
1.53
3.63
4.51
4.36
3.77
3.55
4.43
6.77
10.35
14.36
17.78
19.79
20.09
18.97
17.05
14.88
12.81
10.90
9.11
7.51
6.33
5.77
5.85
6.27
6.51
6.14
5.04
3.49
2.02
1.05
0.72
0.82
1.00
0.95
0.56
-0.07
-0.77
-1.36
-1.72
-1.78
-1.48
-0.83
0.03
0.86
1.34
1.27
0.66
-0.32
-1.40
-2.39
-3.26
-4.04
-4.74
-5.29
-5.58
-5.50
-5.07
-4.40
-3.71
-3.23
-3.15
-3.54
-4.31
-5.13
-5.48
-4.78
-2.67
0.73
4.81
8.61
11.27
12.34
11.90
10.40
8.37
6.20
4.06
2.04
0.31
-0.87
-1.26
-0.80
0.27
1.44
2.18
2.18
1.41
0.14
-1.24
-2.40
-3.15
-3.52
-3.63
-3.60
-3.52
-3.42
-3.26
-3.08
-2.91
-2.83
-2.88
-3.03
-3.18
-3.21
-3.02
-2.62
-2.11
-1.69
-1.54
-1.80
-2.42
-3.28
-4.16
-4.85
-5.23
-5.26
-5.00
-4.54
-3.99
-3.51
-3.24
-3.26
-3.52
-3.79
-3.72
-2.92
-1.17
1.47
4.58
7.54
9.78
10.89
10.78
9.65
7.81
5.59
3.24
0.99
-0.92
-2.21
-2.63
-2.09
-0.77
0.86
2.27
3.04
3.02
2.31
1.18
-0.14
-1.45
-2.62
-3.51
-3.99
-3.94
-3.37
-2.49
-1.60
-0.96
-0.73
-0.87
-1.24
-1.67
-2.03
-2.31
-2.55
-2.84
-3.22
-3.69
-4.16
-4.51
-4.58
-4.29
-3.75
-3.15
-2.77
-2.84
-3.41
-4.30
-5.13
-5.39
-4.61
-2.48
0.90
5.07
9.22
12.49
14.26
14.35
13.01
10.79
8.24
5.78
3.60
1.79
0.42
-0.36
-0.46
0.03
0.82
1.45
1.53
0.92
-0.21
-1.48
-2.49
-3.02
-3.11
-2.87
-2.46
-1.92
-1.21
-0.31
0.65
1.44
1.81
1.69
1.26
0.81
0.64
0.79
1.07
1.16
0.78
-0.12
-1.37
-2.67
-3.75
-4.49
-4.96
-5.26
-5.47
-5.62
-5.76
-6.02
-6.59
-7.68
-9.37
-11.50
-13.62
-15.14
-15.51
-14.46
-12.17
-9.15
-6.05
-3.39
-1.35
0.20
1.48
2.70
3.89
4.96
5.81
6.52
7.27
8.19
9.25
10.19
10.60
10.24
9.13
7.54
5.88
4.45
3.34
2.49
1.79
1.22
0.89
0.99
1.57
2.51
3.53
4.30
4.59
4.41
3.92
3.38
2.95
2.71
2.60
2.55
2.44
2.21
1.77
1.08
0.19
-0.81
-1.73
-2.38
-2.62
-2.48
-2.12
-1.87
-2.01
-2.70
-3.86
-5.10
-5.87
-5.59
-3.94
-1.04
2.59
6.17
9.02
10.71
11.20
10.70
9.45
7.64
5.39
2.87
0.40
-1.52
-2.40
-2.02
-0.55
1.42
3.16
4.06
3.90
2.84
1.35
-0.11
-1.23
-1.91
-2.22
-2.28
-2.15
-1.87
-1.48
-1.09
-0.80
-0.66
-0.62
-0.57
-0.43
-0.27
-0.28
-0.70
-1.66
-3.06
-4.57
-5.77
-6.30
-6.04
-5.13
-3.94
-2.88
-2.27
-2.27
-2.84
-3.81
-4.83
-5.42
-5.05
-3.27
-0.02
4.28
8.76
12.38
14.37
14.45
12.89
10.30
7.32
4.42
1.88
-0.07
-1.26
-1.52
-0.87
0.39
1.74
2.62
2.65
1.78
0.29
-1.41
-2.90
-3.92
-4.39
-4.36
-3.98
-3.44
-2.89
-2.42
-2.07
-1.83
-1.66
-1.53
-1.42
-1.34
-1.31
-1.37
-1.56
-1.96
-2.57
-3.29
-3.93
-4.29
-4.24
-3.83
-3.25
-2.80
-2.69
-3.00
-3.63
-4.47
-5.38
-6.24
-6.83
-6.77
-5.64
-3.13
0.62
4.95
8.90
11.50
12.24
11.18
8.89
6.13
3.51
1.34
-0.30
-1.39
-1.85
-1.58
-0.61
0.79
2.14
2.94
2.89
2.05
0.71
-0.72
-1.95
-2.86
-3.41
-3.60
-3.40
-2.86
-2.14
-1.50
-1.21
-1.39
-1.88
-2.32
-2.35
-1.82
-0.92
-0.05
0.34
0.01
-0.97
-2.27
-3.47
-4.24
-4.47
-4.22
-3.66
-3.00
-2.42
-2.06
-2.03
-2.36
-2.95
-3.49
-3.51
-2.54
-0.34
2.90
6.57
9.85
12.03
12.79
12.20
10.65
8.53
6.14
3.67
1.30
-0.67
-1.87
-2.00
-1.06
0.54
2.14
3.03
2.84
1.61
-0.20
-1.98
-3.23
-3.75
-3.63
-3.16
-2.58
-2.02
-1.47
-0.91
-0.32
0.29
0.86
1.39
1.89
2.32
2.60
2.55
2.07
1.15
-0.01
-1.11
-1.88
-2.20
-2.14
-1.90
-1.79
-2.04
-2.87
-4.35
-6.43
-8.91
-11.34
-13.11
-13.67
-12.74
-10.52
-7.67
-4.99
-3.06
-2.02
-1.58
-1.24
-0.60
0.48
1.89
3.44
5.02
6.59
8.14
9.53
10.49
10.73
10.17
8.96
7.46
6.01
4.83
3.95
3.31
2.83
2.45
2.18
2.01
1.91
1.82
1.75
1.74
1.85
2.11
2.42
2.60
2.48
1.96
1.05
-0.12
-1.39
-2.62
-3.66
-4.39
-4.70
-4.54
-3.98
-3.25
-2.68
-2.58
-3.12
-4.27
-5.73
-7.04
-7.65
-7.13
-5.21
-2.01
2.02
6.15
9.58
11.77
12.46
11.75
9.94
7.43
4.60
1.80
-0.58
-2.23
-2.90
-2.60
-1.59
-0.35
0.62
1.01
0.78
0.07
-0.89
-1.92
-2.86
-3.59
-3.97
-3.89
-3.35
-2.47
-1.52
-0.76
-0.35
-0.27
-0.35
-0.44
-0.48
-0.56
-0.86
-1.52
-2.51
-3.63
-4.57
-5.04
-4.89
-4.17
-3.06
-1.84
-0.80
-0.19
-0.16
-0.78
-1.94
-3.34
-4.54
-5.01
-4.29
-2.18
1.15
5.15
9.00
11.90
13.29
13.03
11.35
8.76
5.85
3.10
0.82
-0.78
-1.63
-1.68
-1.03
0.09
1.27
2.04
2.10
1.36
0.03
-1.54
-2.98
-4.04
-4.57
-4.56
-4.04
-3.12
-1.94
-0.72
0.30
0.96
1.23
1.19
1.00
0.79
0.60
0.36
-0.04
-0.71
-1.64
-2.72
-3.73
-4.42
-4.60
-4.28
-3.64
-3.01
-2.72
-2.99
-3.80
-4.87
-5.73
-5.85
-4.79
-2.34
1.30
5.53
9.54
12.55
14.09
14.11
12.91
10.92
8.55
6.06
3.64
1.54
0.06
-0.54
-0.22
0.71
1.69
2.13
1.70
0.50
-1.03
-2.33
-3.06
-3.21
-3.03
-2.84
-2.83
-2.92
-2.90
-2.57
-1.89
-1.05
-0.32
0.08
0.11
-0.11
-0.39
-0.61
-0.79
-1.05
-1.53
-2.28
-3.23
-4.15
-4.82
-5.11
-4.98
-4.52
-3.91
-3.31
-2.87
-2.71
-2.96
-3.67
-4.73
-5.80
-6.29
-5.59
-3.36
0.25
4.53
8.53
11.38
12.65
12.40
11.02
8.97
6.59
4.08
1.62
-0.51
-2.00
-2.58
-2.22
-1.16
0.15
1.28
1.93
2.02
1.62
0.88
-0.03
-0.93
-1.63
-2.03
-2.12
-2.05
-2.03
-2.25
-2.72
-3.23
-3.46
-3.19
-2.40
-1.39
-0.56
-0.24
-0.51
-1.22
-2.04
-2.70
-3.02
-2.99
-2.65
-2.10
-1.46
-0.95
-0.83
-1.31
-2.42
-3.83
-4.98
-5.19
-3.99
-1.34
2.25
5.93
8.82
10.35
10.41
9.27
7.42
5.33
3.28
1.42
-0.13
-1.20
-1.62
-1.23
-0.12
1.36
2.69
3.39
3.20
2.22
0.82
-0.56
-1.57
-2.07
-2.12
-1.85
-1.39
-0.81
-0.20
0.34
0.62
0.55
0.17
-0.36
-0.80
-0.99
-0.94
-0.81
-0.85
-1.22
-1.93
-2.82
-3.62
-4.15
-4.26
-3.96
-3.39
-2.81
-2.53
-2.85
-3.99
-6.01
-8.78
-11.90
-14.71
-16.52
-16.74
-15.23
-12.35
-8.86
-5.60
-3.11
-1.49
-0.47
0.32
1.15
1.98
2.68
3.19
3.67
4.45
5.73
7.42
9.06
10.08
10.12
9.20
7.71
6.18
5.00
4.24
3.73
3.26
2.78
2.42
2.36
2.69
3.28
3.85
4.08
3.83
3.15
2.24
1.38
0.74
0.41
0.32
0.32
0.24
-0.07
-0.67
-1.52
-2.47
-3.32
-3.90
-4.15
-4.09
-3.82
-3.49
-3.27
-3.29
-3.60
-4.11
-4.49
-4.25
-2.93
-0.29
3.41
7.47
11.00
13.19
13.65
12.51
10.29
7.53
4.70
2.02
-0.32
-2.07
-2.91
-2.57
-1.14
0.86
2.62
3.37
2.74
0.98
-1.23
-3.12
-4.22
-4.45
-4.13
-3.60
-3.07
-2.55
-1.91
-1.10
-0.15
0.79
1.63
2.31
2.83
3.10
3.03
2.50
1.53
0.34
-0.75
-1.45
-1.65
-1.46
-1.14
-1.00
-1.24
-1.90
-2.86
-3.88
-4.64
-4.76
-3.89
-1.85
1.22
4.78
8.09
10.37
11.16
10.46
8.62
6.22
3.82
1.82
0.45
-0.19
-0.01
0.94
2.50
4.27
5.73
6.41
6.07
4.77
2.85
0.76
-1.11
-2.53
-3.40
-3.78
-3.77
-3.54
-3.26
-3.10
-3.18
-3.50
-3.98
-4.45
-4.75
-4.78
-4.57
-4.20
-3.77
-3.38
-3.08
-2.90
-2.84
-2.86
-2.85
-2.69
-2.30
-1.68
-0.97
-0.37
-0.10
-0.34
-1.12
-2.28
-3.52
-4.33
-4.23
-2.85
-0.19
3.31
6.82
9.47
10.66
10.25
8.56
6.19
3.70
1.49
-0.22
-1.33
-1.74
-1.46
-0.59
0.58
1.65
2.27
2.31
1.85
1.16
0.48
-0.06
-0.51
-0.93
-1.38
-1.80
-2.04
-2.00
-1.64
-1.10
-0.60
-0.35
-0.44
-0.86
-1.52
-2.24
-2.90
-3.39
-3.69
-3.86
-4.03
-4.37
-4.99
-5.86
-6.80
-7.59
-8.01
-7.97
-7.52
-6.75
-5.81
-4.84
-4.00
-3.48
-3.39
-3.68
-4.01
-3.80
-2.49
0.19
3.99
8.18
11.79
13.98
14.34
13.00
10.47
7.40
4.37
1.72
-0.38
-1.81
-2.52
-2.46
-1.74
-0.62
0.48
1.13
1.07
0.34
-0.77
-1.83
-2.48
-2.58
-2.20
-1.56
-0.85
-0.16
0.53
1.20
1.79
2.19
2.34
2.27
2.10
1.99
2.00
2.09
2.07
1.76
1.06
-0.01
-1.35
-2.72
-3.93
-4.82
-5.30
-5.40
-5.37
-5.58
-6.37
-7.92
-10.04
-12.24
-13.87
-14.38
-13.53
-11.46
-8.67
-5.77
-3.24
-1.30
0.05
0.98
1.66
2.23
2.75
3.28
3.94
4.86
6.15
7.71
9.30
10.51
10.95
10.46
9.12
7.20
5.09
3.14
1.66
0.87
0.89
1.66
2.95
4.33
5.40
5.83
5.55
4.70
3.55
2.38
1.41
0.80
0.65
1.01
1.80
2.84
3.82
4.39
4.29
3.41
1.85
-0.12
-2.11
-3.72
-4.63
-4.73
-4.15
-3.22
-2.34
-1.80
-1.67
-1.72
-1.55
-0.75
0.94
3.47
6.41
9.13
11.03
11.75
11.28
9.92
8.08
6.08
4.06
2.06
0.16
-1.47
-2.59
-3.03
-2.83
-2.24
-1.57
-1.10
-0.94
-1.06
-1.36
-1.78
-2.31
-2.93
-3.54
-3.98
-4.05
-3.64
-2.80
-1.78
-0.85
-0.22
-0.00
-0.17
-0.62
-1.25
-1.92
-2.49
-2.78
-2.70
-2.34
-1.95
-1.90
-2.42
-3.50
-4.86
-6.05
-6.74
-6.75
-6.14
-5.10
-3.87
-2.66
-1.64
-0.87
-0.26
0.42
1.53
3.32
5.82
8.67
11.24
12.88
13.21
12.26
10.41
8.17
5.95
3.91
2.03
0.32
-1.12
-2.03
-2.19
-1.63
-0.63
0.29
0.76
0.63
0.08
-0.58
-1.13
-1.55
-2.00
-2.58
-3.20
-3.52
-3.18
-2.01
-0.15
1.96
3.90
5.48
6.83
8.23
9.93
11.88
13.76
15.15
15.75
15.54
14.69
13.52
12.30
11.25
10.56
10.40
10.79
11.49
11.88
11.02
8.00
2.30
-5.78
-15.15
-24.15
-31.25
-35.62
-37.42
-37.62
-37.47
-37.84
-38.90
-40.18
-40.93
-40.55
-38.83
-35.89
-31.96
-27.18
-21.58
-15.26
-8.55
-2.09
3.39
7.34
9.63
10.60
10.85
11.03
11.50
12.30
13.18
13.83
14.09
14.03
13.86
13.77
13.81
13.81
13.53
12.79
11.59
10.08
8.52
7.09
5.85
4.73
3.63
2.48
1.33
0.31
-0.43
-0.78
-0.77
-0.54
-0.27
-0.17
-0.32
-0.70
-1.19
-1.58
-1.63
-1.07
0.29
2.55
5.51
8.67
11.39
13.04
13.29
12.25
10.35
8.13
5.99
4.10
2.39
0.79
-0.67
-1.80
-2.42
-2.47
-2.09
-1.55
-1.12
-0.97
-1.12
-1.45
-1.81
-2.04
-2.01
-1.60
-0.81
0.29
1.52
2.64
3.44
3.81
3.79
3.53
3.23
3.02
2.88
2.69
2.23
1.39
0.19
-1.20
-2.62
-3.87
-4.83
-5.40
-5.51
-5.20
-4.66
-4.32
-4.70
-6.27
-9.11
-12.82
-16.58
-19.41
-20.55
-19.66
-16.95
-12.96
-8.43
-3.98
-0.04
3.19
5.70
7.52
8.69
9.17
8.98
8.32
7.59
7.31
7.82
9.08
10.57
11.50
11.25
9.73
7.41
5.09
3.45
2.73
2.75
3.04
3.19
3.01
2.52
1.89
1.25
0.76
0.53
0.69
1.23
2.00
2.72
3.02
2.65
1.60
0.13
-1.35
-2.43
-2.91
-2.80
-2.32
-1.73
-1.31
-1.20
-1.47
-2.12
-2.97
-3.74
-3.97
-3.23
-1.25
1.84
5.42
8.61
10.60
11.02
9.99
8.01
5.65
3.31
1.18
-0.64
-2.01
-2.73
-2.66
-1.89
-0.79
0.13
0.47
0.15
-0.58
-1.27
-1.59
-1.48
-1.11
-0.78
-0.68
-0.84
-1.12
-1.31
-1.27
-1.03
-0.73
-0.50
-0.46
-0.63
-1.00
-1.48
-2.03
-2.60
-3.16
-3.71
-4.25
-4.79
-5.26
-5.52
-5.42
-4.84
-3.83
-2.60
-1.52
-0.92
-1.01
-1.77
-2.94
-4.06
-4.59
-4.06
-2.21
0.85
4.64
8.37
11.26
12.79
12.83
11.65
9.69
7.37
4.95
2.57
0.36
-1.45
-2.60
-2.90
-2.42
-1.51
-0.68
-0.32
-0.62
-1.40
-2.37
-3.18
-3.68
-3.87
-3.87
-3.79
-3.67
-3.48
-3.16
-2.70
-2.14
-1.55
-1.00
-0.52
-0.12
0.17
0.30
0.26
0.05
-0.29
-0.76
-1.36
-2.12
-3.03
-3.97
-4.75
-5.15
-5.06
-4.49
-3.66
-2.87
-2.39
-2.36
-2.74
-3.27
-3.63
-3.43
-2.34
-0.27
2.55
5.64
8.33
10.05
10.50
9.78
8.25
6.38
4.54
2.88
1.44
0.24
-0.61
-0.90
-0.50
0.52
1.79
2.83
3.18
2.67
1.46
-0.06
-1.42
-2.30
-2.59
-2.39
-1.90
-1.28
-0.65
-0.13
0.24
0.37
0.24
-0.09
-0.54
-0.98
-1.35
-1.73
-2.20
-2.88
-3.77
-4.75
-5.60
-6.09
-6.08
-5.57
-4.70
-3.71
-2.88
-2.38
-2.32
-2.65
-3.17
-3.53
-3.25
-1.93
0.61
4.16
8.12
11.69
14.15
15.10
14.53
12.75
10.25
7.51
4.93
2.77
1.20
0.30
0.05
0.33
0.88
1.41
1.63
1.39
0.70
-0.30
-1.41
-2.41
-3.15
-3.51
-3.45
-2.98
-2.17
-1.14
-0.12
0.70
1.16
1.27
1.18
1.13
1.30
1.72
2.29
2.77
2.90
2.51
1.57
0.17
-1.46
-3.07
-4.39
-5.27
-5.62
-5.53
-5.18
-4.85
-4.88
-5.55
-6.98
-9.05
-11.44
-13.60
-14.93
-14.98
-13.58
-11.02
-7.91
-4.96
-2.71
-1.32
-0.58
-0.05
0.67
1.74
3.05
4.37
5.54
6.55
7.52
8.48
9.29
9.62
9.16
7.81
5.79
3.55
1.56
0.13
-0.67
-1.01
-1.09
-1.00
-0.69
-0.07
0.82
1.80
2.65
3.18
3.38
3.38
3.35
3.33
3.23
2.90
2.25
1.34
0.34
-0.56
-1.22
-1.63
-1.85
-1.96
-2.02
-2.05
-2.14
-2.43
-3.08
-4.14
-5.41
-6.47
-6.74
-5.73
-3.33
0.12
3.88
7.14
9.31
10.16
9.86
8.77
7.18
5.30
3.25
1.26
-0.33
-1.08
-0.76
0.50
2.19
3.63
4.26
3.89
2.71
1.07
-0.68
-2.32
-3.74
-4.80
-5.33
-5.15
-4.29
-2.98
-1.65
-0.70
-0.30
-0.38
-0.66
-0.89
-1.00
-1.11
-1.41
-2.05
-2.98
-4.01
-4.84
-5.25
-5.11
-4.48
-3.53
-2.50
-1.65
-1.20
-1.25
-1.77
-2.55
-3.23
-3.34
-2.47
-0.40
2.67
6.16
9.29
11.35
12.01
11.34
9.77
7.77
5.68
3.65
1.76
0.14
-0.98
-1.39
-1.06
-0.26
0.51
0.82
0.47
-0.39
-1.43
-2.30
-2.85
-3.12
-3.25
-3.31
-3.21
-2.84
-2.12
-1.15
-0.18
0.51
0.76
0.65
0.43
0.38
0.61
1.02
1.34
1.28
0.69
-0.35
-1.59
-2.71
-3.49
-3.90
-4.02
-4.04
-4.07
-4.21
-4.47
-4.85
-5.37
-5.91
-6.25
-6.00
-4.74
-2.25
1.29
5.27
8.87
11.35
12.35
11.93
10.50
8.56
6.50
4.55
2.83
1.46
0.60
0.37
0.71
1.34
1.80
1.69
0.87
-0.50
-2.02
-3.26
-3.96
-4.10
-3.80
-3.27
-2.66
-2.03
-1.39
-0.75
-0.13
0.43
0.94
1.44
1.93
2.35
2.58
2.51
2.05
1.23
0.14
-1.04
-2.11
-2.91
-3.33
-3.35
-3.09
-2.79
-2.80
-3.34
-4.45
-5.84
-7.06
-7.53
-6.84
-4.85
-1.78
1.85
5.36
8.16
9.83
10.29
9.71
8.45
6.84
5.14
3.52
2.07
0.98
0.45
0.61
1.41
2.51
3.39
3.55
2.75
1.11
-0.99
-3.06
-4.71
-5.75
-6.17
-6.09
-5.66
-5.01
-4.27
-3.55
-2.95
-2.50
-2.19
-2.00
-1.84
-1.68
-1.55
-1.54
-1.75
-2.26
-3.06
-3.99
-4.83
-5.33
-5.38
-5.05
-4.59
-4.32
-4.49
-5.19
-6.32
-7.56
-8.48
-8.59
-7.50
-5.10
-1.69
2.09
5.42
7.63
8.48
8.27
7.71
7.63
8.66
11.15
15.20
20.77
27.64
35.42
43.35
50.39
55.38
57.38
55.89
51.00
43.23
33.37
22.29
10.90
0.09
-9.32
-16.77
-22.06
-25.33
-27.05
-27.74
-27.81
-27.47
-26.77
-25.67
-24.19
-22.47
-20.74
-19.28
-18.22
-17.61
-17.36
-17.29
-17.17
-16.82
-16.11
-15.01
-13.61
-12.07
-10.63
-9.51
-8.87
-8.66
-8.68
-8.54
-7.83
-6.23
-3.75
-0.72
2.29
4.69
6.07
6.34
5.70
4.49
3.02
1.52
0.12
-1.00
-1.67
-1.74
-1.16
-0.12
1.03
1.94
2.35
2.20
1.61
0.75
-0.20
-1.02
-1.53
-1.54
-1.00
-0.05
0.99
1.74
1.91
1.49
0.73
-0.02
-0.50
-0.70
-0.84
-1.22
-2.03
-3.25
-4.60
-5.71
-6.26
-6.09
-5.19
-3.78
-2.22
-0.89
-0.13
-0.08
-0.58
-1.28
-1.71
-1.47
-0.37
1.54
3.99
6.56
8.83
10.42
11.12
10.82
9.63
7.76
5.52
3.25
1.27
-0.18
-0.95
-1.01
-0.49
0.32
1.04
1.32
0.96
0.01
-1.27
-2.49
-3.33
-3.53
-3.04
-2.00
-0.71
0.51
1.38
1.81
1.87
1.76
1.69
1.72
1.77
1.63
1.13
0.25
-0.88
-1.99
-2.84
-3.33
-3.47
-3.37
-3.13
-2.84
-2.59
-2.47
-2.58
-2.96
-3.50
-3.95
-3.91
-3.06
-1.23
1.45
4.53
7.41
9.60
10.82
11.08
10.55
9.45
7.92
6.05
3.90
1.74
-0.08
-1.17
-1.36
-0.78
0.09
0.69
0.66
-0.02
-1.02
-1.88
-2.33
-2.35
-2.17
-2.05
-2.08
-2.14
-2.04
-1.68
-1.19
-0.82
-0.77
-1.05
-1.44
-1.64
-1.47
-1.00
-0.49
-0.29
-0.66
-1.65
-3.05
-4.54
-5.74
-6.42
-6.50
-6.08
-5.39
-4.68
-4.15
-3.94
-4.07
-4.47
-4.89
-4.99
-4.31
-2.55
0.31
3.88
7.41
10.11
11.45
11.31
10.00
8.03
5.85
3.69
1.65
-0.18
-1.61
-2.37
-2.33
-1.59
-0.53
0.35
0.66
0.30
-0.59
-1.72
-2.83
-3.77
-4.47
-4.88
-5.00
-4.83
-4.45
-3.98
-3.51
-3.04
-2.48
-1.71
-0.72
0.27
0.96
1.10
0.64
-0.22
-1.07
-1.55
-1.47
-0.86
0.04
0.90
1.41
1.36
0.69
-0.45
-1.76
-2.77
-2.97
-1.98
0.31
3.59
7.16
10.23
12.08
12.36
11.10
8.60
5.27
1.51
-2.43
-6.32
-9.89
-12.82
-14.83
-15.86
-16.04
-15.69
-15.09
-14.35
-13.33
-11.82
-9.64
-6.85
-3.68
-0.47
2.49
5.03
7.08
8.59
9.46
9.58
8.95
7.77
6.37
5.11
4.24
3.81
3.65
3.53
3.24
2.71
2.02
1.30
0.70
0.31
0.18
0.26
0.45
0.60
0.54
0.16
-0.53
-1.35
-1.92
-1.84
-0.76
1.43
4.55
8.10
11.37
13.72
14.71
14.25
12.59
10.15
7.41
4.73
2.37
0.50
-0.75
-1.31
-1.22
-0.65
0.05
0.52
0.49
-0.06
-0.94
-1.82
-2.43
-2.70
-2.70
-2.66
-2.70
-2.77
-2.67
-2.19
-1.25
-0.03
1.10
1.78
1.83
1.35
0.65
0.07
-0.22
-0.33
-0.51
-1.01
-1.89
-2.99
-3.98
-4.57
-4.66
-4.35
-3.89
-3.54
-3.43
-3.55
-3.80
-4.08
-4.34
-4.51
-4.48
-4.00
-2.78
-0.57
2.57
6.23
9.74
12.37
13.57
13.22
11.57
9.12
6.41
3.84
1.66
-0.01
-1.10
-1.54
-1.36
-0.77
-0.11
0.20
-0.05
-0.88
-2.03
-3.15
-3.93
-4.21
-4.01
-3.47
-2.76
-2.01
-1.29
-0.63
-0.02
0.55
1.09
1.53
1.81
1.83
1.50
0.79
-0.22
-1.39
-2.58
-3.61
-4.38
-4.79
-4.83
-4.55
-4.14
-3.89
-4.03
-4.67
-5.66
-6.56
-6.80
-5.85
-3.47
0.15
4.38
8.32
11.19
12.55
12.41
11.11
9.14
6.87
4.58
2.41
0.56
-0.75
-1.28
-1.03
-0.22
0.68
1.16
0.93
0.02
-1.26
-2.56
-3.58
-4.26
-4.65
-4.84
-4.84
-4.60
-4.04
-3.19
-2.17
-1.17
-0.34
0.25
0.60
0.74
0.69
0.46
0.10
-0.30
-0.65
-0.92
-1.15
-1.45
-1.90
-2.47
-3.07
-3.53
-3.77
-3.80
-3.73
-3.67
-3.77
-4.09
-4.59
-5.17
-5.53
-5.27
-4.02
-1.59
1.80
5.55
8.88
11.15
12.06
11.75
10.57
8.87
6.91
4.83
2.79
1.05
-0.12
-0.56
-0.37
0.08
0.37
0.20
-0.43
-1.28
-2.07
-2.63
-2.99
-3.26
-3.55
-3.79
-3.84
-3.52
-2.82
-1.87
-0.88
-0.06
0.50
0.83
1.01
1.15
1.28
1.37
1.40
1.34
1.20
0.97
0.65
0.23
-0.26
-0.76
-1.20
-1.52
-1.71
-1.80
-1.86
-2.03
-2.42
-3.11
-4.06
-5.02
-5.62
-5.38
-4.01
-1.49
1.76
5.12
7.92
9.68
10.25
9.75
8.46
6.60
4.30
1.57
-1.58
-4.96
-8.21
-10.90
-12.70
-13.60
-13.79
-13.59
-13.20
-12.61
-11.64
-10.08
-7.86
-5.15
-2.26
0.45
2.77
4.60
5.94
6.82
7.25
7.30
7.08
6.68
6.16
5.55
4.88
4.16
3.46
2.81
2.24
1.76
1.37
1.09
0.98
1.07
1.32
1.59
1.66
1.33
0.52
-0.66
-1.84
-2.52
-2.21
-0.67
1.96
5.09
7.96
9.90
10.61
10.20
9.11
7.79
6.50
5.32
4.19
3.20
2.53
2.41
2.93
3.88
4.79
5.21
4.86
3.82
2.38
0.87
-0.46
-1.58
-2.48
-3.11
-3.42
-3.33
-2.86
-2.24
-1.75
-1.62
-1.93
-2.51
-3.07
-3.35
-3.23
-2.80
-2.29
-1.97
-2.06
-2.59
-3.39
-4.16
-4.61
-4.55
-4.02
-3.22
-2.44
-1.90
-1.74
-2.01
-2.68
-3.59
-4.38
-4.60
-3.75
-1.59
1.69
5.46
8.82
10.99
11.59
10.67
8.62
5.96
3.08
0.29
-2.11
-3.81
-4.51
-4.08
-2.74
-1.04
0.31
0.77
0.25
-0.93
-2.22
-3.10
-3.34
-2.98
-2.25
-1.39
-0.57
0.11
0.56
0.69
0.48
0.05
-0.40
-0.67
-0.70
-0.61
-0.63
-0.99
-1.77
-2.85
-3.99
-4.91
-5.44
-5.47
-4.99
-4.11
-3.06
-2.15
-1.72
-1.96
-2.78
-3.78
-4.42
-4.14
-2.65
-0.04
3.24
6.55
9.25
10.87
11.19
10.30
8.47
6.07
3.46
1.01
-0.97
-2.21
-2.55
-2.01
-0.88
0.36
1.18
1.27
0.64
-0.41
-1.45
-2.14
-2.39
-2.27
-1.93
-1.49
-0.97
-0.37
0.23
0.70
0.94
0.94
0.84
0.78
0.83
0.91
0.80
0.33
-0.55
-1.70
-2.86
-3.79
-4.35
-4.54
-4.44
-4.18
-3.91
-3.76
-3.87
-4.23
-4.63
-4.62
-3.67
-1.43
2.05
6.14
9.88
12.36
13.10
12.20
10.23
7.87
5.61
3.63
1.92
0.46
-0.64
-1.16
-0.95
-0.13
0.94
1.75
1.90
1.25
-0.05
-1.64
-3.13
-4.22
-4.75
-4.69
-4.08
-3.03
-1.68
-0.27
0.94
1.76
2.10
2.06
1.83
1.58
1.37
1.12
0.72
0.09
-0.70
-1.51
-2.18
-2.64
-2.91
-3.07
-3.20
-3.30
-3.38
-3.50
-3.79
-4.37
-5.25
-6.20
-6.71
-6.19
-4.27
-1.01
3.01
6.91
9.79
11.13
10.89
9.49
7.52
5.52
3.82
2.54
1.73
1.47
1.80
2.62
3.69
4.56
4.82
4.25
2.94
1.25
-0.42
-1.72
-2.55
-2.96
-3.11
-3.16
-3.18
-3.18
-3.12
-2.95
-2.59
-2.01
-1.25
-0.49
0.04
0.13
-0.27
-0.99
-1.68
-2.00
-1.75
-1.01
-0.08
0.67
0.94
0.58
-0.32
-1.57
-2.88
-3.89
-4.26
-3.70
-2.05
0.57
3.70
6.69
8.87
9.81
9.40
7.86
5.56
2.84
-0.09
-3.12
-6.18
-9.05
-11.44
-13.06
-13.81
-13.85
-13.48
-13.01
-12.54
-11.91
-10.83
-9.11
-6.78
-4.14
-1.57
0.66
2.41
3.71
4.61
5.15
5.34
5.25
5.07
4.96
4.97
4.96
4.67
3.90
2.64
1.14
-0.22
-1.09
-1.37
-1.16
-0.72
-0.31
-0.09
-0.13
-0.42
-0.89
-1.43
-1.83
-1.79
-0.95
0.91
3.71
7.00
10.09
12.29
13.15
12.60
10.92
8.57
5.98
3.49
1.33
-0.34
-1.37
-1.72
-1.46
-0.90
-0.38
-0.16
-0.34
-0.84
-1.47
-2.04
-2.46
-2.64
-2.54
-2.10
-1.38
-0.45
0.48
1.21
1.58
1.57
1.33
1.03
0.80
0.66
0.49
0.13
-0.53
-1.53
-2.75
-4.03
-5.16
-5.95
-6.28
-6.11
-5.49
-4.55
-3.50
-2.54
-1.90
-1.72
-2.02
-2.60
-3.03
-2.78
-1.44
1.04
4.25
7.46
9.88
11.03
10.84
9.61
7.73
5.52
3.17
0.84
-1.19
-2.52
-2.79
-1.91
-0.22
1.62
2.89
3.13
2.27
0.60
-1.41
-3.33
-4.84
-5.77
-6.11
-5.89
-5.23
-4.29
-3.24
-2.26
-1.44
-0.81
-0.30
0.10
0.38
0.43
0.14
-0.49
-1.34
-2.13
-2.54
-2.36
-1.63
-0.59
0.37
0.84
0.61
-0.35
-1.79
-3.28
-4.32
-4.46
-3.40
-1.10
2.12
5.69
8.92
11.17
12.04
11.49
9.79
7.45
4.98
2.83
1.29
0.50
0.49
1.23
2.51
3.99
5.22
5.76
5.35
4.04
2.10
-0.03
-1.96
-3.41
-4.28
-4.60
-4.50
-4.14
-3.72
-3.35
-3.07
-2.77
-2.34
-1.73
-1.09
-0.68
-0.74
-1.32
-2.22
-3.06
-3.52
-3.49
-3.09
-2.57
-2.17
-2.00
-2.06
-2.28
-2.64
-3.14
-3.72
-4.21
-4.29
-3.60
-1.93
0.67
3.77
6.71
8.85
9.78
9.44
8.11
6.21
4.14
2.24
0.66
-0.48
-1.10
-1.18
-0.73
0.09
1.00
1.72
2.06
1.94
1.46
0.77
0.01
-0.72
-1.33
-1.74
-1.88
-1.70
-1.25
-0.70
-0.23
-0.03
-0.11
-0.34
-0.56
-0.65
-0.62
-0.66
-0.96
-1.68
-2.80
-4.21
-5.67
-6.93
-7.76
-8.00
-7.61
-6.71
-5.54
-4.45
-3.75
-3.63
-4.02
-4.62
-4.89
-4.26
-2.35
0.83
4.76
8.61
11.51
12.86
12.52
10.82
8.34
5.67
3.26
1.32
-0.07
-0.92
-1.26
-1.20
-0.93
-0.72
-0.78
-1.21
-1.95
-2.79
-3.51
-3.88
-3.82
-3.33
-2.51
-1.48
-0.41
0.57
1.37
1.93
2.26
2.38
2.31
1.96
1.27
0.18
-1.21
-2.63
-3.76
-4.30
-4.15
-3.46
-2.60
-2.01
-2.02
-2.74
-4.04
-5.52
-6.63
-6.81
-5.62
-2.99
0.78
4.95
8.65
11.14
12.08
11.59
10.08
8.07
5.91
3.82
1.94
0.47
-0.32
-0.23
0.74
2.22
3.60
4.29
3.95
2.65
0.75
-1.28
-3.06
-4.39
-5.19
-5.47
-5.27
-4.68
-3.80
-2.80
-1.81
-0.92
-0.15
0.51
1.07
1.50
1.79
1.92
1.84
1.53
0.97
0.20
-0.65
-1.38
-1.79
-1.78
-1.45
-1.06
-0.87
-1.07
-1.65
-2.48
-3.31
-3.86
-3.84
-2.95
-1.04
1.76
5.00
8.01
10.10
10.80
9.97
7.83
4.76
1.12
-2.79
-6.67
-10.22
-13.09
-14.93
-15.59
-15.09
-13.69
-11.75
-9.57
-7.40
-5.33
-3.37
-1.50
0.32
2.05
3.64
4.97
5.98
6.61
6.81
6.66
6.25
5.70
5.17
4.80
4.59
4.46
4.23
3.72
2.87
1.82
0.82
0.13
-0.09
0.09
0.48
0.80
0.84
0.49
-0.25
-1.27
-2.41
-3.39
-3.91
-3.58
-2.20
0.21
3.25
6.25
8.52
9.53
9.13
7.52
5.23
2.80
0.73
-0.67
-1.26
-1.07
-0.26
0.88
2.02
2.87
3.24
3.13
2.65
1.95
1.16
0.29
-0.62
-1.48
-2.16
-2.55
-2.59
-2.36
-2.03
-1.75
-1.57
-1.48
-1.46
-1.54
-1.82
-2.39
-3.26
-4.28
-5.22
-5.85
-6.01
-5.68
-4.97
-4.12
-3.40
-3.07
-3.28
-3.97
-4.81
-5.30
-4.92
-3.34
-0.60
2.83
6.28
9.04
10.68
11.04
10.29
8.72
6.66
4.42
2.24
0.39
-0.91
-1.47
-1.25
-0.45
0.56
1.35
1.60
1.24
0.42
-0.57
-1.44
-2.07
-2.43
-2.62
-2.78
-2.93
-3.03
-3.03
-2.86
-2.51
-1.99
-1.33
-0.57
0.22
0.86
1.17
0.96
0.18
-1.01
-2.32
-3.40
-4.03
-4.15
-3.92
-3.58
-3.37
-3.40
-3.71
-4.21
-4.68
-4.80
-4.19
-2.55
0.14
3.54
7.03
9.92
11.70
12.22
11.57
10.05
8.00
5.69
3.42
1.44
0.00
-0.78
-0.96
-0.80
-0.62
-0.67
-1.01
-1.56
-2.15
-2.66
-3.01
-3.19
-3.16
-2.84
-2.17
-1.15
0.08
1.33
2.35
2.98
3.21
3.15
2.93
2.62
2.20
1.56
0.68
-0.34
-1.27
-1.91
-2.22
-2.29
-2.37
-2.65
-3.24
-4.12
-5.19
-6.32
-7.39
-8.18
-8.38
-7.63
-5.64
-2.46
1.50
5.48
8.73
10.73
11.37
10.89
9.69
8.13
6.44
4.82
3.48
2.68
2.58
3.14
4.03
4.75
4.92
4.34
3.13
1.50
-0.30
-2.09
-3.71
-5.01
-5.80
-6.04
-5.82
-5.42
-5.12
-5.05
-5.07
-4.87
-4.17
-2.97
-1.55
-0.31
0.39
0.50
0.20
-0.16
-0.29
-0.07
0.48
1.19
1.84
2.18
2.01
1.24
-0.02
-1.47
-2.64
-3.05
-2.36
-0.58
1.92
4.50
6.50
7.46
7.24
6.02
4.18
2.16
0.24
-1.37
-2.57
-3.21
-3.20
-2.52
-1.34
-0.02
1.04
1.53
1.41
0.85
0.16
-0.46
-0.93
-1.28
-1.55
-1.71
-1.70
-1.51
-1.25
-1.15
-1.39
-1.93
-2.51
-2.75
-2.39
-1.41
-0.10
1.10
1.80
1.80
1.15
0.07
-1.21
-2.50
-3.61
-4.42
-4.81
-4.77
-4.41
-3.97
-3.71
-3.81
-4.24
-4.74
-4.88
-4.18
-2.36
0.51
3.95
7.25
9.67
10.81
10.62
9.41
7.60
5.54
3.38
1.21
-0.88
-2.60
-3.63
-3.76
-3.09
-2.01
-1.06
-0.61
-0.68
-1.04
-1.35
-1.43
-1.26
-0.98
-0.71
-0.45
-0.16
0.22
0.68
1.11
1.43
1.61
1.71
1.78
1.80
1.65
1.21
0.44
-0.56
-1.61
-2.53
-3.26
-3.84
-4.40
-5.02
-5.72
-6.47
-7.16
-7.67
-7.87
-7.65
-7.01
-6.11
-5.19
-4.51
-4.24
-4.33
-4.48
-4.28
-3.26
-1.20
1.84
5.41
8.85
11.49
12.90
12.97
11.95
10.26
8.27
6.25
4.31
2.57
1.20
0.40
0.26
0.64
1.18
1.51
1.38
0.83
0.06
-0.67
-1.24
-1.65
-1.95
-2.13
-2.12
-1.86
-1.41
-0.95
-0.73
-0.81
-1.06
-1.19
-0.91
-0.18
0.83
1.74
2.19
2.01
1.27
0.19
-0.92
-1.77
-2.21
-2.18
-1.79
-1.27
-0.90
-0.94
-1.50
-2.52
-3.71
-4.67
-4.96
-4.27
-2.46
0.33
3.67
6.97
9.60
11.10
11.29
10.33
8.61
6.62
4.69
3.06
1.79
0.91
0.45
0.44
0.85
1.51
2.12
2.41
2.23
1.61
0.76
-0.06
-0.68
-1.03
-1.14
-1.08
-0.88
-0.59
-0.23
0.14
0.43
0.63
0.72
0.71
0.59
0.28
-0.24
-0.96
-1.79
-2.62
-3.34
-3.97
-4.49
-4.96
-5.33
-5.50
-5.34
-4.85
-4.13
-3.43
-3.10
-3.42
-4.64
-6.79
-9.75
-13.08
-16.12
-18.10
-18.33
-16.51
-12.84
-8.08
-3.17
1.07
4.16
6.09
7.11
7.51
7.51
7.23
6.78
6.37
6.26
6.55
7.16
7.75
7.89
7.30
6.03
4.39
2.85
1.81
1.37
1.42
1.72
2.09
2.41
2.75
3.19
3.74
4.31
4.72
4.83
4.59
4.05
3.34
2.55
1.72
0.81
-0.24
-1.45
-2.77
-4.07
-5.25
-6.19
-6.86
-7.25
-7.40
-7.34
-7.10
-6.68
-6.14
-5.53
-4.94
-4.45
-4.08
-3.75
-3.23
-2.22
-0.44
2.23
5.55
8.96
11.72
13.20
13.10
11.62
9.30
6.78
4.50
2.60
1.04
-0.23
-1.12
-1.45
-1.15
-0.38
0.47
0.94
0.76
-0.05
-1.18
-2.29
-3.17
-3.78
-4.16
-4.36
-4.30
-3.86
-2.98
-1.84
-0.72
0.06
0.36
0.28
0.09
0.03
0.19
0.47
0.62
0.45
-0.12
-1.00
-2.01
-2.93
-3.62
-3.97
-3.93
-3.53
-2.89
-2.24
-1.87
-2.01
-2.66
-3.54
-4.14
-3.89
-2.37
0.43
4.04
7.66
10.43
11.77
11.57
10.18
8.18
6.11
4.28
2.77
1.55
0.63
0.15
0.27
0.96
1.95
2.73
2.87
2.18
0.86
-0.64
-1.89
-2.63
-2.86
-2.73
-2.42
-2.05
-1.62
-1.11
-0.55
-0.00
0.47
0.83
1.06
1.19
1.20
1.07
0.80
0.38
-0.17
-0.87
-1.69
-2.64
-3.69
-4.72
-5.59
-6.14
-6.26
-5.95
-5.32
-4.56
-3.90
-3.53
-3.54
-3.87
-4.24
-4.17
-3.15
-0.81
2.83
7.22
11.45
14.50
15.75
15.12
13.08
10.35
7.53
4.97
2.77
0.96
-0.39
-1.18
-1.36
-1.09
-0.69
-0.52
-0.77
-1.38
-2.11
-2.66
-2.90
-2.81
-2.52
-2.13
-1.73
-1.31
-0.86
-0.36
0.17
0.68
1.12
1.43
1.59
1.55
1.33
0.97
0.55
0.17
-0.12
-0.33
-0.60
-1.09
-1.95
-3.17
-4.63
-6.10
-7.34
-8.17
-8.49
-8.31
-7.71
-6.81
-5.78
-4.80
-4.04
-3.64
-3.63
-3.84
-3.91
-3.36
-1.77
0.95
4.44
8.02
10.87
12.40
12.43
11.21
9.20
6.85
4.43
2.08
-0.06
-1.76
-2.72
-2.74
-1.92
-0.62
0.56
1.11
0.80
-0.27
-1.72
-3.14
-4.18
-4.69
-4.68
-4.20
-3.38
-2.29
-1.07
0.13
1.09
1.67
1.85
1.71
1.40
1.06
0.76
0.50
0.22
-0.11
-0.54
-1.06
-1.62
-2.14
-2.53
-2.69
-2.59
-2.30
-2.02
-1.98
-2.40
-3.33
-4.58
-5.78
-6.42
-6.03
-4.36
-1.44
2.29
6.14
9.34
11.28
11.69
10.74
8.83
6.50
4.19
2.20
0.66
-0.35
-0.80
-0.70
-0.20
0.44
0.95
1.12
0.92
0.46
-0.12
-0.72
-1.35
-1.98
-2.52
-2.81
-2.72
-2.22
-1.44
-0.66
-0.10
0.14
0.16
0.10
0.10
0.16
0.23
0.28
0.33
0.43
0.58
0.63
0.37
-0.35
-1.48
-2.75
-3.75
-4.19
-4.02
-3.51
-3.08
-3.10
-3.68
-4.70
-5.77
-6.44
-6.27
-4.98
-2.51
0.86
4.57
7.89
10.19
11.15
10.80
9.47
7.61
5.57
3.62
1.94
0.71
0.10
0.23
1.05
2.27
3.48
4.27
4.37
3.79
2.70
1.39
0.14
-0.88
-1.58
-2.01
-2.23
-2.29
-2.19
-1.89
-1.38
-0.73
-0.08
0.37
0.48
0.21
-0.37
-1.07
-1.66
-2.02
-2.10
-2.02
-1.94
-2.02
-2.32
-2.78
-3.26
-3.62
-3.82
-3.89
-3.88
-3.84
-3.76
-3.63
-3.49
-3.44
-3.54
-3.70
-3.62
-2.88
-1.17
1.51
4.74
7.78
9.92
10.71
10.15
8.55
6.41
4.14
2.00
0.13
-1.38
-2.44
-2.92
-2.79
-2.14
-1.23
-0.37
0.20
0.38
0.25
-0.07
-0.44
-0.75
-0.98
-1.10
-1.11
-0.99
-0.73
-0.36
0.06
0.46
0.81
1.14
1.49
1.84
2.10
2.11
1.70
0.84
-0.36
-1.65
-2.73
-3.36
-3.42
-2.96
-2.21
-1.49
-1.11
-1.31
-2.18
-3.61
-5.34
-6.92
-7.88
-7.94
-7.18
-5.99
-4.98
-4.66
-5.22
-6.45
-7.89
-9.05
-9.60
-9.46
-8.69
-7.36
-5.44
-2.89
0.19
3.51
6.59
8.90
10.10
10.14
9.28
7.97
6.66
5.61
4.94
4.61
4.52
4.59
4.73
4.84
4.84
4.66
4.28
3.80
3.36
3.06
2.94
2.91
2.78
2.38
1.62
0.53
-0.73
-1.91
-2.82
-3.31
-3.35
-3.04
-2.52
-1.96
-1.51
-1.31
-1.46
-2.01
-2.77
-3.33
-3.14
-1.72
1.02
4.62
8.17
10.76
11.78
11.17
9.36
6.97
4.53
2.32
0.45
-1.00
-1.92
-2.15
-1.67
-0.66
0.51
1.42
1.76
1.49
0.78
-0.09
-0.89
-1.46
-1.79
-1.90
-1.78
-1.43
-0.81
0.03
0.89
1.50
1.60
1.14
0.26
-0.73
-1.50
-1.89
-1.92
-1.76
-1.61
-1.60
-1.80
-2.17
-2.62
-3.08
-3.43
-3.56
-3.37
-2.86
-2.17
-1.58
-1.42
-1.95
-3.13
-4.63
-5.85
-6.16
-5.10
-2.65
0.82
4.58
7.83
9.95
10.64
9.96
8.26
5.99
3.61
1.49
-0.13
-1.08
-1.30
-0.84
0.13
1.32
2.34
2.87
2.70
1.82
0.45
-1.10
-2.44
-3.25
-3.37
-2.85
-1.91
-0.87
-0.02
0.47
0.61
0.57
0.59
0.82
1.32
1.99
2.64
3.00
2.89
2.21
1.03
-0.44
-1.90
-3.06
-3.72
-3.86
-3.63
-3.26
-2.98
-2.94
-3.21
-3.71
-4.23
-4.43
-3.94
-2.45
0.09
3.36
6.74
9.52
11.10
11.24
10.06
7.92
5.34
2.74
0.50
-1.12
-1.99
-2.06
-1.44
-0.38
0.77
1.64
1.95
1.62
0.73
-0.49
-1.73
-2.69
-3.18
-3.13
-2.62
-1.86
-1.08
-0.45
-0.04
0.19
0.31
0.36
0.34
0.20
-0.09
-0.49
-0.91
-1.24
-1.50
-1.77
-2.22
-2.91
-3.79
-4.64
-5.21
-5.34
-5.02
-4.40
-3.70
-3.14
-2.84
-2.86
-3.17
-3.58
-3.79
-3.36
-1.94
0.52
3.64
6.68
8.85
9.70
9.26
7.98
6.40
4.90
3.51
2.12
0.66
-0.67
-1.49
-1.49
-0.69
0.48
1.38
1.51
0.75
-0.56
-1.86
-2.69
-2.92
-2.71
-2.38
-2.15
-2.02
-1.85
-1.41
-0.65
0.31
1.23
1.85
2.02
1.71
1.05
0.24
-0.53
-1.14
-1.58
-1.95
-2.40
-3.06
-3.94
-4.91
-5.78
-6.34
-6.49
-6.20
-5.58
-4.83
-4.20
-3.88
-4.01
-4.52
-5.20
-5.66
-5.48
-4.30
-1.98
1.29
4.98
8.35
10.72
11.70
11.33
10.04
8.36
6.68
5.13
3.62
2.08
0.63
-0.39
-0.69
-0.25
0.58
1.22
1.18
0.29
-1.22
-2.91
-4.34
-5.27
-5.65
-5.56
-5.09
-4.28
-3.21
-2.03
-0.95
-0.14
0.36
0.64
0.88
1.17
1.49
1.67
1.54
0.99
0.10
-0.94
-1.92
-2.66
-3.09
-3.23
-3.18
-3.07
-3.02
-3.15
-3.49
-3.95
-4.30
-4.22
-3.39
-1.62
0.98
3.98
6.80
8.91
9.98
9.99
9.15
7.75
6.04
4.18
2.32
0.68
-0.41
-0.68
-0.03
1.33
2.89
4.07
4.45
3.94
2.76
1.30
-0.05
-1.07
-1.64
-1.78
-1.54
-1.03
-0.39
0.20
0.54
0.54
0.27
-0.08
-0.25
-0.10
0.33
0.85
1.16
1.07
0.53
-0.37
-1.39
-2.30
-2.89
-3.09
-2.91
-2.49
-2.06
-1.82
-1.92
-2.37
-3.03
-3.55
-3.59
-2.81
-1.05
1.54
4.54
7.28
9.07
9.40
8.09
5.31
1.49
-2.78
-6.96
-10.63
-13.52
-15.45
-16.30
-15.97
-14.48
-11.97
-8.80
-5.46
-2.46
-0.13
1.48
2.58
3.53
4.58
5.78
6.91
7.61
7.68
7.16
6.29
5.43
4.81
4.51
4.42
4.37
4.22
3.94
3.55
3.09
2.53
1.80
0.82
-0.38
-1.68
-2.82
-3.58
-3.80
-3.49
-2.81
-2.02
-1.39
-1.11
-1.19
-1.50
-1.73
-1.55
-0.66
1.09
3.58
6.43
9.07
10.91
11.56
10.92
9.19
6.82
4.27
1.94
0.07
-1.26
-2.08
-2.42
-2.36
-1.99
-1.43
-0.86
-0.47
-0.39
-0.69
-1.32
-2.13
-2.90
-3.45
-3.61
-3.42
-2.96
-2.38
-1.81
-1.30
-0.86
-0.47
-0.15
0.06
0.12
0.00
-0.24
-0.57
-0.92
-1.27
-1.60
-1.88
-2.05
-2.06
-1.88
-1.58
-1.33
-1.32
-1.70
-2.48
-3.55
-4.64
-5.39
-5.43
-4.43
-2.31
0.67
3.91
6.67
8.33
8.65
7.83
6.36
4.76
3.37
2.32
1.58
1.12
1.01
1.31
1.94
2.67
3.15
3.13
2.54
1.54
0.38
-0.73
-1.66
-2.36
-2.82
-3.00
-2.88
-2.47
-1.87
-1.27
-0.87
-0.77
-0.99
-1.41
-1.87
-2.23
-2.41
-2.39
-2.23
-2.07
-2.07
-2.32
-2.77
-3.25
-3.51
-3.34
-2.69
-1.75
-0.82
-0.21
-0.14
-0.62
-1.49
-2.52
-3.44
-3.95
-3.80
-2.74
-0.73
2.04
5.04
7.64
9.25
9.61
8.84
7.35
5.61
3.98
2.54
1.29
0.21
-0.61
-1.00
-0.85
-0.25
0.51
1.08
1.22
0.94
0.46
0.08
-0.03
0.17
0.49
0.71
0.69
0.43
0.12
-0.07
0.01
0.32
0.72
0.99
0.93
0.44
-0.45
-1.55
-2.63
-3.48
-3.97
-4.07
-3.91
-3.64
-3.40
-3.26
-3.22
-3.26
-3.37
-3.56
-3.82
-4.05
-4.11
-3.83
-3.16
-2.19
-1.22
-0.54
-0.36
-0.62
-0.97
-0.90
0.06
2.03
4.71
7.46
9.54
10.45
10.07
8.68
6.72
4.57
2.44
0.39
-1.51
-3.04
-3.89
-3.81
-2.78
-1.15
0.50
1.64
1.98
1.62
0.91
0.26
-0.07
-0.02
0.25
0.55
0.74
0.82
0.86
0.95
1.13
1.37
1.57
1.59
1.34
0.82
0.07
-0.79
-1.64
-2.38
-2.94
-3.33
-3.59
-3.74
-3.80
-3.80
-3.80
-3.86
-4.04
-4.29
-4.47
-4.44
-4.14
-3.61
-3.09
-2.80
-2.85
-3.12
-3.22
-2.63
-0.99
1.75
5.23
8.77
11.64
13.32
13.63
12.75
11.05
8.87
6.49
4.10
1.89
0.07
-1.12
-1.58
-1.40
-0.88
-0.43
-0.36
-0.80
-1.62
-2.50
-3.16
-3.39
-3.14
-2.53
-1.68
-0.75
0.18
1.07
1.91
2.67
3.27
3.64
3.69
3.42
2.88
2.18
1.43
0.70
0.01
-0.70
-1.45
-2.28
-3.17
-4.07
-4.96
-5.83
-6.70
-7.57
-8.32
-8.80
-8.83
-8.29
-7.18
-5.70
-4.20
-3.05
-2.53
-2.69
-3.32
-4.02
-4.26
-3.57
-1.69
1.33
5.09
8.88
11.95
13.67
13.81
12.53
10.27
7.53
4.74
2.14
-0.11
-1.87
-3.02
-3.47
-3.31
-2.77
-2.22
-1.94
-2.07
-2.53
-3.12
-3.63
-3.91
-3.91
-3.61
-2.99
-2.07
-0.95
0.25
1.35
2.23
2.80
3.11
3.20
3.15
2.96
2.62
2.07
1.36
0.55
-0.24
-0.94
-1.59
-2.27
-3.12
-4.15
-5.28
-6.33
-7.06
-7.31
-7.05
-6.35
-5.34
-4.25
-3.30
-2.71
-2.63
-3.01
-3.60
-3.97
-3.64
-2.28
0.16
3.39
6.83
9.79
11.72
12.29
11.51
9.63
7.09
4.35
1.82
-0.29
-1.88
-2.95
-3.48
-3.41
-2.73
-1.52
-0.05
1.32
2.22
2.51
2.25
1.72
1.21
0.92
0.84
0.89
0.95
0.99
1.08
1.30
1.62
2.00
2.29
2.43
2.39
2.18
1.80
1.25
0.57
-0.21
-0.93
-1.52
-1.92
-2.23
-2.60
-3.14
-3.83
-4.51
-4.99
-5.13
-4.95
-4.58
-4.26
-4.15
-4.35
-4.87
-5.65
-6.61
-7.55
-8.23
-8.34
-7.66
-6.23
-4.29
-2.31
-0.70
0.27
0.66
0.65
0.52
0.48
0.58
0.84
1.29
1.95
2.90
4.11
5.40
6.46
7.00
6.83
5.99
4.78
3.62
2.87
2.70
3.02
3.56
4.08
4.42
4.65
4.90
5.28
5.74
6.11
6.19
5.84
5.03
3.85
2.42
0.88
-0.62
-1.92
-2.88
-3.41
-3.54
-3.44
-3.34
-3.48
-3.98
-4.77
-5.61
-6.23
-6.38
-5.97
-5.06
-3.86
-2.66
-1.71
-1.17
-0.99
-0.94
-0.63
0.35
2.24
4.97
8.09
10.92
12.79
13.29
12.37
10.35
7.76
5.12
2.80
0.99
-0.32
-1.21
-1.77
-2.09
-2.24
-2.28
-2.31
-2.44
-2.70
-3.08
-3.49
-3.77
-3.80
-3.49
-2.86
-2.01
-1.05
-0.03
1.00
2.01
2.91
3.61
3.99
4.05
3.83
3.44
2.98
2.45
1.79
0.94
-0.12
-1.34
-2.59
-3.78
-4.81
-5.66
-6.29
-6.67
-6.73
-6.46
-5.95
-5.37
-4.93
-4.69
-4.57
-4.25
-3.39
-1.74
0.70
3.61
6.50
8.85
10.32
10.82
10.46
9.44
7.95
6.16
4.21
2.29
0.63
-0.55
-1.13
-1.16
-0.81
-0.33
0.04
0.15
-0.07
-0.59
-1.33
-2.20
-3.05
-3.71
-3.98
-3.77
-3.03
-1.91
-0.63
0.51
1.30
1.64
1.62
1.41
1.21
1.10
1.06
0.98
0.75
0.30
-0.39
-1.30
-2.40
-3.64
-4.89
-6.00
-6.75
-6.98
-6.63
-5.85
-4.92
-4.18
-3.92
-4.21
-4.83
-5.34
-5.17
-3.89
-1.40
2.00
5.65
8.79
10.89
11.77
11.56
10.57
9.04
7.11
4.85
2.48
0.34
-1.15
-1.75
-1.55
-0.97
-0.52
-0.58
-1.23
-2.23
-3.28
-4.14
-4.72
-5.02
-5.06
-4.80
-4.20
-3.30
-2.22
-1.16
-0.29
0.32
0.71
0.94
1.09
1.16
1.12
0.94
0.61
0.17
-0.32
-0.85
-1.41
-1.99
-2.58
-3.12
-3.54
-3.75
-3.68
-3.30
-2.67
-1.97
-1.41
-1.20
-1.42
-1.99
-2.59
-2.84
-2.33
-0.90
1.29
3.82
6.08
7.56
7.97
7.34
5.92
4.07
2.12
0.32
-1.13
-2.09
-2.42
-2.08
-1.16
0.05
1.14
1.80
1.86
1.42
0.69
-0.08
-0.73
-1.20
-1.50
-1.64
-1.60
-1.38
-1.03
-0.69
-0.45
-0.35
-0.29
-0.15
0.16
0.53
0.75
0.55
-0.21
-1.45
-2.84
-4.00
-4.58
-4.48
-3.83
-2.97
-2.29
-2.06
-2.36
-3.07
-3.86
-4.34
-4.14
-2.99
-0.86
1.99
5.07
7.71
9.37
9.78
9.03
7.49
5.62
3.76
2.11
0.70
-0.45
-1.26
-1.62
-1.49
-0.95
-0.23
0.41
0.83
1.01
1.04
1.02
0.98
0.89
0.67
0.28
-0.24
-0.81
-1.32
-1.71
-1.98
-2.13
-2.18
-2.13
-1.99
-1.80
-1.59
-1.37
-1.15
-0.92
-0.69
-0.56
-0.58
-0.73
-0.91
-0.93
-0.67
-0.10
0.63
1.29
1.66
1.66
1.35
0.90
0.50
0.39
0.74
1.72
3.36
5.47
7.64
9.35
10.12
9.80
8.53
6.77
5.03
3.69
2.87
2.51
2.45
2.57
2.82
3.15
3.47
3.64
3.52
3.05
2.29
1.37
0.43
-0.48
-1.34
-2.19
-2.98
-3.62
-3.99
-4.01
-3.74
-3.34
-3.07
-3.17
-3.84
-5.15
-7.11
-9.56
-12.27
-14.90
-17.07
-18.40
-18.66
-17.79
-15.96
-13.46
-10.68
-7.90
-5.30
-2.94
-0.82
1.02
2.47
3.40
3.74
3.53
2.99
2.43
2.23
2.65
3.87
5.86
8.37
10.96
13.11
14.39
14.53
13.52
11.61
9.13
6.49
4.02
1.99
0.53
-0.27
-0.50
-0.31
0.05
0.33
0.39
0.19
-0.22
-0.77
-1.38
-1.97
-2.42
-2.60
-2.39
-1.79
-0.92
0.01
0.80
1.34
1.66
1.83
1.89
1.80
1.43
0.69
-0.39
-1.61
-2.75
-3.60
-4.04
-4.10
-3.84
-3.38
-2.89
-2.52
-2.44
-2.73
-3.31
-3.98
-4.39
-4.15
-3.00
-0.94
1.75
4.54
6.86
8.29
8.66
8.07
6.81
5.24
3.64
2.23
1.14
0.46
0.24
0.43
0.91
1.40
1.64
1.46
0.89
0.13
-0.54
-0.90
-0.88
-0.53
-0.02
0.47
0.81
0.94
0.86
0.62
0.27
-0.12
-0.49
-0.80
-1.00
-1.08
-1.04
-0.95
-0.90
-1.04
-1.51
-2.31
-3.32
-4.23
-4.75
-4.71
-4.19
-3.47
-2.91
-2.71
-2.89
-3.29
-3.66
-3.76
-3.43
-2.56
-1.09
0.93
3.32
5.67
7.52
8.52
8.54
7.75
6.52
5.22
4.08
3.15
2.35
1.60
0.96
0.56
0.50
0.78
1.24
1.68
1.89
1.78
1.39
0.80
0.11
-0.61
-1.30
-1.89
-2.31
-2.48
-2.38
-2.04
-1.53
-0.96
-0.40
0.05
0.30
0.26
-0.09
-0.69
-1.33
-1.79
-1.93
-1.78
-1.54
-1.50
-1.85
-2.61
-3.58
-4.49
-5.11
-5.34
-5.20
-4.79
-4.20
-3.51
-2.83
-2.33
-2.14
-2.28
-2.54
-2.54
-1.84
-0.21
2.20
4.89
7.17
8.53
8.78
8.05
6.73
5.16
3.53
1.93
0.40
-0.93
-1.83
-2.07
-1.59
-0.53
0.76
1.85
2.39
2.22
1.39
0.15
-1.21
-2.37
-3.09
-3.28
-2.95
-2.26
-1.42
-0.64
-0.05
0.39
0.75
1.13
1.48
1.65
1.41
0.63
-0.62
-2.06
-3.35
-4.22
-4.62
-4.67
-4.60
-4.53
-4.44
-4.25
-3.91
-3.53
-3.29
-3.38
-3.77
-4.16
-4.08
-3.09
-0.94
2.17
5.72
9.01
11.42
12.61
12.56
11.47
9.60
7.22
4.55
1.90
-0.34
-1.77
-2.14
-1.53
-0.40
0.61
0.96
0.44
-0.75
-2.22
-3.57
-4.57
-5.15
-5.33
-5.09
-4.43
-3.39
-2.12
-0.90
0.00
0.44
0.44
0.17
-0.14
-0.29
-0.24
-0.03
0.16
0.15
-0.18
-0.79
-1.51
-2.05
-2.22
-1.91
-1.20
-0.24
0.83
1.94
3.02
3.96
4.55
4.52
3.71
2.21
0.44
-0.97
-1.41
-0.55
1.45
4.07
6.56
8.38
9.28
9.32
8.68
7.52
5.83
3.59
0.90
-1.97
-4.63
-6.73
-8.17
-9.09
-9.75
-10.38
-10.99
-11.40
-11.40
-10.84
-9.72
