1528332301.00
64.000000
-0.00
-0.00
-0.00
-0.00
-0.00
-0.00
-0.00
-0.00
-0.00
-0.00
0.00
0.01
0.01
-0.00
-0.03
-0.05
-0.05
0.00
0.13
0.36
0.66
1.01
1.37
1.72
2.06
2.40
2.79
3.24
3.80
4.42
5.06
5.66
6.20
6.68
7.15
7.68
8.31
9.14
10.09
11.04
11.88
12.56
13.14
13.76
14.65
15.96
17.91
20.32
22.90
25.38
27.58
29.57
31.68
34.32
37.81
42.54
48.15
54.10
59.83
64.97
69.58
74.14
79.34
85.71
93.76
103.00
112.62
121.73
129.77
136.75
143.30
150.75
157.77
166.64
177.95
191.79
206.97
220.57
228.25
225.36
208.53
176.87
132.76
80.05
23.07
-34.94
-92.44
-149.16
-205.23
-260.37
-313.74
-363.87
-409.83
-450.91
-486.50
-515.74
-537.23
-549.22
-549.96
-538.37
-514.21
-478.67
-433.88
-382.45
-327.02
-269.84
-212.63
-156.66
-102.95
-52.37
-5.90
35.58
71.43
101.35
125.50
144.38
158.69
169.15
176.37
180.75
182.57
182.07
179.51
175.23
169.65
163.18
156.15
148.81
141.30
133.69
126.02
118.33
110.69
103.16
95.80
88.68
81.83
75.25
68.95
62.95
57.25
51.86
46.78
42.03
37.59
33.45
29.61
26.07
22.81
19.83
17.11
14.67
12.48
10.54
8.83
7.35
6.07
4.97
4.05
3.27
2.62
2.09
1.65
1.30
1.01
0.79
0.61
0.48
0.37
0.29
0.22
0.18
0.14
0.11
0.09
0.08
0.07
0.06
0.05
0.05
0.04
0.04
0.05
0.05
0.07
0.08
0.10
0.13
0.17
0.20
0.24
0.28
0.33
0.38
0.43
0.47
0.52
0.57
0.62
0.68
0.73
0.80
0.87
0.94
1.02
1.11
1.22
1.33
1.46
1.60
1.76
1.94
2.14
2.36
2.60
2.87
3.17
3.49
3.85
4.24
4.66
5.12
5.62
6.17
6.77
7.40
8.08
8.76
9.46
10.16
10.89
11.66
12.51
13.45
14.48
15.60
16.76
17.95
19.13
20.31
21.46
22.57
23.56
24.28
24.56
24.19
22.98
20.84
17.77
13.88
9.33
4.35
-0.86
-6.14
-11.36
-16.39
-21.04
-25.08
-28.22
-30.24
-31.10
-30.98
-30.26
-29.47
-29.04
-29.21
-29.88
-30.71
-31.25
-31.19
-30.56
-29.70
-29.17
-29.45
-30.68
-32.57
-34.47
-35.69
-35.77
-34.70
-32.97
-31.40
-30.84
-32.00
-35.17
-40.01
-45.44
-49.64
-50.44
-46.00
-35.68
-20.43
-2.78
13.89
26.53
33.39
34.60
31.92
27.89
24.68
23.48
24.29
26.32
28.64
30.71
32.48
34.26
36.12
37.63
37.99
36.54
33.14
28.37
23.20
17.81
12.32
6.52
-0.01
-7.40
-15.28
-22.82
-29.06
-33.29
-35.27
-35.13
-33.31
-30.53
-27.52
-25.04
-23.61
-23.37
-23.89
-24.28
-23.47
-20.71
-15.95
-9.84
-3.43
2.25
6.61
9.55
11.41
12.62
13.40
13.69
13.24
11.95
10.05
8.21
7.35
8.40
11.93
17.97
25.89
34.68
43.31
51.00
57.35
62.15
65.27
66.46
65.37
61.73
55.58
47.43
38.22
29.01
20.66
13.72
8.34
4.43
1.79
0.31
-0.03
0.72
2.27
4.25
6.56
9.62
14.42
22.03
33.03
46.86
61.65
74.48
82.59
84.55
80.66
72.67
62.41
51.09
39.09
26.30
12.52
-1.76
-15.33
-26.95
-35.76
-41.81
-45.13
-45.00
-40.11
-29.82
-14.84
2.51
18.47
29.53
33.21
29.40
21.41
14.65
13.30
17.44
23.74
26.06
23.17
15.49
3.36
-14.57
-39.23
-73.48
-119.16
-174.62
-233.91
-286.60
-321.10
-328.43
-305.18
-254.33
-183.80
-103.29
-22.02
51.09
108.97
146.54
161.60
155.67
134.29
105.60
79.15
65.30
67.59
81.73
100.02
116.68
129.56
138.68
144.32
146.44
144.84
137.95
125.06
106.98
85.35
61.49
35.90
8.28
-22.22
-48.93
-70.13
-85.92
-96.86
-103.30
-105.56
-104.08
-99.41
-92.20
-83.18
-74.59
-67.93
-63.64
-61.30
-60.13
-59.15
-57.45
-54.33
-49.55
-44.55
-40.76
-39.13
-39.89
-42.56
-45.96
-48.62
-49.45
-47.92
-45.10
-42.40
-41.04
-41.82
-45.24
-51.57
-60.53
-70.66
-78.82
-80.86
-72.70
-52.58
-22.54
11.69
42.83
64.95
75.87
77.31
73.21
67.46
62.08
57.09
51.61
45.27
38.77
33.50
30.39
29.27
28.93
27.80
24.61
19.22
12.47
5.55
-0.12
-3.95
-6.21
-7.86
-10.02
-13.52
-18.50
-24.48
-30.63
-36.14
-40.63
-44.14
-47.02
-49.68
-52.29
-54.71
-56.40
-56.72
-55.05
-51.08
-44.74
-36.44
-26.58
-15.73
-4.62
6.01
15.44
23.14
28.76
32.41
34.36
35.03
34.75
33.69
31.83
29.09
25.59
21.76
18.55
16.87
17.29
19.75
23.47
27.15
29.39
29.34
27.11
24.02
21.64
21.29
23.48
27.67
32.54
36.86
40.01
42.47
46.03
52.42
62.98
78.46
99.07
124.35
152.62
180.41
199.91
205.51
193.82
165.77
127.06
86.48
52.41
29.67
18.33
14.75
14.67
14.68
13.28
10.18
5.02
-2.91
-15.14
-32.07
-52.47
-73.53
-92.64
-108.23
-120.48
-131.07
-142.09
-154.89
-169.33
-184.16
-197.29
-207.33
-214.11
-218.82
-223.66
-231.31
-244.00
-262.75
-286.43
-310.99
-330.07
-336.68
-325.85
-297.05
-254.92
-207.49
-163.37
-128.60
-104.89
-90.20
-80.68
-72.87
-64.66
-57.28
-51.43
-46.98
-42.83
-37.59
-30.53
-21.99
-13.26
-6.11
-1.80
-0.26
-0.37
-0.35
1.55
6.43
14.34
24.37
34.99
44.61
52.34
58.01
62.28
66.28
71.29
78.23
87.28
97.87
108.84
119.03
127.50
134.00
139.29
144.95
153.34
166.89
186.95
212.49
239.46
261.42
271.50
264.88
240.67
202.21
155.88
109.01
67.95
36.99
18.28
12.30
18.30
34.95
60.54
93.64
133.92
181.92
237.77
299.65
362.34
417.68
457.46
476.40
474.39
456.70
431.56
405.97
383.82
365.05
347.16
328.43
308.64
288.89
270.39
252.69
232.60
206.43
171.18
125.33
69.78
6.26
-63.03
-134.94
-205.09
-268.62
-319.71
-354.05
-376.73
-392.99
-409.20
-430.16
-456.24
-479.76
-497.36
-507.81
-511.72
-510.60
-505.19
-495.07
-479.19
-456.87
-428.84
-398.17
-368.06
-341.31
-319.42
-301.48
-285.34
-268.39
-248.57
-225.14
-199.47
-173.36
-148.62
-126.51
-107.02
-89.43
-72.86
-56.61
-40.65
-25.85
-12.88
-1.93
7.60
17.13
28.36
42.73
60.96
82.94
107.72
134.35
162.25
191.40
222.33
255.98
293.39
335.26
381.30
429.47
475.88
515.22
541.98
551.99
543.56
517.69
477.41
426.66
369.48
309.64
250.76
196.35
149.52
112.29
85.11
66.96
55.71
48.84
43.87
38.41
30.22
17.97
1.97
-15.46
-30.86
-41.37
-46.57
-48.86
-52.18
-59.52
-71.12
-84.34
-95.18
-100.37
-98.67
-90.61
-77.23
-59.14
-36.52
-10.06
18.30
45.43
68.22
84.78
94.87
99.29
98.89
94.26
85.83
74.26
60.39
44.58
26.03
2.67
-27.95
-67.04
-113.50
-163.96
-213.90
-259.15
-296.79
-325.44
-345.02
-356.37
-360.84
-359.70
-353.58
-342.01
-323.68
-297.56
-264.17
-226.21
-187.94
-153.33
-124.09
-98.99
-74.58
-47.06
-14.30
23.11
62.30
99.12
129.38
149.81
159.11
158.70
152.09
143.20
133.83
122.26
103.79
73.91
32.29
-14.90
-56.41
-80.39
-79.57
-54.18
-11.34
38.54
85.51
122.25
144.50
150.94
143.41
127.64
112.74
108.32
120.37
148.22
184.42
218.42
241.70
251.40
250.54
244.98
239.41
235.14
230.40
222.66
210.55
195.04
178.61
163.78
151.89
142.71
134.66
125.73
114.24
99.69
82.85
65.07
47.52
30.22
11.71
-10.55
-39.26
-76.48
-123.37
-179.93
-244.66
-314.12
-382.20
-440.67
-480.88
-496.36
-485.49
-452.55
-406.50
-357.80
-314.89
-281.88
-258.77
-243.17
-232.33
-223.96
-215.97
-205.57
-188.99
-162.53
-123.99
-73.75
-14.28
50.83
117.84
182.98
241.82
288.97
319.08
329.15
320.29
298.29
271.73
248.30
232.06
222.35
215.09
205.50
190.57
169.87
144.83
117.47
89.30
61.05
33.07
5.60
-21.44
-48.75
-77.78
-109.96
-144.99
-179.75
-208.25
-223.77
-221.68
-201.97
-169.48
-132.08
-97.25
-69.30
-48.42
-31.55
-14.23
7.80
37.73
77.21
125.77
180.26
234.75
281.50
313.88
328.34
325.63
310.43
289.29
268.32
251.67
241.38
237.89
241.41
251.69
267.98
288.73
311.52
333.57
352.09
364.62
368.58
362.27
343.62
311.15
264.57
205.43
137.40
65.74
-3.55
-65.87
-115.91
-151.55
-172.66
-180.68
-178.18
-168.40
-155.07
-142.46
-136.94
-139.79
-153.30
-177.68
-211.55
-252.89
-300.27
-353.03
-409.99
-471.07
-526.54
-569.49
-595.33
-604.23
-600.93
-591.52
-579.21
-562.08
-538.40
-497.20
-436.27
-358.93
-272.17
-182.65
-93.77
-6.06
107.01
206.59
289.94
347.87
374.46
370.52
343.67
305.57
267.08
234.37
203.44
175.32
145.53
112.18
77.71
48.27
31.07
30.97
47.71
72.64
100.96
124.24
137.09
138.03
128.59
111.37
88.26
59.37
22.73
-17.65
-57.80
-92.42
-116.77
-128.45
-127.79
-117.23
-102.28
-88.62
-77.27
-67.05
-54.85
-37.79
-15.06
11.67
38.77
57.54
60.49
45.20
14.51
-24.93
-66.17
-104.63
-138.53
-168.47
-203.15
-250.10
-312.47
-387.46
-468.44
-548.71
-623.33
-688.94
-743.26
-794.39
-850.89
-918.37
-996.38
-1079.15
-1158.70
-1227.59
-1279.98
-1255.62
-1117.59
-863.73
-533.82
-188.28
123.13
376.13
567.71
705.67
800.72
853.92
866.43
843.27
796.00
739.67
687.46
647.02
620.61
606.65
594.96
576.24
545.87
506.04
463.23
423.93
391.82
367.55
349.85
332.63
310.74
282.29
249.66
217.70
191.05
172.25
161.56
157.62
156.34
153.87
147.94
138.60
127.39
116.15
106.21
98.33
91.98
85.71
78.13
68.25
56.00
42.04
27.46
13.46
0.78
-10.04
-18.76
-25.47
-30.58
-34.45
-37.35
-39.26
-40.01
-39.78
-38.82
-37.58
-36.71
-36.86
-38.52
-42.11
-47.89
-55.83
-65.56
-75.44
-82.94
-85.31
-80.98
-70.30
-55.72
-40.90
-29.19
-22.66
-20.80
-21.31
-21.15
-17.94
-10.63
0.52
14.20
31.02
49.47
67.64
83.47
95.23
101.90
103.17
99.57
92.28
82.69
71.58
59.19
44.86
27.34
5.48
-20.81
-50.11
-79.76
-106.71
-129.06
-146.17
-158.83
-168.51
-176.69
-184.36
-192.08
-200.42
-210.36
-223.39
-240.71
-262.77
-288.87
-317.11
-344.68
-368.24
-384.74
-392.13
-390.00
-379.46
-362.83
-342.80
-321.65
-300.72
-280.45
-260.73
-241.32
-222.06
-202.80
-183.19
-162.66
-140.55
-116.55
-90.92
-64.58
-38.83
-15.02
5.86
23.44
37.97
50.14
60.69
70.25
79.14
87.38
94.88
101.58
107.56
113.00
118.27
123.64
129.34
135.53
142.25
149.59
157.54
166.10
175.18
184.54
193.67
201.80
207.99
211.18
210.37
204.74
193.88
177.84
157.12
132.68
105.82
78.12
51.25
26.81
6.24
-9.36
-19.33
-23.53
-22.29
-16.41
-7.03
4.49
16.74
28.30
37.89
44.46
47.11
45.34
38.94
28.04
13.04
-5.37
-26.31
-48.75
-71.59
-93.76
-114.20
-132.04
-146.64
-157.56
-164.63
-167.95
-167.76
-164.51
-158.72
-150.94
-141.78
-131.81
-121.54
-111.45
-101.95
-93.33
-85.80
-79.51
-74.47
-70.64
-67.90
-66.02
-64.77
-63.92
-63.23
-62.55
-61.78
-60.88
-59.86
-58.78
-57.67
-56.60
-55.54
-54.42
-53.07
-51.29
-48.84
-45.50
-41.04
-35.34
-28.37
-20.25
-11.19
-1.46
8.61
18.65
28.36
37.52
46.00
53.81
61.05
67.93
74.65
81.36
88.96
98.04
108.66
120.11
131.24
140.93
148.42
153.15
155.22
155.75
155.77
155.86
155.99
155.73
154.75
152.93
150.28
147.22
146.14
148.86
155.96
166.40
178.10
189.26
198.82
205.99
211.25
220.51
238.43
266.39
301.41
337.94
371.11
398.37
417.99
432.00
453.61
493.24
554.11
630.03
708.78
779.13
833.97
867.81
882.95
900.11
936.22
997.69
1077.18
1158.85
1229.75
1283.80
1317.60
1339.17
1379.17
1461.40
1593.85
1764.89
1950.37
2129.74
2291.04
2426.09
2398.38
2122.38
1588.47
883.39
142.34
-524.14
-1060.14
-1416.82
-1643.51
-1783.05
-1842.49
-1823.00
-1731.80
-1588.32
-1432.28
-1290.71
-1193.44
-1158.16
-1178.50
-1221.16
-1253.64
-1256.22
-1220.47
-1163.83
-1102.60
-1046.93
-1003.08
-965.63
-918.61
-849.32
-753.30
-638.49
-521.14
-414.22
-325.77
-259.64
-212.47
-177.13
-150.81
-135.42
-134.91
-151.61
-180.18
-211.27
-236.23
-248.60
-246.07
-231.27
-209.28
-184.99
-162.03
-141.03
-122.07
-105.75
-92.47
-82.58
-75.72
-70.76
-66.12
-60.70
-53.80
-45.83
-37.80
-30.99
-26.12
-23.03
-20.86
-18.40
-14.77
-9.53
-2.84
4.66
12.23
19.50
26.47
33.41
40.52
47.55
53.97
58.80
60.98
59.69
54.59
45.87
34.16
20.61
6.23
-8.00
-21.23
-32.74
-41.97
-48.65
-52.86
-55.07
-55.91
-56.20
-56.48
-56.95
-57.38
-57.34
-56.59
-55.26
-53.90
-53.07
-53.47
-55.29
-58.37
-62.21
-66.21
-69.96
-73.23
-76.14
-78.25
-79.87
-80.85
-81.47
-82.09
-82.52
-81.75
-77.90
-68.93
-53.61
-32.79
-9.44
12.12
28.39
38.31
44.07
50.16
60.74
77.32
97.33
115.18
124.13
120.69
105.38
82.32
57.25
34.65
16.77
3.65
-5.24
-9.93
-9.79
-5.48
-0.06
1.56
-4.72
-18.97
-35.84
-46.24
-41.76
-19.10
17.33
57.27
89.26
104.59
101.93
85.64
62.33
37.77
15.45
-3.27
-18.02
-28.61
-35.48
-39.60
-42.64
-46.34
-51.20
-56.07
-58.41
-55.48
-45.04
-25.99
1.04
32.50
62.19
82.14
87.82
79.27
62.66
48.24
45.67
58.94
84.22
111.56
130.15
132.63
119.87
98.27
75.60
57.26
44.29
33.97
21.75
3.47
-22.57
-55.58
-92.22
-127.37
-155.46
-172.41
-176.77
-168.41
-151.26
-129.01
-103.90
-77.35
-50.91
-27.06
-8.87
1.32
3.32
-0.68
-6.45
-9.97
-9.14
-4.59
0.99
4.45
3.79
-0.86
-7.69
-13.72
-16.33
-14.66
-9.71
-3.73
0.83
1.90
-1.59
-9.59
-20.08
-29.34
-32.72
-26.43
-9.25
16.32
44.47
68.55
83.36
87.50
82.97
73.43
61.93
49.13
35.21
19.66
3.54
-11.40
-22.31
-27.12
-25.50
-18.93
-9.48
1.23
12.84
26.48
43.22
63.40
85.49
106.11
120.97
126.57
121.48
105.64
83.56
59.84
38.48
21.84
10.68
4.52
1.20
-1.89
-7.77
-18.39
-34.38
-53.63
-71.72
-83.60
-86.15
-79.50
-66.44
-50.92
-35.25
-20.63
-6.62
6.01
14.70
15.93
6.63
-13.95
-43.93
-78.44
-111.21
-134.85
-142.45
-129.36
-95.49
-47.03
5.33
46.44
66.14
62.81
43.65
20.31
2.90
-4.48
-4.21
-1.87
-2.05
-4.91
-7.52
-6.54
-1.05
6.81
13.07
14.25
9.49
0.54
-8.78
-14.66
-15.23
-11.11
-4.94
-0.08
0.89
-2.67
-9.60
-17.20
-22.70
-24.53
-22.91
-19.39
-16.05
-14.64
-15.64
-18.62
-22.61
-26.79
-30.43
-32.48
-30.88
-23.12
-7.42
16.08
44.34
72.48
95.47
109.90
114.97
112.11
103.66
91.00
76.07
59.70
42.86
26.96
13.53
3.58
-2.85
-6.47
-8.41
-9.34
-9.85
-10.01
-9.65
-8.80
-7.58
-6.30
-5.20
-4.35
-3.44
-2.32
-0.99
0.29
0.93
0.51
-1.44
-4.68
-8.63
-12.29
-14.57
-14.32
-10.34
-1.98
10.37
24.64
37.39
44.66
43.43
33.36
17.08
-0.84
-15.64
-24.06
-25.27
-20.40
-11.68
-1.15
9.49
19.10
26.94
32.67
36.60
39.55
42.54
45.95
48.92
49.60
45.50
35.08
18.68
-0.96
-19.87
-34.40
-42.70
-45.53
-45.81
-46.96
-51.39
-59.68
-69.97
-79.66
-85.97
-85.96
-76.99
-57.34
-28.01
6.00
35.96
52.12
48.18
25.58
-5.78
-31.55
-40.09
-28.79
-5.67
15.05
20.78
7.21
-19.48
-47.24
-64.90
-67.55
-57.81
-42.58
-27.73
-15.04
-2.02
15.35
38.51
64.58
87.36
100.24
99.18
84.56
60.71
34.17
10.85
-5.70
-15.82
-22.35
-29.32
-39.47
-53.47
-69.77
-85.82
-98.90
-106.72
-107.82
-101.58
-88.12
-68.46
-44.89
-21.24
-2.18
8.09
7.81
-0.94
-12.90
-21.67
-22.70
-15.26
-2.48
10.75
20.32
24.84
25.48
24.51
23.34
21.64
17.90
11.08
2.15
-6.67
-12.90
-15.58
-15.44
-14.69
-15.97
-20.59
-28.13
-36.49
-42.37
-42.24
-33.34
-14.66
11.80
41.03
65.97
79.48
78.01
63.27
41.45
20.00
4.60
-2.68
-2.60
3.64
15.72
34.43
59.58
88.20
114.08
129.89
130.18
113.22
83.38
47.54
13.18
-14.63
-32.67
-39.36
-34.33
-18.53
5.01
30.96
52.32
62.47
58.48
42.83
22.15
4.12
-5.87
-7.07
-3.04
0.73
0.01
-6.63
-18.10
-32.30
-46.73
-58.90
-66.63
-68.54
-65.18
-59.25
-54.78
-54.66
-59.40
-66.37
-70.98
-69.98
-62.97
-52.09
-40.15
-28.66
-16.89
-3.57
11.48
26.38
37.56
41.52
37.15
26.10
12.98
4.35
6.05
20.75
46.66
77.56
104.56
119.78
119.21
103.37
78.54
52.36
30.80
16.09
6.24
-3.52
-18.21
-40.52
-69.47
-100.33
-126.67
-142.57
-145.05
-134.76
-116.90
-97.40
-80.31
-66.48
-54.11
-41.47
-28.38
-16.75
-9.43
-8.39
-13.30
-22.05
-32.04
-41.03
-47.51
-49.95
-46.29
-34.57
-14.23
12.93
42.63
69.35
88.69
98.88
101.18
98.68
94.26
89.44
84.43
79.07
73.75
69.58
67.89
68.45
69.88
69.93
66.42
58.03
45.12
29.29
12.83
-2.17
-14.43
-23.62
-30.24
-35.12
-39.00
-42.09
-44.21
-45.07
-44.47
-42.57
-39.82
-36.82
-33.95
-31.29
-28.41
-24.62
-19.23
-12.54
-4.23
5.31
15.35
25.08
33.84
41.18
46.92
51.03
54.45
56.43
56.43
54.13
49.58
43.22
35.90
28.84
23.35
20.48
20.83
24.11
29.46
35.62
41.33
45.63
48.01
48.38
45.63
40.85
34.48
26.71
17.74
8.18
-0.96
-8.35
-12.76
-13.45
-10.50
-5.21
0.62
5.49
8.48
9.72
10.10
10.71
12.59
16.60
23.06
31.73
41.15
48.15
48.26
37.34
13.78
-19.88
-57.43
-91.47
-115.92
-128.25
-129.93
-124.98
-117.63
-110.11
-102.51
-93.83
-83.45
-71.78
-60.05
-49.50
-39.75
-30.77
-21.44
-10.35
3.04
18.20
33.79
47.80
58.18
63.64
63.63
58.70
50.21
39.53
27.60
14.82
1.31
-13.25
-28.93
-45.06
-60.37
-73.66
-84.88
-94.83
-103.92
-111.06
-113.14
-106.23
-87.80
-59.43
-24.83
9.53
37.93
58.12
71.64
81.58
89.51
93.84
90.77
77.19
54.12
27.09
3.92
-8.97
-9.53
-0.59
12.43
23.95
31.24
33.72
31.84
25.67
14.05
-4.29
-28.70
-55.00
-76.41
-85.68
-78.67
-56.87
-27.13
1.09
19.93
26.45
23.01
15.17
8.38
5.19
4.95
5.44
5.13
4.04
3.06
3.12
4.11
5.57
7.42
10.26
15.30
23.26
33.57
44.43
53.66
59.86
63.39
66.00
69.45
73.82
76.76
74.15
62.18
39.71
9.49
-22.41
-48.80
-63.91
-66.66
-60.14
-49.42
-38.86
-30.09
-22.35
-13.97
-4.35
5.42
13.04
16.69
16.36
13.72
11.48
12.15
16.88
24.93
34.31
42.51
47.63
49.23
47.87
44.86
41.33
37.71
33.15
26.51
16.45
2.41
-14.73
-33.91
-53.99
-73.98
-92.62
-108.22
-118.49
-121.65
-118.35
-110.07
-100.73
-94.35
-92.85
-94.84
-96.24
-92.26
-79.62
-59.47
-35.15
-11.31
8.34
21.74
28.48
28.20
20.83
7.08
-10.27
-25.80
-33.64
-29.19
-11.61
15.68
46.36
74.14
94.99
108.09
115.38
118.91
119.57
116.62
108.89
95.30
77.92
59.58
42.85
29.16
18.09
8.19
-2.07
-13.36
-25.25
-36.28
-45.11
-50.62
-52.03
-48.67
-40.24
-27.55
-13.21
-1.65
2.48
-4.04
-20.81
-42.82
-62.85
-74.64
-75.82
-68.24
-56.63
-45.68
-38.10
-34.07
-32.53
-32.96
-35.78
-41.03
-46.76
-48.69
-41.57
-22.37
8.09
44.64
79.66
106.36
121.54
126.26
124.29
120.18
115.87
111.67
106.89
100.81
93.38
84.97
75.72
64.43
50.93
34.85
16.73
-1.63
-17.90
-30.09
-37.37
-40.30
-40.91
-41.21
-42.94
-46.26
-49.77
-51.37
-48.78
-40.29
-25.27
-4.77
18.31
38.94
51.11
50.62
36.65
12.87
-13.80
-35.96
-48.97
-52.52
-50.22
-46.93
-45.65
-46.53
-47.32
-45.67
-40.60
-33.37
-26.29
-21.49
-19.71
-20.33
-22.35
-24.69
-26.43
-26.20
-22.03
-12.08
4.10
24.56
45.16
60.69
67.69
65.60
56.74
44.72
32.45
21.11
10.53
0.29
-8.93
-15.27
-17.01
-13.75
-7.14
-0.31
3.48
2.27
-3.56
-11.48
-17.86
-19.94
-16.99
-10.78
-4.94
-3.19
-7.55
-17.36
-29.46
-39.36
-43.27
-39.36
-27.97
-11.36
7.18
23.86
34.85
37.02
29.88
16.26
2.05
-5.93
-3.23
9.86
27.85
42.42
46.34
36.69
16.37
-7.05
-24.71
-30.10
-21.51
-2.17
21.55
43.15
57.92
64.72
65.32
62.21
56.72
48.75
37.58
23.26
7.85
-5.46
-13.57
-15.17
-11.11
-3.92
3.18
6.99
4.91
-4.60
-21.51
-43.57
-66.73
-85.94
-97.28
-99.37
-93.55
-83.04
-70.83
-58.68
-46.82
-35.09
-23.79
-14.64
-9.98
-11.21
-17.25
-24.00
-25.71
-17.26
2.91
31.47
61.17
83.60
93.36
89.96
77.60
62.46
49.54
40.63
34.65
29.15
22.91
16.77
12.84
13.02
17.48
24.44
30.86
33.93
32.19
26.32
18.53
11.34
6.69
5.56
8.08
13.54
20.36
25.87
26.70
19.76
3.93
-18.69
-42.91
-62.27
-71.99
-70.95
-61.84
-49.24
-37.17
-27.35
-19.35
-11.71
-3.92
3.24
8.26
9.91
8.23
4.43
0.25
-2.76
-4.13
-4.50
-5.08
-7.02
-10.74
-15.58
-20.11
-22.57
-21.62
-16.84
-8.93
0.56
9.73
17.07
22.04
24.96
26.75
28.42
30.46
32.45
33.04
30.38
23.05
10.84
-5.02
-22.17
-37.66
-49.13
-55.30
-56.46
-54.15
-50.22
-46.31
-43.70
-43.33
-45.59
-49.91
-54.26
-54.69
-48.02
-32.57
-9.64
16.54
40.41
57.61
66.63
68.87
67.25
64.34
61.16
57.42
52.58
46.76
41.15
37.49
37.10
40.24
45.71
50.71
51.40
44.13
27.06
1.58
-27.37
-52.68
-67.74
-68.44
-55.92
-34.77
-11.00
10.31
26.12
35.95
40.15
39.23
33.58
23.52
9.73
-6.78
-24.69
-42.78
-60.00
-75.63
-89.49
-102.25
-115.45
-127.99
-136.67
-136.36
-122.52
-94.48
-57.55
-21.69
2.42
8.51
-2.08
-21.83
-41.51
-55.24
-62.69
-67.09
-71.10
-73.62
-69.98
-55.30
-28.93
4.07
34.92
55.59
62.58
58.23
48.63
40.42
37.29
38.81
41.74
42.33
38.33
29.86
18.51
6.20
-5.73
-16.97
-28.21
-40.17
-53.13
-66.73
-79.67
-90.59
-98.51
-103.19
-105.25
-105.99
-106.77
-108.50
-111.63
-115.63
-119.63
-122.71
-123.96
-122.69
-118.42
-110.50
-97.44
-80.41
-59.69
-35.88
-9.80
17.81
46.97
78.67
115.08
158.64
208.91
261.03
305.75
332.98
336.63
317.60
283.41
245.69
216.39
202.83
206.49
223.42
246.63
268.17
279.71
272.77
242.45
191.02
127.96
68.20
26.94
14.41
32.37
73.68
125.04
163.77
173.69
150.42
102.86
45.94
-7.93
-53.37
-85.89
-110.67
-130.26
-142.31
-142.87
-129.39
-102.13
-65.19
-23.11
19.02
54.98
79.52
88.94
80.79
54.76
9.53
-47.73
-103.26
-143.51
-162.52
-162.61
-151.02
-135.43
-120.84
-108.82
-98.28
-88.18
-79.05
-72.66
-69.63
-68.55
-66.72
-61.74
-52.62
-39.86
-25.61
-12.68
-3.29
2.32
5.33
7.56
9.42
9.88
7.34
0.13
-12.53
-29.99
-50.21
-70.65
-87.69
-100.80
-110.91
-119.44
-127.89
-137.35
-147.93
-158.13
-164.66
-163.18
-150.32
-125.20
-90.84
-53.74
-21.62
-0.16
9.71
11.80
12.36
15.59
21.36
25.35
21.08
3.79
-26.82
-65.84
-104.47
-133.24
-145.17
-137.42
-112.22
-75.68
-35.79
-0.09
25.96
40.16
42.85
35.84
21.58
2.58
-18.71
-39.49
-56.71
-67.81
-71.28
-67.83
-60.25
-52.09
-45.95
-42.34
-38.81
-31.10
-18.26
0.33
23.26
47.57
69.91
87.85
100.77
110.72
120.80
134.03
152.96
178.53
209.66
243.06
273.44
294.74
303.38
298.59
282.63
260.41
237.24
217.28
202.68
193.68
189.59
191.18
198.68
210.86
224.81
236.37
241.76
238.81
227.15
197.77
147.53
79.35
2.27
-71.93
-133.65
-178.02
-205.10
-218.24
-222.14
-219.38
-211.60
-199.80
-185.12
-169.43
-154.82
-142.87
-134.25
-128.52
-123.14
-115.81
-105.36
-92.14
-77.73
-63.93
-52.21
-43.19
-36.69
-31.21
-25.45
-19.21
-13.07
-8.48
-6.84
-9.21
-15.55
-24.82
-35.09
-44.72
-52.83
-59.40
-65.21
-71.06
-77.80
-85.09
-91.73
-96.11
-97.17
-94.66
-88.92
-81.01
-72.10
-64.53
-60.26
-60.57
-65.69
-74.51
-84.37
-91.22
-91.24
-78.08
-49.75
-7.77
42.77
93.41
133.74
154.21
149.51
119.64
71.10
13.47
-40.88
-79.07
-90.96
-71.84
-23.34
47.60
129.52
210.42
272.21
298.28
285.22
246.46
202.33
166.88
147.50
134.18
115.09
80.58
28.25
-36.58
-103.70
-160.14
-195.43
-203.78
-185.66
-145.53
-92.46
-37.09
10.69
42.63
52.69
38.33
2.29
-47.34
-94.94
-126.02
-134.37
-122.99
-99.28
-70.37
-41.39
-15.23
6.22
22.45
32.90
38.07
40.19
42.42
47.42
55.92
67.14
79.10
89.82
97.17
99.81
97.78
92.16
84.23
74.58
63.10
49.21
33.51
16.22
-2.20
-20.47
-36.92
-49.94
-58.64
-62.99
-63.74
-61.96
-59.06
-56.20
-53.77
-51.80
-49.96
-47.93
-45.57
-42.92
-40.11
-37.49
-35.39
-33.74
-32.63
-31.99
-31.69
-31.58
-31.55
-31.39
-30.88
-31.06
-30.62
-29.06
-26.12
-21.77
-16.10
-9.50
-2.32
5.05
12.39
19.77
27.06
34.23
41.25
48.09
54.36
59.81
64.31
67.93
71.12
74.08
77.03
80.04
83.05
85.45
86.81
87.12
86.77
86.59
87.26
89.19
92.22
95.73
98.12
98.17
95.35
89.95
82.92
75.07
66.35
55.05
42.35
26.78
6.79
-18.22
-47.42
-78.75
-109.66
-138.00
-162.81
-184.51
-205.37
-228.10
-255.15
-287.50
-323.43
-357.91
-382.90
-389.32
-369.81
-322.08
-249.46
-160.25
-65.10
25.94
105.56
170.16
219.18
254.43
278.73
295.44
307.41
316.10
321.20
321.24
314.89
302.08
284.43
264.04
242.55
220.23
196.23
169.53
139.85
108.01
75.11
41.73
7.48
-28.45
-65.90
-102.64
-133.83
-153.20
-155.40
-138.88
-107.71
-71.64
-43.70
-35.60
-53.15
-93.14
-143.66
-187.85
-209.91
-200.66
-160.51
-98.41
-27.67
38.88
92.71
130.31
151.76
158.14
150.15
128.17
93.67
50.28
3.30
-42.17
-83.42
-120.92
-156.95
-193.21
-228.29
-257.23
-273.31
-271.02
-248.70
-209.54
-160.60
-110.60
-67.42
-36.39
-19.78
-17.14
-26.35
-44.55
-68.89
-96.77
-125.66
-152.63
-174.03
-185.80
-184.66
-169.36
-141.44
-104.90
-64.72
-25.70
8.08
33.04
45.55
42.12
20.36
-19.43
-73.00
-132.32
-187.40
-229.08
-251.77
-254.66
-241.03
-216.15
-184.86
-150.30
-113.89
-76.75
-40.85
-9.41
13.73
25.43
24.11
10.08
-14.75
-47.12
-82.62
-115.64
-140.15
-151.34
-147.23
-129.57
-103.25
-74.33
-47.78
-26.22
-9.92
2.14
11.19
18.29
24.65
32.13
43.01
59.15
80.76
105.83
130.57
150.66
162.81
165.58
159.22
144.76
123.13
94.99
61.14
23.32
-15.49
-51.39
-80.56
-100.25
-109.32
-108.13
-98.01
-80.73
-58.25
-32.58
-5.56
21.28
46.95
71.20
94.45
117.20
139.44
160.19
177.89
191.26
200.14
205.72
209.69
213.05
215.07
213.55
206.23
192.50
174.42
156.25
142.70
136.95
139.49
148.17
159.35
169.24
174.83
174.30
167.02
153.66
136.01
116.79
99.18
86.01
79.04
78.55
83.35
91.18
99.35
105.27
106.82
102.79
93.06
78.96
63.30
50.00
43.16
45.79
58.81
80.62
107.59
135.14
158.97
175.90
184.24
183.77
175.58
162.03
146.54
133.11
125.44
125.84
134.31
148.34
163.62
175.30
179.53
174.50
160.69
140.36
116.50
91.80
68.06
46.20
26.45
8.63
-7.88
-23.86
-39.91
-55.91
-70.46
-81.11
-85.29
-81.80
-71.93
-59.58
-50.05
-48.20
-56.90
-76.49
-105.45
-141.68
-183.18
-227.81
-272.49
-312.78
-343.77
-362.08
-367.67
-364.13
-356.96
-350.33
-344.34
-334.72
-315.01
-280.33
-230.32
-169.47
-104.72
-41.87
16.72
71.81
124.72
174.96
219.39
253.52
273.93
279.75
272.26
253.17
223.16
182.11
131.15
74.90
22.09
-16.47
-32.05
-21.86
9.19
50.06
87.70
111.58
116.63
103.56
77.20
43.71
8.55
-24.30
-52.09
-72.73
-84.76
-87.79
-83.11
-73.61
-63.12
-54.72
-49.31
-45.19
-38.91
-27.29
-9.43
12.11
31.87
43.62
43.16
30.23
8.70
-15.30
-36.11
-50.85
-59.78
-65.09
-68.85
-71.65
-72.63
-70.71
-65.80
-59.09
-52.11
-45.42
-38.05
-28.13
-14.55
1.56
16.54
25.58
24.76
13.14
-6.55
-28.78
-47.34
-57.67
-58.57
-52.36
-43.72
-37.58
-37.10
-42.67
-52.16
-62.23
-69.83
-73.39
-72.86
-69.31
-64.25
-59.21
-55.86
-56.00
-61.26
-72.13
-87.06
-102.27
-112.71
-113.97
-104.11
-84.64
-59.77
-34.55
-12.83
3.75
15.54
23.52
28.04
28.44
23.63
13.34
-1.06
-16.64
-29.85
-37.88
-39.57
-35.68
-28.28
-20.06
-13.56
-10.79
-13.00
-20.48
-32.46
-47.27
-62.77
-77.05
-88.99
-98.38
-105.70
-111.59
-116.72
-121.88
-128.24
-137.03
-148.82
-162.48
-174.67
-180.53
-175.46
-157.33
-127.66
-91.36
-54.50
-21.67
5.90
30.35
55.18
82.66
111.74
138.12
156.12
161.55
154.00
137.32
118.07
102.82
95.46
95.98
101.02
105.70
105.88
99.77
88.37
74.67
62.12
53.11
48.06
45.56
43.67
41.07
38.08
36.40
37.87
43.42
52.54
64.17
77.71
93.40
111.01
128.08
138.94
136.16
114.39
74.22
23.78
-23.58
-54.84
-63.02
-49.95
-24.64
1.76
21.32
32.11
37.36
42.09
49.41
58.98
67.70
72.01
70.01
62.58
52.42
42.55
34.74
28.78
23.17
16.23
7.32
-2.86
-12.60
-20.28
-25.14
-27.44
-28.03
-27.58
-26.27
-23.90
-20.30
-15.42
-9.01
-0.14
12.88
31.65
56.47
85.41
114.51
139.42
157.32
168.27
174.81
180.10
185.72
190.58
191.36
184.50
168.22
143.63
114.39
85.16
59.86
40.44
26.80
17.34
9.94
2.69
-5.82
-16.55
-30.27
-47.47
-67.98
-90.54
-112.63
-130.98
-142.60
-145.98
-141.85
-132.99
-123.12
-115.57
-112.18
-113.16
-117.49
-123.60
-129.86
-134.76
-136.83
-134.76
-127.74
-115.73
-99.44
-80.03
-58.51
-35.57
-11.79
11.81
33.36
50.23
59.93
61.12
54.47
42.73
29.97
20.32
16.64
19.66
27.84
38.18
47.34
52.78
53.49
49.93
43.44
35.54
27.40
19.73
12.99
7.53
3.50
0.65
-1.85
-5.22
-10.53
-18.24
-28.10
-39.41
-51.60
-64.33
-77.24
-89.47
-99.39
-104.98
-104.69
-98.28
-87.02
-73.15
-58.77
-45.08
-32.24
-19.95
-8.35
1.48
7.77
8.90
4.47
-4.29
-14.73
-23.88
-29.64
-31.60
-30.98
-29.80
-29.79
-31.44
-33.96
-35.86
-35.84
-33.50
-29.40
-24.62
-20.29
-17.10
-15.29
-14.86
-15.64
-17.42
-19.90
-22.84
-26.12
-29.90
-34.48
-39.97
-45.80
-50.26
-50.69
-44.21
-28.92
-4.87
25.75
59.39
92.51
122.89
149.90
173.85
194.73
211.31
221.33
222.58
214.33
198.23
177.94
157.79
141.15
129.30
121.30
114.83
107.50
98.00
86.58
74.69
64.25
56.47
51.11
46.52
40.41
31.00
18.15
3.60
-9.92
-20.04
-26.15
-29.66
-33.12
-38.45
-45.70
-53.07
-58.18
-59.81
-58.67
-57.04
-57.18
-59.63
-62.78
-63.87
-60.76
-53.19
-42.70
-30.79
-18.12
-4.02
12.63
32.00
52.16
69.25
79.05
79.10
71.04
59.39
49.64
45.98
49.87
59.96
72.99
85.61
95.76
104.65
114.24
126.16
141.04
159.03
179.83
202.28
223.58
239.13
245.53
239.73
220.69
189.90
151.70
111.74
74.90
43.81
7.70
-37.34
-88.09
-135.26
-169.98
-188.34
-191.91
-185.43
-174.34
-163.08
-152.30
-141.74
-129.98
-118.00
-107.81
-101.66
-101.86
-110.54
-129.10
-156.34
-191.12
-230.22
-270.75
-309.74
-343.27
-366.01
-372.41
-359.20
-326.44
-279.90
-229.28
-184.93
-153.48
-135.94
-128.77
-126.92
-127.29
-127.33
-126.38
-124.27
-120.86
-115.65
-108.32
-99.54
-91.03
-85.01
-82.64
-84.10
-88.26
-93.33
-97.33
-98.68
-96.55
-90.62
-84.11
-78.62
-74.98
-73.07
-72.16
-71.48
-70.53
-69.35
-68.49
-68.76
-70.26
-72.83
-75.93
-78.87
-81.04
-82.13
-82.27
-81.94
-81.78
-81.98
-82.53
-83.25
-83.75
-83.61
-82.47
-80.10
-76.38
-71.35
-64.86
-56.90
-47.60
-37.27
-26.40
-15.65
-5.70
2.84
9.55
14.45
17.82
20.14
21.93
23.67
25.66
28.15
31.36
35.61
41.36
49.12
59.17
71.48
85.56
100.60
115.74
130.35
144.31
157.96
171.83
186.37
201.62
217.31
233.11
248.98
265.19
282.06
299.49
316.69
332.53
346.14
357.59
367.98
378.67
390.09
400.79
407.37
405.55
391.82
364.94
326.52
280.42
231.59
185.02
145.00
114.94
97.09
91.94
97.55
109.31
120.50
123.95
114.33
89.92
53.38
10.79
-30.40
-63.80
-85.70
-95.49
-94.76
-85.97
-71.32
-52.39
-30.55
-7.74
13.19
28.61
35.07
30.66
16.05
-5.15
-27.19
-44.00
-51.48
-49.30
-41.28
-34.15
-34.64
-46.34
-67.72
-92.44
-112.15
-120.38
-115.53
-101.57
-85.83
-75.29
-73.31
-78.60
-86.55
-92.24
-93.12
-89.81
-84.89
-80.45
-76.19
-69.27
-55.93
-33.83
-3.69
30.60
63.49
89.81
106.63
113.92
114.01
110.32
105.93
102.44
99.65
95.90
89.08
77.92
62.93
46.71
33.25
26.40
28.43
39.08
55.95
75.45
93.98
108.45
116.22
114.88
102.28
77.22
40.21
-5.98
-56.79
-106.84
-151.26
-186.55
-210.75
-223.23
-224.32
-215.18
-197.77
-174.65
-148.63
-122.30
-97.65
-76.16
-59.13
-47.81
-43.44
-46.62
-56.71
-71.36
-86.67
-98.03
-101.24
-93.84
-75.78
-49.48
-19.11
10.65
35.75
53.76
64.06
67.62
66.23
61.84
55.81
48.77
40.79
31.75
21.65
10.73
-0.71
-12.47
-24.25
-35.24
-43.81
-47.41
-43.38
-29.99
-7.65
20.70
50.31
76.05
94.11
103.04
103.75
98.51
89.47
77.56
62.16
42.00
16.48
-13.08
-43.12
-68.85
-86.15
-93.36
-92.13
-86.71
-81.89
-80.74
-83.24
-86.60
-86.92
-81.43
-69.91
-54.84
-40.12
-29.37
-24.50
-25.29
-29.79
-35.16
-38.49
-37.47
-30.73
-18.07
-0.65
19.18
38.27
53.56
63.00
66.17
64.41
60.23
56.34
54.71
56.01
59.55
63.67
66.49
66.50
62.98
55.96
45.79
32.71
16.77
-1.64
-20.97
-38.22
-49.64
-52.46
-46.77
-36.24
-26.94
-24.42
-30.72
-42.77
-53.63
-55.82
-45.05
-22.48
5.67
30.66
44.50
42.39
23.75
-8.31
-48.04
-88.61
-123.51
-147.83
-158.94
-156.54
-141.98
-117.34
-84.84
-46.84
-6.16
33.85
69.77
99.17
121.34
137.17
148.08
154.62
155.87
150.11
136.47
116.38
93.66
73.08
57.98
48.64
42.31
35.03
24.22
10.45
-2.75
-10.83
-10.78
-2.87
9.45
21.14
27.73
27.03
19.82
9.39
0.28
-3.42
0.25
9.82
20.59
25.93
19.76
-1.07
-35.86
-81.08
-132.94
-189.33
-249.87
-313.73
-376.85
-430.87
-465.00
-470.34
-444.06
-391.27
-323.20
-252.69
-189.47
-137.40
-94.85
-57.32
-20.77
16.50
53.94
90.51
126.44
163.64
204.05
247.15
288.58
320.81
336.52
332.40
310.91
279.06
244.72
213.03
185.12
159.57
135.38
113.79
97.68
88.94
86.02
83.70
75.68
58.39
33.57
7.65
-11.56
-19.04
-15.41
-6.74
-1.57
-6.77
-24.22
-49.94
-76.08
-94.35
-99.45
-90.93
-72.92
-52.23
-36.00
-29.60
-35.32
-51.71
-73.58
-93.11
-102.14
-95.25
-72.54
-40.42
-9.53
9.63
11.55
-1.53
-20.42
-33.24
-30.83
-10.80
21.58
56.09
82.06
92.49
86.15
66.94
41.25
15.09
-7.95
-26.90
-42.35
-54.94
-64.43
-69.84
-70.39
-66.25
-58.61
-48.86
-37.57
-23.91
-6.00
18.01
48.63
84.20
120.66
152.20
172.63
177.30
164.95
138.77
105.80
74.71
52.79
43.18
44.14
50.26
55.16
54.28
46.35
33.09
17.60
2.46
-11.39
-24.46
-37.35
-49.09
-56.32
-54.01
-37.70
-6.27
36.22
80.79
116.16
132.53
124.76
93.57
44.61
-13.98
-74.14
-129.77
-177.39
-215.98
-246.28
-269.64
-286.99
-298.00
-301.07
-294.12
-275.81
-246.27
-206.89
-159.65
-106.37
-48.85
10.51
68.05
118.82
157.53
179.67
182.95
168.22
140.00
106.28
77.50
64.34
74.70
110.55
166.18
229.23
284.25
317.70
322.07
297.69
251.77
195.23
139.00
90.65
52.64
22.84
-3.24
-29.16
-54.91
-76.47
-87.81
-84.28
-65.66
-36.90
-6.12
19.10
35.02
42.80
46.76
51.10
57.19
62.81
63.63
55.82
38.31
13.35
-14.67
-41.07
-62.64
-78.16
-87.96
-92.98
-93.92
-91.16
-85.03
-76.32
-66.45
-57.21
-50.02
-45.36
-42.20
-38.12
-29.91
-14.70
8.55
38.14
69.62
97.13
115.61
123.08
121.84
117.52
116.27
121.47
131.88
142.26
146.55
141.31
127.33
108.53
88.83
69.40
48.13
21.90
-10.20
-44.89
-75.59
-95.65
-101.94
-96.63
-85.96
-77.17
-75.03
-80.21
-89.73
-98.81
-103.27
-100.85
-91.62
-77.32
-60.30
-42.63
-25.87
-11.18
0.22
6.87
7.28
0.52
-13.31
-32.82
-55.69
-79.17
-100.60
-117.68
-128.70
-132.68
-129.68
-121.00
-109.10
-97.02
-87.49
-82.11
-80.92
-82.72
-85.55
-87.40
-86.59
-82.04
-73.38
-61.09
-46.52
-31.71
-19.02
-10.53
-7.46
-9.76
-16.07
-24.06
-31.30
-36.12
-38.30
-39.30
-41.53
-47.16
-56.86
-69.16
-80.77
-87.76
-87.03
-77.22
-59.04
-34.67
-6.96
21.21
47.25
68.85
83.98
90.94
88.75
77.51
58.76
35.47
11.61
-8.69
-22.24
-27.70
-25.83
-19.04
-10.40
-2.45
3.62
8.02
11.79
15.98
20.80
25.43
28.35
27.94
23.24
14.38
2.81
-9.12
-18.60
-23.19
-21.43
-13.31
-0.33
14.94
29.74
41.93
50.58
56.08
59.58
62.17
64.39
66.13
67.07
67.35
67.76
69.32
72.51
76.29
78.15
74.83
63.63
43.58
15.71
-17.50
-52.86
-86.82
-115.55
-135.10
-142.30
-136.16
-119.13
-97.08
-77.61
-67.11
-68.07
-77.94
-90.21
-97.31
-93.87
-79.03
-56.85
-34.88
-21.31
-21.97
-37.99
-65.07
-94.81
-117.58
-125.95
-117.16
-93.46
-60.49
-24.43
10.39
42.49
72.38
100.74
126.68
147.23
158.35
156.84
142.15
116.88
85.83
53.99
24.68
-1.19
-24.35
-45.55
-64.16
-77.86
-83.84
-80.56
-69.11
-53.13
-37.35
-25.41
-18.39
-14.45
-10.14
-2.23
10.75
27.95
46.85
64.49
78.59
88.13
93.26
94.80
93.79
91.31
88.24
85.14
82.11
78.72
74.10
67.42
58.32
47.26
35.43
24.33
15.19
8.65
4.77
3.38
4.19
6.69
9.87
12.14
11.62
7.22
-0.45
-8.79
-14.11
-13.43
-6.22
4.87
15.05
19.67
16.61
7.39
-3.65
-11.54
-13.33
-9.49
-3.67
-0.66
-4.06
-14.49
-29.18
-43.31
-51.83
-51.42
-41.50
-24.26
-4.09
13.22
21.33
14.60
-10.08
-51.27
-102.02
-150.58
-183.41
-189.53
-164.60
-113.03
-46.80
18.24
67.51
91.96
90.15
67.51
33.50
-1.68
-30.06
-47.31
-52.79
-48.56
-38.18
-25.55
-14.29
-7.47
-7.17
-13.99
-26.80
-42.75
-58.02
-68.93
-73.17
-70.53
-62.81
-52.75
-42.44
-32.11
-19.65
-1.42
25.83
63.08
107.81
154.19
194.75
222.63
233.79
228.21
209.66
184.30
158.66
137.76
123.96
116.95
114.48
113.72
112.38
109.33
104.70
99.44
94.58
90.66
87.56
84.55
80.83
76.01
70.20
63.70
56.45
47.56
35.34
18.00
-5.50
-34.69
-67.44
-100.54
-130.68
-155.33
-173.30
-184.74
-190.66
-192.47
-191.49
-188.71
-184.71
-179.65
-173.27
-164.93
-153.63
-138.41
-118.85
-95.69
-71.12
-48.52
-31.24
-21.32
-18.34
-19.35
-19.86
-15.74
-5.08
10.77
27.60
39.77
42.42
33.50
14.88
-7.66
-25.84
-30.97
-16.78
18.06
68.71
124.84
173.47
203.19
208.04
189.33
154.57
114.09
76.99
48.49
29.51
18.29
12.55
10.82
12.31
15.90
19.23
18.94
12.02
-2.63
-23.43
-46.63
-67.76
-83.51
-92.90
-97.29
-99.49
-102.35
-107.58
-115.19
-123.57
-130.12
-132.07
-127.38
-115.32
-96.75
-73.99
-50.25
-28.71
-11.67
0.26
8.43
15.83
26.17
42.51
65.80
94.01
122.21
144.01
153.73
148.52
129.44
100.98
69.22
39.61
15.32
-3.30
-17.94
-31.07
-44.49
-58.49
-71.59
-81.15
-84.32
-79.23
-65.79
-46.01
-23.44
-2.25
13.91
22.84
24.05
18.79
9.64
0.02
-6.48
-6.93
0.15
14.28
33.08
53.08
70.73
83.49
90.34
91.71
89.01
83.95
77.98
71.93
66.09
60.45
55.03
50.30
47.26
47.15
50.94
58.59
68.73
78.78
85.69
86.80
80.51
66.59
45.97
20.62
-6.73
-32.72
-53.83
-66.93
-70.12
-63.38
-48.69
-29.48
-9.70
7.37
19.79
27.14
30.25
30.63
29.89
29.34
29.71
31.08
33.03
34.88
36.09
36.51
36.50
36.55
36.96
37.48
37.30
35.43
31.29
25.12
18.05
11.78
7.98
7.75
11.27
17.82
25.76
32.78
36.24
33.72
23.83
6.88
-15.16
-39.24
-62.48
-83.13
-100.73
-115.52
-127.21
-134.47
-135.26
-128.03
-112.93
-92.26
-69.66
-48.64
-31.31
-17.93
-7.63
0.48
6.33
8.73
5.93
-3.43
-19.47
-40.68
-63.94
-85.12
-100.02
-105.51
-100.57
-86.69
-67.47
-47.35
-30.09
-17.60
-9.77
-5.09
-1.75
1.55
5.43
10.21
16.28
24.08
33.73
44.53
54.77
62.06
64.07
59.37
47.99
31.41
12.23
-6.53
-22.16
-32.84
-37.99
-38.23
-34.90
-29.41
-22.72
-15.10
-6.48
3.08
12.88
21.63
27.89
30.74
30.30
27.77
25.04
23.96
25.66
30.19
36.51
42.82
46.95
46.81
40.77
28.00
8.77
-15.42
-42.04
-68.04
-90.59
-107.59
-117.94
-121.45
-118.59
-110.20
-97.50
-82.13
-66.04
-51.16
-38.89
-29.61
-22.58
-16.27
-9.01
0.51
12.93
28.18
45.42
62.88
77.74
86.62
86.83
78.10
63.74
50.28
45.16
53.21
73.88
100.59
123.08
131.60
121.04
92.94
54.42
14.97
-17.52
-39.09
-50.02
-53.25
-52.12
-48.92
-44.65
-39.71
-34.63
-30.50
-28.64
-29.83
-33.76
-38.97
-43.27
-44.66
-41.90
-34.95
-24.75
-12.78
-0.36
11.91
24.30
37.61
52.45
68.46
83.90
95.88
101.26
97.95
85.76
66.76
44.63
23.59
7.10
-3.02
-6.79
-5.46
-0.70
6.30
15.08
25.65
37.76
50.50
62.23
71.17
76.13
76.96
74.48
69.98
64.59
58.84
52.61
45.27
35.98
23.99
8.80
-9.46
-29.87
-50.69
-69.63
-84.46
-93.65
-96.73
-94.22
-87.29
-77.26
-65.32
-52.55
-39.91
-28.39
-19.03
-12.77
-10.30
-11.87
-17.02
-24.41
-31.89
-37.01
-37.97
-34.64
-29.12
-25.29
-27.36
-37.97
-56.78
-80.46
-103.95
-122.40
-132.81
-134.67
-129.53
-120.19
-109.77
-101.20
-96.73
-97.43
-102.61
-109.61
-114.56
-113.86
-105.75
-90.99
-71.88
-50.44
-26.57
2.08
38.10
81.31
126.52
163.87
182.13
173.82
139.39
88.30
36.27
-0.35
-9.99
10.50
55.61
113.74
171.10
215.13
236.74
231.44
200.03
148.78
88.59
32.46
-8.23
-27.48
-26.26
-11.20
9.08
27.94
42.62
53.12
59.54
59.95
50.64
28.76
-4.60
-43.41
-79.02
-104.27
-116.95
-120.31
-120.35
-122.07
-126.60
-131.06
-130.80
-122.37
-105.39
-82.40
-57.37
-33.69
-13.14
4.15
18.84
31.25
40.56
44.72
41.31
29.09
9.82
-10.81
-24.16
-21.79
0.29
38.50
81.69
114.91
125.50
108.59
69.17
19.76
-25.18
-55.06
-66.56
-63.15
-51.65
-38.10
-25.16
-12.12
2.99
20.84
39.37
54.28
61.08
57.58
45.42
29.85
17.71
14.62
22.60
39.18
58.46
73.65
79.99
76.80
67.58
58.23
54.28
58.40
69.44
83.29
94.95
100.74
99.51
92.63
82.87
72.82
63.53
53.91
41.11
21.84
-5.80
-40.94
-79.45
-115.31
-142.89
-159.57
-166.74
-168.95
-171.51
-177.84
-188.20
-199.96
-209.27
-212.67
-207.77
-192.89
-166.77
-129.39
-82.99
-33.30
11.47
43.07
56.20
49.87
27.22
-6.60
-46.31
-87.17
-124.61
-153.46
-168.44
-166.24
-147.88
-118.92
-87.49
-60.53
-40.65
-25.30
-8.39
16.79
54.69
103.20
154.93
199.96
230.80
245.80
248.29
243.37
235.16
225.44
214.13
200.51
184.34
166.54
148.95
133.49
121.37
112.87
107.50
104.48
103.34
103.46
103.30
99.67
88.32
65.84
32.06
-8.97
-50.11
-83.88
-105.52
-114.51
-114.02
-108.71
-102.29
-96.20
-90.08
-83.14
-75.40
-67.92
-62.10
-58.79
-57.80
-57.98
-57.68
-55.44
-50.57
-43.49
-35.45
-28.15
-22.99
-20.65
-20.64
-21.46
-21.06
-17.61
-10.26
0.59
13.32
25.69
35.28
40.25
39.22
32.20
21.01
9.34
2.23
4.36
18.18
41.70
68.55
89.45
95.89
83.41
53.55
13.70
-26.56
-58.35
-76.60
-81.01
-75.18
-63.79
-50.59
-37.40
-24.65
-12.41
-1.70
5.38
7.10
1.90
-9.75
-25.87
-43.68
-59.55
-69.61
-70.15
-58.53
-34.27
-0.06
38.56
73.93
98.19
105.91
95.40
69.30
33.72
-3.61
-36.03
-58.59
-69.34
-69.10
-60.53
-47.05
-31.99
-18.23
-8.05
-3.57
-5.79
-14.47
-27.80
-42.69
-55.67
-63.98
-66.12
-62.03
-52.87
-39.86
-24.09
-6.37
12.56
31.92
50.42
66.34
77.94
83.82
83.78
78.78
70.64
61.34
52.91
46.51
42.49
40.58
39.85
39.53
38.92
37.19
33.46
27.06
17.04
2.87
-13.65
-31.77
-49.91
-66.11
-79.00
-87.95
-93.25
-96.31
-98.64
-101.18
-104.29
-107.41
-109.66
-110.73
-112.61
-115.03
-118.47
-123.25
-129.10
-135.80
-142.75
-148.94
-152.60
-150.73
-139.89
-118.74
-88.95
-55.10
-23.47
0.73
15.21
20.79
21.45
22.03
25.63
33.33
44.99
59.97
77.57
96.40
113.13
124.36
126.79
118.11
98.29
70.36
39.77
13.32
-5.01
-12.05
-5.52
13.97
42.52
69.54
83.39
75.75
45.83
7.38
-32.06
-67.83
-96.38
-115.27
-119.98
-107.09
-76.74
-33.56
14.50
57.96
90.36
108.70
114.49
111.25
103.37
95.65
92.67
97.93
111.92
132.37
154.31
174.22
190.50
204.78
221.07
243.85
276.54
319.31
369.44
407.04
413.80
378.84
306.48
214.11
122.62
47.51
-5.33
-38.57
-59.73
-72.56
-80.40
-83.40
-81.70
-77.93
-77.37
-86.43
-110.26
-150.29
-200.85
-254.01
-301.49
-336.74
-355.25
-354.29
-333.52
-295.95
-247.97
-197.31
-151.66
-115.70
-90.59
-74.76
-65.62
-61.37
-61.53
-66.02
-74.00
-83.61
-92.15
-97.57
-99.38
-98.66
-97.15
-96.74
-96.89
-95.55
-90.03
-77.83
-57.77
-30.42
1.98
35.56
66.56
92.59
112.51
126.38
135.05
139.57
140.79
139.16
134.82
128.16
119.80
110.49
101.05
92.17
84.34
77.67
71.91
66.53
61.25
56.00
50.75
45.67
40.92
36.66
33.03
30.02
27.55
25.67
24.43
23.72
23.59
23.90
24.51
25.18
26.47
27.42
27.53
26.50
24.09
20.38
15.77
10.91
6.59
3.48
1.89
1.79
2.57
3.24
2.79
0.52
-3.77
-9.78
-16.92
-24.32
-31.21
-37.01
-41.20
-43.17
-42.05
-36.77
-26.69
-11.87
7.00
28.16
49.18
67.78
82.09
91.59
97.17
99.76
100.95
103.07
108.42
118.77
134.01
151.23
165.04
169.22
157.75
128.88
86.58
38.59
-6.42
-42.53
-68.38
-86.38
-100.68
-117.09
-140.10
-167.73
-197.95
-228.66
-258.61
-287.15
-313.41
-324.12
-310.98
-273.49
-219.37
-160.06
-104.74
-58.52
-23.12
2.28
20.02
31.16
37.13
39.99
41.69
43.94
47.72
53.11
60.02
68.44
77.04
84.89
91.87
98.27
104.47
110.52
115.83
119.67
121.26
119.09
112.17
100.37
84.36
65.29
45.27
25.71
7.74
-7.80
-20.76
-31.18
-39.12
-44.67
-47.92
-48.97
-48.43
-46.84
-44.72
-42.52
-40.58
-39.02
-37.84
-36.95
-36.10
-35.46
-35.14
-35.36
-36.17
-37.49
-38.91
-39.97
-41.29
-41.41
-39.74
-35.85
-29.72
-21.33
-10.92
1.26
14.56
28.42
42.38
55.59
67.48
77.31
84.96
90.54
94.75
97.94
100.57
103.36
106.38
109.67
112.33
113.80
114.11
113.85
113.31
112.91
113.50
114.94
117.23
118.58
117.98
115.56
112.30
108.82
105.52
103.12
100.47
96.57
87.65
70.66
43.68
11.86
-21.35
-53.65
-83.06
-110.58
-136.87
-165.73
-199.58
-238.25
-280.51
-324.85
-370.13
-415.62
-463.59
-490.11
-479.88
-431.07
-355.80
-272.82
-196.21
-148.47
-126.25
-124.20
-136.83
-162.90
-201.93
-241.16
-272.63
-290.76
-277.43
-224.80
-139.25
-35.40
68.37
159.02
231.82
286.49
325.60
351.96
367.01
370.57
364.20
351.41
334.13
314.78
293.96
271.37
245.60
213.82
172.74
122.10
64.56
4.74
-50.25
-92.32
-113.11
-107.23
-76.21
-29.33
18.87
52.76
61.20
41.91
0.86
-50.75
-101.43
-143.20
-171.79
-185.01
-181.46
-160.92
-125.29
-80.14
-34.08
3.77
26.57
32.68
25.45
11.13
-4.08
-16.02
-23.12
-26.01
-26.51
-26.73
-28.54
-33.41
-41.72
-52.42
-63.46
-72.22
-76.55
-75.61
-70.49
-62.10
-51.48
-39.00
-23.88
-4.61
20.11
50.67
85.49
122.51
159.04
191.65
216.20
227.92
222.75
199.42
161.33
116.31
75.09
46.49
33.61
32.99
36.36
35.18
24.91
7.39
-12.44
-28.48
-37.16
-38.78
-35.88
-30.86
-24.05
-14.00
0.61
18.31
34.45
42.62
36.70
15.83
-16.57
-53.66
-88.49
-116.31
-135.69
-147.42
-153.36
-154.32
-149.96
-139.74
-123.04
-100.06
-72.15
-41.49
-10.93
17.14
41.14
60.39
74.86
84.95
91.17
94.06
94.09
91.80
87.89
83.06
77.90
72.84
68.09
63.68
59.56
55.71
52.14
49.01
46.75
44.89
43.06
41.02
38.68
36.28
34.27
33.14
33.19
34.20
35.63
36.86
37.45
37.41
37.21
37.52
38.77
41.18
43.50
44.34
42.63
38.17
31.55
24.20
17.72
13.38
11.90
13.63
18.87
26.83
36.59
45.20
48.53
42.94
27.40
4.37
-20.84
-41.89
-54.23
-56.59
-51.28
-42.28
-33.39
-27.01
-24.26
-25.70
-31.99
-44.14
-62.47
-85.32
-108.47
-125.78
-131.22
-121.65
-98.65
-68.20
-38.37
-16.03
-4.03
-1.05
-3.08
-5.87
-7.14
-6.94
-6.64
-7.36
-9.03
-10.57
-10.91
-9.80
-7.90
-6.40
-6.40
-8.10
-10.79
-13.28
-14.65
-14.80
-14.50
-14.98
-17.26
-21.62
-27.28
-32.70
-36.30
-37.24
-35.78
-33.04
-30.17
-27.67
-25.07
-20.89
-13.52
-2.14
12.44
27.80
40.90
49.01
50.90
47.10
39.71
31.66
25.73
23.95
26.87
33.17
39.63
41.58
34.35
15.35
-14.59
-48.74
-77.23
-90.46
-82.94
-55.10
-13.56
31.33
69.40
93.80
102.49
97.45
82.80
62.84
41.01
19.72
0.91
-13.50
-22.01
-24.29
-21.55
-16.06
-10.09
-4.81
0.08
6.17
15.68
29.40
46.38
64.12
79.54
90.16
94.82
93.99
89.61
84.99
82.89
84.52
88.71
91.74
88.33
73.50
44.95
2.43
-45.72
-87.98
-114.97
-123.20
-115.54
-98.67
-79.42
-61.91
-47.02
-33.33
-19.95
-7.46
2.77
9.72
13.63
15.93
18.91
24.67
34.47
47.61
61.75
73.80
80.86
81.13
74.27
61.51
45.02
27.36
10.79
-3.81
-16.91
-29.70
-43.27
-57.86
-72.41
-84.80
-92.53
-94.06
-89.57
-81.03
-71.53
-63.90
-60.18
-61.04
-66.11
-74.10
-82.39
-86.81
-82.00
-63.31
-29.98
12.55
53.26
79.39
82.12
60.91
23.82
-16.45
-48.82
-68.26
-76.71
-79.77
-82.27
-85.69
-88.66
-89.62
-89.00
-88.99
-91.13
-94.56
-95.02
-87.26
-68.45
-39.89
-6.80
24.29
48.78
64.80
72.14
71.08
61.74
44.85
23.31
2.67
-10.56
-11.78
-0.92
17.42
36.48
50.96
59.10
63.01
66.10
70.60
76.34
81.04
82.13
78.48
71.34
63.62
58.59
57.90
60.75
64.15
64.02
56.80
40.58
15.56
-16.12
-50.67
-83.17
-108.48
-122.38
-123.24
-112.66
-95.31
-76.92
-62.36
-52.54
-45.39
-36.83
-22.71
-1.17
26.00
53.52
74.48
83.23
77.93
61.40
39.92
20.70
8.72
4.81
6.01
8.06
7.96
5.60
3.06
2.92
6.21
11.77
16.97
19.57
18.94
16.14
12.97
10.68
9.18
7.98
7.34
8.65
14.30
25.84
42.36
60.06
73.44
77.18
69.71
52.88
30.79
7.89
-12.89
-30.43
-44.80
-56.16
-64.22
-68.59
-69.68
-68.81
-67.74
-68.09
-70.72
-75.20
-80.12
-83.46
-83.60
-79.74
-72.08
-61.58
-49.38
-36.38
-22.84
-8.65
6.64
23.08
40.08
56.59
71.15
82.37
89.26
91.59
89.84
85.15
78.58
71.04
63.10
54.85
46.09
36.51
25.83
13.01
-1.29
-16.68
-32.61
-48.50
-63.68
-77.29
-88.52
-96.33
-99.40
-96.43
-86.76
-70.51
-48.70
-23.25
2.80
26.90
47.11
62.68
74.04
82.28
88.62
93.80
97.74
99.85
99.60
96.88
92.32
87.21
82.87
80.29
79.99
82.08
86.27
91.60
95.77
95.29
86.53
67.51
39.56
7.48
-21.98
-43.10
-53.36
-54.60
-51.17
-47.61
-46.44
-47.57
-49.30
-50.03
-49.43
-48.32
-47.76
-47.99
-48.18
-46.87
-42.73
-35.47
-25.97
-15.91
-6.89
0.25
5.69
10.42
15.57
21.97
29.59
37.55
44.43
48.73
49.46
46.24
39.47
29.80
18.03
4.87
-9.11
-23.35
-37.17
-49.66
-59.75
-66.45
-69.06
-67.40
-61.89
-53.44
-43.29
-32.83
-23.21
-15.20
-9.10
-4.80
-1.91
0.04
1.57
3.11
4.68
6.30
7.95
9.69
11.70
14.25
17.57
21.69
26.47
31.05
34.68
36.74
36.92
35.25
31.98
27.38
21.51
14.24
4.57
-8.15
-23.88
-41.74
-60.09
-76.86
-90.17
-98.83
-102.61
-103.24
-102.91
-104.00
-108.53
-117.65
-131.34
-148.57
-167.94
-182.07
-187.59
-183.51
-171.48
-155.24
-139.24
-126.90
-119.28
-114.70
-109.47
-100.55
-85.96
-65.96
-43.02
-20.73
-2.11
11.82
22.77
34.57
50.62
72.84
100.28
129.09
153.88
169.83
174.49
168.93
157.72
147.19
144.58
156.17
186.10
235.39
301.16
376.52
451.45
514.85
556.88
572.08
560.47
527.00
479.19
424.31
367.18
309.51
250.97
191.19
131.70
76.46
30.82
-0.68
-16.35
-18.44
-12.39
-4.67
-0.14
-0.16
-2.75
-4.37
-2.41
2.99
8.92
11.20
6.47
-6.34
-25.76
-48.51
-70.69
-88.93
-101.42
-108.47
-112.49
-117.34
-126.86
-143.34
-166.60
-194.07
-222.19
-248.01
-270.21
-289.15
-305.96
-321.62
-336.54
-350.78
-364.51
-377.98
-390.84
-401.65
-407.77
-406.21
-394.95
-373.99
-345.42
-312.52
-278.43
-245.02
-212.75
-181.23
-150.11
-119.59
-90.57
-64.17
-41.40
-23.10
-10.19
-3.72
-4.65
-13.28
-28.81
-49.64
-74.06
-101.00
-130.18
-161.33
-193.08
-222.29
-244.37
-254.67
-249.95
-229.12
-192.89
-143.04
-82.15
-14.18
54.74
116.23
160.95
180.86
171.81
135.00
76.81
6.91
-64.10
-127.08
-175.65
-207.00
-221.65
-222.33
-212.58
-195.54
-173.90
-150.01
-126.87
-107.83
-95.73
-91.23
-91.89
-93.02
-90.14
-81.34
-68.23
-54.74
-44.40
-37.97
-32.97
-25.17
-11.27
9.26
34.25
60.31
84.69
106.42
126.18
145.07
163.51
180.53
194.45
203.76
207.88
207.40
203.69
198.36
192.44
186.30
179.60
171.85
162.91
153.05
142.68
131.88
119.68
103.97
82.40
53.65
18.96
-17.51
-49.87
-72.81
-83.81
-84.08
-77.63
-68.95
-61.00
-54.40
-48.11
-41.10
-33.55
-27.10
-23.87
-25.32
-31.41
-40.91
-51.93
-62.59
-71.34
-77.07
-78.93
-76.35
-68.99
-56.89
-40.45
-20.40
2.22
26.12
49.91
72.30
92.26
109.31
123.35
134.49
143.04
149.53
154.94
160.77
168.93
181.02
197.66
217.91
239.35
258.87
273.69
282.25
285.02
283.50
279.01
272.07
262.35
249.49
233.71
216.20
199.04
184.94
175.58
170.63
167.69
163.40
154.90
140.99
122.54
102.21
84.72
74.01
71.71
76.72
86.23
96.91
105.79
110.57
109.94
107.12
105.40
106.37
109.64
114.40
120.68
129.06
139.70
151.82
170.71
199.14
234.78
271.14
302.28
326.13
343.85
357.32
367.47
385.26
417.91
464.45
515.97
562.00
595.89
615.52
622.05
619.39
628.16
665.18
734.15
823.46
914.61
991.61
1044.86
1071.17
982.64
740.88
376.39
-23.92
-377.06
-644.54
-826.87
-941.33
-1006.89
-1038.61
-1033.26
-990.29
-919.63
-840.85
-772.60
-723.56
-692.55
-673.48
-660.40
-639.08
-602.46
-555.01
-510.55
-483.06
-478.96
-493.19
-515.26
-532.88
-528.46
-491.51
-424.03
-340.46
-261.02
-203.39
-177.42
-182.04
-209.17
-242.47
-265.98
-270.36
-255.85
-230.19
-203.74
-185.00
-178.21
-182.82
-193.63
-205.25
-214.24
-219.67
-221.81
-220.35
-213.92
-201.13
-181.77
-157.21
-130.16
-103.69
-80.07
-60.01
-42.80
-27.09
-11.86
2.93
16.57
27.78
35.23
37.94
35.74
29.71
22.09
15.83
13.68
17.38
27.16
41.90
59.69
78.76
98.18
118.05
139.28
163.20
191.04
223.49
260.18
299.29
337.61
371.00
395.53
408.55
409.61
400.47
384.30
364.61
344.05
323.96
304.55
285.55
266.87
248.87
232.18
217.25
204.03
192.00
180.59
169.54
159.14
149.98
142.46
136.53
131.83
128.02
125.23
124.09
125.28
128.97
134.35
139.87
144.01
146.05
146.39
146.22
146.64
147.95
149.39
149.60
147.52
143.14
137.66
133.05
131.29
133.51
139.57
148.02
156.58
162.67
164.17
159.65
148.72
131.89
110.09
84.36
55.50
24.18
-8.79
-42.15
-74.26
-103.57
-129.23
-151.66
-172.45
-193.67
-216.92
-242.53
-269.31
-295.16
-318.03
-336.96
-352.78
-367.78
-384.96
-406.78
-434.19
-465.95
-498.74
-528.02
-548.93
-557.54
-551.58
-531.21
-499.47
-461.77
-424.32
-391.95
-366.06
-343.93
-319.95
-288.27
-245.86
-194.21
-138.88
-87.13
-44.88
-14.70
4.50
15.87
22.60
26.57
27.97
26.12
20.50
11.48
0.16
-12.13
-24.68
-37.41
-50.15
-62.25
-72.14
-77.96
-78.54
-74.31
-67.67
-62.31
-61.79
-67.76
-79.69
-94.99
-109.95
-120.74
-124.59
-120.60
-110.29
-97.36
-86.24
-81.85
-87.88
-105.03
-129.87
-155.48
-174.09
-179.92
-171.17
-148.07
-114.02
-73.81
-31.44
11.38
54.93
99.79
145.72
191.40
238.33
287.25
337.47
387.40
435.93
483.08
529.00
573.14
613.75
651.64
684.84
708.26
715.58
702.50
668.74
617.26
553.03
457.87
331.35
190.49
61.12
-38.00
-102.31
-137.12
-151.45
-154.34
-153.08
-148.79
-142.19
-134.82
-128.99
-126.70
-128.57
-134.43
-144.33
-158.84
-176.28
-196.61
-222.36
-253.59
-288.45
-321.48
-344.72
-350.74
-335.42
-297.82
-242.90
-179.90
-118.90
-67.63
-29.62
-5.42
5.36
2.86
-11.95
-37.34
-70.10
-105.32
-137.76
-162.92
-178.33
-183.43
-178.52
-163.31
-137.58
-102.37
-61.20
-20.02
14.49
37.34
46.89
45.13
36.67
26.78
19.93
18.82
24.08
34.75
48.52
62.57
74.52
83.68
91.60
101.60
117.17
139.67
166.99
193.04
209.69
210.14
192.03
158.71
117.58
76.63
41.01
11.65
-13.55
-36.90
-58.36
-75.10
-83.15
-80.07
-66.66
-46.83
-25.73
-7.99
3.44
7.03
1.92
-12.19
-34.62
-63.12
-94.26
-124.09
-149.35
-168.04
-179.61
-184.76
-184.65
-180.51
-173.25
-163.27
-150.42
-134.09
-113.66
-89.15
-61.66
-33.21
-6.19
17.48
36.92
52.32
64.21
72.95
78.49
80.68
79.79
76.50
71.56
65.21
56.95
45.75
30.81
12.17
-8.98
-30.69
-50.95
-68.30
-82.18
-92.54
-99.32
-101.85
-98.85
-88.89
-71.48
-48.18
-22.79
-0.45
14.34
19.74
17.29
10.99
5.09
2.01
1.31
0.50
-3.12
-10.89
-22.24
-35.34
-48.48
-60.79
-71.93
-81.26
-87.02
-86.52
-77.32
-58.69
-32.15
-0.92
31.32
61.89
89.77
115.25
138.91
160.79
180.09
195.61
206.62
213.38
217.08
219.33
221.59
224.81
229.44
235.79
244.28
255.35
269.14
285.09
301.62
316.44
327.28
332.56
332.08
327.04
319.57
312.00
306.17
302.97
302.25
302.85
302.83
299.84
291.74
277.49
257.57
233.86
208.85
184.45
161.40
139.38
117.79
96.50
76.00
56.85
38.89
20.96
1.44
-20.66
-44.91
-69.52
-92.29
-111.88
-128.62
-144.09
-160.08
-177.48
-195.71
-213.02
-227.37
-237.35
-242.76
-244.58
-244.56
-244.62
-246.15
-249.57
-254.07
-257.80
-258.41
-253.82
-243.08
-226.82
-207.08
-186.62
-167.88
-152.14
-139.33
-128.35
-117.70
-105.98
-92.07
-75.38
-56.05
-35.22
-15.22
0.77
9.56
9.06
-0.68
-17.26
-36.59
-54.11
-66.20
-70.96
-68.38
-59.92
-47.85
-34.75
-23.03
-14.48
-9.71
-7.69
-5.87
-0.90
10.09
28.26
52.53
80.00
106.96
130.33
148.48
161.39
170.21
176.45
181.26
184.97
186.76
184.93
177.61
163.88
144.71
123.45
104.93
93.62
91.53
97.17
106.10
112.93
113.51
106.46
93.24
77.11
61.59
49.29
41.35
37.82
37.89
40.32
43.43
44.93
41.87
31.00
9.79
-22.26
-62.64
-106.08
-145.94
-176.60
-195.45
-203.43
-203.68
-199.46
-192.60
-183.45
-172.07
-159.49
-147.94
-139.91
-136.49
-136.65
-137.73
-137.13
-133.83
-128.85
-124.41
-122.46
-123.58
-126.81
-130.42
-132.79
-133.03
-131.07
-127.40
-122.71
-117.61
-112.54
-107.74
-103.36
-99.50
-96.17
-93.18
-89.84
-84.85
-76.47
-63.01
-43.56
-18.45
10.63
41.08
70.13
95.47
115.64
129.96
138.32
141.09
139.09
133.64
126.30
118.57
111.45
105.18
99.47
93.81
87.95
82.07
76.63
72.12
68.79
66.51
64.98
63.84
62.75
61.31
58.86
54.50
47.36
37.11
24.41
10.99
-0.82
-8.92
-12.24
-11.05
-6.72
-0.97
4.88
10.25
15.16
19.81
24.10
27.60
29.70
30.04
28.72
26.29
23.48
20.91
18.85
17.22
15.75
14.14
12.31
10.48
9.05
8.42
8.72
9.66
10.65
11.00
10.31
8.63
6.48
4.55
3.46
3.46
4.38
5.82
7.32
8.60
9.54
10.20
10.56
10.45
9.56
7.56
4.34
0.11
-4.54
-8.86
-12.22
-14.28
-15.18
-15.32
-15.24
-15.33
-15.78
-16.53
-17.40
-18.20
-18.77
-19.03
-18.90
-18.38
-17.47
-16.24
-14.80
-13.35
-12.14
-11.38
-11.23
-11.68
-12.55
-13.58
-14.48
-15.10
-15.46
-15.74
-16.21
-17.10
-18.51
-20.37
-22.45
-24.43
-25.91
-26.57
-26.23
-24.90
-22.80
-20.26
-17.62
-15.07
-12.70
-10.52
-8.60
-7.17
-6.50
-6.83
-8.25
-10.55
-13.40
-16.45
-19.49
-22.47
-25.39
-28.10
-30.23
-31.24
-30.61
-28.22
-24.41
-20.01
-15.96
-12.93
-11.05
-9.77
-8.19
-5.35
-0.68
5.84
13.69
21.94
29.46
35.12
38.03
37.67
34.12
27.96
20.12
11.64
3.33
-4.37
-11.32
-17.53
-22.97
-27.46
-30.74
-32.69
-33.37
-33.07
-32.12
-30.79
-29.21
-27.29
-24.94
-22.11
-18.96
-15.83
-13.19
-11.42
-10.70
-10.86
-11.42
-11.80
-11.62
-10.87
-10.01
-9.71
-10.51
-12.49
-15.20
-17.82
-19.54
-20.04
-19.67
-19.39
-20.35
-23.39
-28.65
-35.44
-42.40
-48.06
-51.40
-52.42
-52.26
-52.96
-56.65
-64.63
-76.51
-89.94
-101.05
-105.82
-101.77
-89.30
-72.09
-55.85
-46.14
-45.83
-53.49
-63.39
-67.38
-57.73
-29.86
15.98
74.66
137.38
193.92
235.65
258.38
263.94
259.66
255.24
258.18
270.17
286.02
295.88
289.79
262.33
215.32
157.53
102.00
62.13
47.91
63.14
104.27
161.20
219.95
266.79
292.20
293.16
272.85
238.06
196.12
152.86
112.27
77.09
49.57
31.27
22.26
20.50
22.01
22.05
16.95
5.20
-12.37
-33.64
-56.66
-81.00
-108.11
-140.28
-178.90
-222.73
-267.47
-306.79
-334.54
-347.06
-344.57
-330.77
-311.20
-290.85
-272.44
-255.95
-239.40
-220.18
-196.47
-167.92
-135.80
-102.49
-71.03
-44.45
-25.22
-14.66
-12.51
-16.82
-24.30
-31.29
-34.84
-33.66
-28.32
-20.81
-13.61
-8.66
-6.73
-7.40
-9.40
-11.33
-12.17
-11.76
-10.84
-10.80
-13.01
-18.17
-25.75
-34.08
-40.78
-43.71
-41.68
-34.90
-24.91
-14.02
-4.59
1.57
3.60
1.66
-3.22
-9.41
-15.16
-19.04
-20.41
-19.55
-17.55
-15.92
-15.98
-18.36
-22.72
-27.98
-32.92
-36.77
-39.67
-42.52
-46.50
-52.30
-59.65
-67.10
-72.34
-72.79
-66.47
-52.62
-32.05
-7.06
19.02
42.53
60.17
69.42
68.96
58.79
40.22
15.58
-12.29
-40.71
-67.57
-91.35
-110.72
-124.28
-130.39
-127.48
-114.50
-91.51
-59.96
-22.57
17.01
54.83
87.21
111.45
126.37
132.69
132.99
131.10
130.92
134.94
143.22
153.25
160.79
161.24
151.27
130.01
99.30
63.19
26.82
-4.93
-28.39
-41.85
-45.90
-43.28
-38.05
-34.28
-34.38
-37.95
-41.80
-41.29
-32.52
-14.06
12.59
43.85
75.55
104.17
127.34
143.47
151.16
149.08
136.48
114.11
84.65
52.36
21.97
-2.85
-20.49
-31.69
-38.77
-44.29
-49.72
-54.64
-56.90
-53.73
-43.26
-25.54
-2.50
22.91
47.90
70.56
90.04
106.05
118.34
126.55
130.45
130.38
127.47
123.27
119.18
115.75
112.57
108.75
103.49
96.62
88.71
80.70
73.16
65.78
57.40
46.64
32.91
17.16
1.71
-10.85
-18.86
-22.44
-23.28
-23.48
-24.38
-25.93
-27.02
-26.47
-23.81
-19.61
-15.04
-11.16
-8.61
-7.59
-8.22
-10.52
-14.33
-19.17
-24.47
-29.66
-34.57
-39.44
-44.67
-50.46
-56.73
-63.16
-69.47
-75.42
-80.78
-85.09
-87.69
-88.04
-86.07
-82.64
-79.42
-78.59
-82.17
-91.56
-107.07
-127.71
-151.14
-173.90
-192.11
-202.20
-201.94
-190.99
-171.13
-145.86
-119.55
-96.35
-79.26
-69.51
-66.56
-68.64
-73.39
-78.62
-82.70
-84.76
-84.50
-82.02
-77.64
-71.81
-64.97
-57.52
-49.78
-42.02
-34.42
-27.12
-20.24
-13.80
-7.83
-2.35
2.54
6.66
9.76
11.60
12.08
11.28
9.54
7.41
5.55
4.63
5.03
6.84
9.77
13.31
16.87
19.91
22.00
22.77
21.97
19.55
15.81
11.49
7.67
5.54
5.98
9.22
14.76
21.50
28.24
33.94
38.17
40.95
42.68
43.74
44.41
44.73
44.67
44.19
43.35
42.37
41.54
41.09
41.15
41.69
42.52
43.43
44.16
44.51
44.32
43.47
41.86
39.43
36.29
32.57
28.54
24.46
20.54
16.95
13.78
11.13
8.99
7.28
5.78
4.15
2.09
-0.62
-4.03
-7.94
-11.93
-15.44
-17.84
-18.60
-17.39
-14.23
-9.47
-3.67
2.56
8.69
14.31
19.18
23.16
26.21
28.30
29.45
29.72
29.21
28.03
26.42
24.63
22.98
21.73
21.04
20.88
21.10
21.52
21.94
22.21
22.24
21.95
21.31
20.33
19.13
17.79
16.43
15.10
13.81
12.62
11.61
10.86
10.46
10.32
10.27
10.05
9.37
8.05
5.98
3.15
-0.31
-4.13
-7.78
-10.61
-11.91
-11.18
-8.31
-3.65
2.08
8.10
13.83
18.97
23.47
27.31
30.39
32.50
33.40
33.02
31.61
29.63
27.62
26.02
25.00
24.51
24.39
24.46
24.67
25.01
25.50
26.00
26.29
26.05
25.00
23.02
20.15
16.58
12.50
8.08
3.43
-1.34
-6.06
-10.44
-14.20
-17.19
-19.55
-21.65
-23.99
-26.83
-30.03
-33.00
-34.91
-35.02
-32.98
-28.87
-23.16
-16.50
-9.52
-2.73
3.45
8.73
12.87
15.76
17.44
18.13
18.21
18.08
18.14
18.61
19.53
20.73
21.88
22.62
22.69
22.09
21.04
19.93
19.05
18.51
18.16
17.63
16.55
14.64
11.84
8.25
4.10
-0.40
-5.01
-9.61
-14.07
-18.31
-22.27
-25.96
-29.39
-32.59
-35.52
-37.95
-39.45
-39.48
-37.52
-33.34
-27.14
-19.61
-11.70
-4.36
1.78
6.44
9.73
11.89
13.18
13.79
13.88
13.62
13.24
12.97
12.99
13.33
13.79
14.09
13.90
13.01
11.38
9.15
6.55
3.84
1.18
-1.37
-3.85
-6.35
-8.90
-11.49
-14.04
-16.44
-18.59
-20.47
-22.12
-23.64
-25.11
-26.64
-28.35
-30.42
-32.99
-36.05
-39.30
-42.07
-43.50
-42.78
-39.45
-33.63
-25.97
-17.39
-8.84
-1.04
5.56
10.81
14.70
17.35
18.96
19.84
20.29
20.61
20.93
21.24
21.42
21.35
21.02
20.50
20.01
19.77
19.93
20.54
21.53
22.72
23.87
24.73
25.08
24.78
23.83
22.36
20.57
18.63
16.62
14.48
12.11
9.48
6.67
3.94
1.62
-0.08
-1.22
-2.14
-3.38
-5.32
-7.87
-10.28
-11.25
-9.34
-3.58
6.07
18.56
31.98
44.06
52.67
56.35
54.41
47.12
35.59
21.71
7.89
-3.45
-10.36
-12.01
-8.97
-3.15
2.84
6.56
6.51
2.56
-4.13
-11.68
-18.05
-21.66
-21.60
-17.69
-10.38
-0.66
10.01
19.97
27.59
31.63
31.59
27.82
21.48
14.13
7.37
2.33
-0.55
-1.62
-1.75
-1.97
-3.03
-5.14
-7.95
-10.77
-12.84
-13.53
-12.37
-9.15
-3.93
2.80
10.06
16.49
20.67
21.52
18.71
12.67
4.36
-5.06
-14.73
-24.11
-33.02
-41.45
-49.47
-57.23
-64.95
-72.93
-81.56
-91.32
-102.81
-116.85
-134.39
-156.05
-181.52
-209.00
-235.12
-255.69
-266.98
-267.04
-256.36
-237.58
-214.45
-190.54
-168.35
-149.16
-133.17
-119.95
-108.51
-97.06
-83.23
-64.45
-38.67
-5.27
34.57
78.06
121.61
161.92
196.82
225.25
246.69
260.51
265.50
260.38
244.72
219.97
189.80
159.37
133.30
113.89
100.63
91.14
82.96
75.09
68.40
64.76
65.95
71.28
77.46
80.22
76.72
67.01
53.59
39.81
28.02
19.75
13.82
7.25
-2.54
-15.86
-30.51
-43.09
-50.40
-50.13
-39.11
-16.63
14.87
50.72
86.02
117.27
143.12
164.90
186.18
213.59
249.81
290.86
327.49
349.66
350.81
329.97
291.62
226.64
140.25
49.63
-26.10
-77.80
-107.15
-119.71
-120.06
-111.29
-96.21
-75.85
-53.32
-34.11
-23.46
-23.61
-33.44
-50.16
-71.75
-95.86
-118.25
-136.81
-152.09
-165.67
-177.97
-187.82
-193.22
-193.30
-188.44
-179.17
-167.51
-156.42
-148.41
-144.29
-143.20
-142.96
-142.00
-139.33
-134.61
-129.20
-125.86
-127.40
-134.42
-146.73
-157.13
-157.82
-143.05
-111.40
-66.87
-17.24
28.95
65.20
87.67
95.28
87.81
65.69
30.63
-13.61
-61.21
-106.06
-144.19
-175.61
-202.38
-226.77
-248.43
-264.09
-269.45
-262.04
-243.07
-215.02
-184.52
-157.69
-137.96
-125.34
-117.39
-111.57
-106.65
-102.90
-101.07
-101.70
-103.82
-105.79
-106.18
-104.50
-101.29
-97.72
-94.70
-92.24
-89.71
-85.58
-78.30
-67.08
-52.14
-34.66
-16.12
2.30
20.17
37.64
55.38
73.99
93.52
113.32
132.21
148.96
162.80
173.58
181.65
187.74
192.61
196.84
200.90
205.23
210.32
216.70
224.79
234.79
246.92
261.68
279.91
302.20
327.92
354.46
377.37
391.75
394.09
383.78
363.29
337.04
309.61
284.32
262.83
245.64
232.79
224.13
218.91
215.18
209.59
198.18
177.97
148.64
113.25
77.53
47.68
27.45
16.20
8.65
-2.99
-25.62
-62.41
-111.95
-169.95
-231.79
-294.21
-354.99
-411.28
-458.10
-488.81
-497.52
-482.10
-445.91
-396.91
-344.69
-296.88
-256.98
-224.31
-195.37
-166.00
-132.42
-91.82
-42.31
17.10
85.94
161.53
238.68
310.31
368.65
407.66
424.70
421.15
401.57
371.89
337.25
300.32
260.86
216.86
167.06
112.92
59.74
15.67
-10.76
-13.95
6.54
45.42
93.69
142.61
185.78
220.30
246.01
263.59
272.78
271.96
258.14
228.91
186.23
135.74
85.87
45.57
21.29
14.20
21.16
35.60
51.38
67.85
86.91
109.90
135.07
157.75
172.24
176.61
172.38
163.90
158.59
159.70
164.51
166.23
158.60
138.77
110.09
77.69
28.03
-41.39
-122.50
-200.00
-260.71
-294.50
-308.89
-312.07
-311.72
-313.94
-320.05
-329.61
-342.03
-357.16
-374.60
-393.76
-405.91
-403.28
-382.65
-344.72
-294.90
-240.05
-186.22
-137.41
-95.69
-60.25
-30.72
-6.90
12.98
30.73
47.35
63.20
77.25
87.92
94.44
95.39
89.40
76.39
57.29
33.95
9.13
-14.92
-36.60
-54.54
-68.40
-78.44
-84.96
-87.92
-87.69
-84.96
-80.69
-75.78
-70.83
-66.39
-62.80
-60.16
-58.04
-56.24
-54.79
-53.98
-53.99
-54.99
-56.81
-58.80
-61.97
-63.87
-63.07
-58.94
-51.53
-41.31
-29.19
-15.93
-2.01
12.22
26.63
40.31
51.93
60.04
63.55
61.70
55.05
45.37
35.01
26.44
20.69
17.33
14.64
10.48
2.68
-9.22
-23.89
-38.80
-51.21
-59.93
-66.08
-73.33
-82.94
-98.56
-123.03
-156.64
-195.89
-233.62
-260.92
-270.14
-258.09
-227.48
-186.74
-145.84
-112.38
-88.97
-73.11
-59.45
-42.71
-19.80
9.36
41.31
70.50
90.12
93.97
79.04
47.80
9.05
-24.54
-41.19
-35.58
-10.98
22.52
53.45
74.98
87.87
98.70
114.76
138.90
166.61
188.40
194.93
181.64
150.64
108.85
64.50
24.48
-5.79
-22.62
-23.28
-6.29
27.14
72.16
120.28
161.76
188.87
199.40
195.66
183.40
170.41
164.60
171.94
194.26
227.85
263.90
292.44
304.16
293.93
262.82
217.22
165.86
116.22
72.59
28.01
-18.70
-63.43
-98.98
-119.46
-124.15
-117.04
-104.50
-92.67
-85.12
-81.55
-79.01
-76.93
-75.74
-77.06
-82.86
-95.01
-114.88
-141.99
-174.62
-212.10
-255.38
-301.93
-346.92
-383.00
-402.37
-399.71
-372.62
-323.56
-259.92
-191.35
-125.45
-66.16
-13.73
33.21
75.89
117.16
159.42
203.45
248.43
292.87
334.84
372.15
402.35
407.92
378.58
316.17
233.97
148.15
70.22
5.07
-47.10
-88.60
-122.54
-149.38
-169.11
-182.45
-191.25
-197.61
-203.08
-208.43
-213.95
-219.68
-224.58
-226.42
-223.99
-217.75
-209.01
-199.11
-189.10
-179.86
-172.19
-165.59
-159.47
-153.43
-147.78
-142.99
-139.12
-135.78
-132.23
-127.48
-119.54
-109.67
-98.15
-85.30
-71.40
-56.70
-41.38
-25.81
-10.51
4.13
17.88
31.18
44.56
58.65
74.01
90.85
108.90
127.47
145.69
162.82
178.91
194.28
209.59
225.60
243.20
263.04
285.18
308.45
330.24
347.03
355.07
351.66
336.17
310.25
277.16
240.53
203.29
167.10
132.78
100.67
71.24
45.13
22.98
4.99
-9.27
-20.79
-30.70
-39.92
-48.87
-57.40
-65.01
-71.26
-76.03
-79.66
-82.72
-85.71
-88.72
-91.30
-92.80
-92.60
-90.60
-87.24
-83.46
-80.31
-78.58
-78.51
-79.72
-81.39
-82.60
-82.64
-81.14
-77.90
-72.57
-64.54
-52.89
-36.78
-16.06
8.52
35.42
62.89
89.82
116.00
141.70
166.71
189.33
206.42
214.52
211.58
198.07
176.70
151.10
124.33
98.36
74.57
54.78
41.55
37.02
41.04
50.09
58.19
59.54
51.32
34.74
13.69
-8.00
-28.78
-49.25
-70.17
-89.90
-103.10
-101.94
-79.27
-32.27
34.88
111.10
181.51
232.30
255.66
252.45
231.35
204.92
184.13
173.99
172.25
171.47
162.66
138.78
96.82
38.33
-30.96
-101.82
-162.69
-202.15
-212.56
-193.58
-153.38
-106.53
-68.77
-50.99
-55.90
-78.70
-111.19
-146.29
-180.39
-212.19
-240.19
-260.83
-269.11
-261.35
-237.92
-203.88
-167.09
-134.57
-109.79
-92.44
-80.19
-70.99
-64.40
-61.26
-62.21
-66.55
-72.41
-77.51
-80.26
-80.13
-77.42
-72.57
-65.81
-57.05
-46.39
-34.49
-22.67
-12.47
-5.10
-0.78
1.22
2.24
3.48
5.37
7.57
9.45
10.75
12.07
14.62
19.53
27.15
36.70
46.66
55.38
61.91
66.25
69.14
71.69
74.99
79.74
86.33
94.74
104.65
115.51
126.44
135.92
141.57
140.68
131.36
113.79
90.98
68.10
50.41
41.13
40.14
44.13
48.27
47.93
40.09
23.52
-1.46
-32.95
-67.46
-100.05
-125.30
-139.11
-140.41
-131.85
-118.73
-106.73
-99.81
-99.18
-103.50
-110.27
-116.98
-121.90
-124.20
-123.78
-121.13
-117.36
-114.02
-112.82
-115.26
-122.06
-133.01
-147.08
-162.51
-177.17
-188.67
-194.52
-192.04
-178.60
-152.09
-111.26
-56.23
11.13
86.97
165.70
240.68
305.37
354.44
384.81
396.10
390.39
371.38
343.45
310.74
276.57
243.06
211.12
180.44
149.64
116.51
78.77
35.18
-13.29
-63.00
-108.22
-142.89
-162.80
-167.09
-158.39
-141.66
-122.26
-104.40
-90.48
-81.30
-76.85
-76.69
-80.01
-85.44
-91.08
-94.79
-94.85
-90.42
-81.60
-69.36
-55.21
-40.96
-28.38
-18.89
-13.11
-10.59
-9.97
-9.37
-7.18
-2.61
4.16
12.18
20.41
28.21
35.71
43.62
52.82
63.71
75.90
88.10
98.33
104.64
105.68
101.27
92.34
80.70
68.44
57.14
47.70
40.01
32.69
23.13
8.47
-13.00
-40.42
-70.02
-95.84
-111.79
-113.91
-101.91
-79.13
-51.11
-23.55
-0.82
14.70
22.29
22.28
15.62
3.77
-11.32
-27.44
-42.55
-55.37
-65.60
-73.78
-80.86
-87.69
-94.36
-100.06
-103.96
-106.07
-107.67
-110.88
-117.37
-126.73
-135.86
-139.77
-133.73
-115.77
-87.62
-53.89
-19.59
12.24
41.49
69.82
98.48
126.61
151.49
170.31
182.33
189.55
195.34
201.97
208.44
210.43
202.30
180.04
143.48
96.48
45.28
-4.00
-47.18
-82.44
-109.58
-128.84
-140.14
-143.16
-137.92
-125.45
-107.94
-88.30
-69.29
-52.82
-39.69
-29.94
-23.63
-21.17
-23.31
-30.43
-41.71
-54.83
-66.42
-73.17
-73.11
-66.25
-54.43
-40.41
-26.66
-14.54
-4.14
5.27
14.60
24.29
34.20
43.69
51.93
58.18
61.94
63.04
61.58
58.01
53.14
48.13
44.31
42.93
44.76
49.86
57.42
65.86
73.22
77.71
78.39
75.40
69.93
63.73
58.56
55.77
56.19
60.38
69.08
83.31
104.01
131.33
163.90
198.78
232.18
260.95
283.85
301.97
317.83
333.49
348.94
361.75
368.17
365.02
351.23
327.91
297.15
260.47
218.23
170.43
118.16
64.25
12.75
-33.02
-72.17
-106.61
-139.64
-173.79
-209.24
-243.84
-274.41
-298.55
-315.19
-324.15
-325.09
-317.02
-299.16
-272.08
-238.42
-202.36
-167.92
-137.45
-111.26
-88.44
-68.36
-51.63
-39.86
-34.55
-35.82
-42.15
-51.12
-60.61
-69.69
-78.63
-88.08
-98.18
-108.28
-117.19
-123.92
-128.30
-131.14
-133.70
-136.65
-139.31
-139.59
-134.86
-123.31
-105.08
-82.43
-58.98
-38.28
-22.76
-13.29
-9.60
-11.01
-16.94
-26.92
-40.28
-55.94
-72.49
-88.55
-103.26
-116.44
-128.33
-139.15
-148.64
-155.85
-159.29
-157.30
-148.52
-132.42
-109.42
-80.94
-49.03
-15.98
16.07
45.30
70.31
90.25
104.87
114.65
120.60
123.94
125.67
126.14
125.20
122.36
117.28
110.06
101.32
91.87
82.41
73.36
64.85
56.93
49.65
43.11
37.39
32.40
27.95
23.74
19.54
15.13
10.37
5.18
-0.52
-6.70
-13.15
-19.41
-24.80
-28.51
-29.83
-28.28
-23.67
-16.08
-5.84
6.50
20.18
34.23
47.54
59.00
67.73
73.24
75.45
74.61
71.10
65.28
57.45
47.88
36.90
25.05
12.94
1.12
-10.09
-20.63
-30.51
-39.62
-47.58
-53.77
-57.57
-58.85
-57.96
-55.65
-52.73
-49.64
-46.53
-43.68
-41.90
-42.46
-46.40
-53.78
-63.43
-73.52
-82.57
-90.26
-97.12
-103.39
-107.69
-106.66
-96.11
-73.31
-39.06
1.83
42.11
74.99
96.82
108.11
112.69
115.40
120.17
128.90
141.49
156.43
171.42
183.81
190.62
189.04
177.40
156.34
129.43
102.54
81.95
71.84
72.28
78.77
83.60
78.47
57.63
20.10
-29.93
-84.50
-134.71
-173.64
-198.06
-208.60
-208.29
-200.74
-188.65
-173.56
-156.27
-137.70
-119.16
-101.98
-86.81
-73.18
-59.81
-45.53
-30.13
-14.72
-1.23
8.47
13.64
15.09
14.84
15.23
17.69
22.17
27.32
31.43
33.58
34.31
35.50
39.43
47.74
60.53
76.34
92.69
107.00
117.40
123.16
124.73
123.37
120.69
118.25
117.36
119.01
123.83
132.13
143.76
158.02
173.73
189.75
205.56
221.88
240.56
263.75
292.53
325.70
359.38
387.92
405.71
409.01
397.17
372.48
338.97
300.77
260.93
221.01
181.40
142.11
103.17
64.93
27.91
-7.33
-40.17
-69.89
-95.66
-116.72
-132.61
-143.45
-149.90
-152.99
-153.80
-153.28
-152.14
-150.92
-150.16
-150.33
-151.74
-154.37
-157.80
-161.38
-164.46
-166.61
-167.69
-167.77
-167.04
-165.58
-163.44
-160.55
-156.78
-151.92
-145.78
-138.29
-129.59
-120.16
-110.72
-101.98
-94.29
-87.47
-80.95
-74.18
-67.04
-59.99
-54.01
-50.08
-48.66
-49.45
-51.46
-53.32
-53.79
-52.28
-48.97
-44.88
-41.55
-40.53
-42.55
-46.88
-51.03
-51.17
-43.24
-24.50
5.28
43.17
83.60
119.64
144.95
155.36
149.81
130.36
101.09
66.68
30.83
-4.85
-40.98
-79.57
-122.17
-168.06
-213.23
-251.09
-274.79
-279.79
-265.73
-236.54
-198.79
-159.48
-124.22
-96.49
-77.95
-68.93
-68.78
-76.01
-88.32
-103.06
-118.02
-132.11
-145.41
-158.41
-171.07
-182.10
-189.15
-189.56
-181.41
-164.26
-139.17
-108.34
-74.38
-39.86
-6.71
23.70
50.66
74.05
94.20
111.58
126.43
138.55
147.54
153.27
156.32
157.77
158.39
157.91
155.00
148.16
137.12
123.65
111.10
102.78
100.19
102.32
106.32
109.26
109.33
106.44
101.58
95.78
89.54
83.15
77.17
72.77
71.57
74.71
82.12
92.23
102.40
109.99
113.56
113.40
111.36
109.85
110.62
113.95
118.83
123.92
128.50
132.91
138.01
143.94
149.15
150.44
144.40
129.36
106.65
80.46
55.63
35.04
17.69
-1.17
-27.88
-67.03
-118.72
-177.48
-233.55
-275.98
-296.17
-290.69
-262.39
-219.43
-172.85
-133.57
-109.80
-105.27
-118.86
-145.40
-177.21
-205.87
-224.05
-227.16
-214.55
-189.74
-159.63
-132.62
-116.17
-114.45
-127.11
-149.52
-174.47
-194.87
-206.20
-207.88
-202.98
-196.53
-193.45
-196.66
-206.08
-218.96
-230.90
-237.22
-234.42
-221.33
-199.87
-174.72
-152.03
-137.03
-131.88
-134.59
-139.86
-141.44
-134.80
-118.73
-95.27
-68.09
-40.58
-14.60
9.70
33.46
58.65
87.46
121.76
162.25
207.38
252.58
290.69
313.93
316.45
296.44
256.73
203.83
145.82
90.15
42.31
5.35
-19.93
-34.73
-41.94
-45.39
-48.58
-53.08
-57.57
-58.16
-50.12
-30.20
1.54
41.31
82.93
119.99
147.85
164.52
170.54
168.15
160.24
149.66
138.94
129.93
123.64
120.00
117.97
115.97
112.36
105.95
96.20
83.20
67.55
50.14
31.98
14.11
-2.59
-17.35
-29.55
-38.70
-44.31
-45.85
-42.84
-35.01
-22.56
-6.48
11.45
28.94
43.72
54.14
59.55
60.33
57.56
52.69
47.10
42.02
38.36
36.72
37.28
39.68
43.09
46.36
48.40
48.43
46.20
41.91
36.08
29.34
22.27
15.34
8.92
3.32
-1.22
-4.46
-6.13
-5.97
-3.81
0.29
5.91
12.22
18.16
22.78
25.64
27.13
28.36
30.87
35.99
44.29
55.19
67.04
77.42
83.76
83.86
76.44
61.38
39.87
14.25
-12.36
-36.58
-55.49
-67.21
-71.25
-68.58
-61.27
-51.88
-42.78
-35.72
-31.54
-30.24
-31.20
-33.38
-35.63
-36.97
-36.79
-35.03
-32.14
-28.91
-26.14
-24.37
-23.84
-24.43
-25.84
-27.70
-29.60
-31.20
-32.30
-32.98
-33.67
-34.99
-37.39
-40.70
-43.96
-45.53
-43.70
-37.32
-26.41
-12.12
3.69
19.11
32.81
44.28
53.60
61.06
66.74
70.41
71.68
70.32
66.50
60.80
54.05
47.02
40.26
33.99
28.25
23.02
18.36
14.45
11.49
9.64
8.89
8.98
9.41
9.52
8.65
6.30
2.13
-3.91
-11.62
-20.45
-29.48
-37.44
-43.00
-45.06
-43.15
-37.61
-29.41
-19.90
-10.36
-1.72
5.44
10.81
14.23
15.62
15.07
12.90
9.71
6.22
3.09
0.80
-0.51
-1.01
-1.08
-1.08
-1.34
-1.98
-3.02
-4.38
-5.97
-7.72
-9.63
-11.76
-14.20
-17.11
-20.72
-25.25
-30.83
-37.34
-44.26
-50.65
-55.32
-57.07
-55.11
-49.27
-40.17
-28.97
-17.01
-5.50
4.77
13.36
20.07
24.83
27.68
28.86
28.81
28.20
27.67
27.71
28.43
29.67
31.07
32.26
32.96
32.98
32.22
30.66
28.37
25.51
22.31
18.99
15.70
12.47
9.24
5.88
2.17
-2.12
-7.14
-12.82
-18.69
-23.89
-27.31
-27.97
-25.41
-19.88
-12.27
-3.77
4.50
11.81
17.85
22.67
26.40
29.15
30.93
31.78
31.87
31.56
31.39
31.96
33.66
36.55
40.24
44.02
47.00
48.49
48.02
45.42
40.66
33.80
24.98
14.55
3.18
-8.11
-18.08
-25.65
-30.11
-31.42
-30.08
-26.98
-23.16
-19.58
-17.07
-16.26
-17.52
-20.79
-25.44
-30.33
-33.99
-35.09
-32.80
-27.07
-18.50
-8.05
3.34
15.06
26.66
37.79
47.93
56.33
62.19
64.93
64.34
60.76
54.98
48.03
40.97
34.69
29.72
26.24
24.11
22.95
22.36
21.96
21.49
20.83
20.00
19.07
18.16
17.38
16.82
16.45
16.10
15.46
14.23
12.23
9.46
6.14
2.57
-1.03
-4.57
-8.13
-11.83
-15.77
-19.94
-24.22
-28.41
-32.22
-35.20
-36.77
-36.28
-33.25
-27.58
-19.69
-10.41
-0.73
8.46
16.58
23.40
28.86
33.03
35.96
37.74
38.51
38.48
37.85
36.72
34.97
32.32
28.40
23.00
16.15
8.24
-0.12
-8.26
-15.70
-22.22
-27.90
-32.93
-37.44
-41.35
-44.45
-46.53
-47.65
-48.28
-49.21
-51.33
-55.28
-61.24
-68.94
-77.81
-87.30
-97.13
-107.35
-118.22
-129.79
-141.60
-152.37
-159.97
-161.68
-154.77
-137.27
-108.68
-70.43
-25.68
21.12
65.00
101.10
125.41
135.47
130.97
113.96
88.56
59.91
32.91
11.31
-2.55
-7.17
-1.12
16.90
47.31
88.30
135.21
181.15
218.86
242.99
251.94
248.20
237.31
225.90
219.63
221.87
233.33
252.42
276.12
300.74
322.49
337.82
343.57
337.17
317.09
283.25
237.54
183.73
126.93
72.47
24.44
-15.01
-45.99
-70.29
-90.26
-107.59
-122.67
-134.63
-142.10
-144.14
-140.85
-133.39
-123.52
-112.84
-102.36
-92.44
-82.99
-73.95
-65.49
-58.04
-52.21
-48.42
-46.72
-46.76
-47.98
-49.93
-52.46
-55.71
-59.96
-65.35
-71.71
-78.57
-85.38
-91.71
-97.40
-102.55
-107.34
-111.92
-116.28
-120.23
-123.45
-125.58
-126.38
-125.79
-124.19
-122.34
-121.29
-121.97
-124.87
-129.79
-135.86
-141.94
-147.04
-150.69
-152.98
-154.32
-155.04
-155.01
-153.52
-149.38
-141.42
-128.87
-111.70
-90.61
-66.74
-41.27
-15.17
10.82
35.94
59.12
78.88
93.66
102.34
104.72
101.62
94.47
84.65
73.00
59.69
44.57
27.76
9.95
-7.58
-23.37
-36.20
-45.27
-50.08
-50.23
-45.36
-35.22
-20.02
-0.74
20.88
42.47
61.39
75.05
81.36
79.04
68.01
49.53
26.04
0.64
-23.57
-44.11
-59.44
-69.00
-73.06
-72.55
-68.91
-63.83
-58.94
-55.27
-52.90
-50.87
-47.51
-41.11
-30.53
-15.53
3.25
24.61
47.06
69.06
89.05
105.61
117.62
124.48
126.39
124.26
119.51
113.55
107.42
101.53
95.78
89.89
83.73
77.53
71.74
66.80
62.92
59.92
57.37
54.78
51.81
48.27
44.16
39.53
34.38
28.70
22.51
15.86
8.88
1.78
-5.17
-11.68
-17.50
-22.53
-26.80
-30.55
-34.11
-37.82
-41.89
-46.29
-50.73
-54.63
-57.28
-58.04
-56.52
-52.80
-47.36
-40.85
-33.82
-26.48
-18.80
-10.80
-2.83
4.38
9.86
12.90
13.39
11.88
9.38
6.88
5.06
4.08
3.84
4.12
4.85
6.09
7.87
10.09
12.43
14.47
15.82
16.29
15.93
14.93
13.53
11.88
10.10
8.30
6.64
5.31
4.45
4.02
3.77
3.31
2.21
0.14
-2.98
-6.98
-11.46
-15.95
-20.06
-23.56
-26.49
-29.11
-31.80
-34.89
-38.51
-42.52
-46.38
-49.25
-50.19
-48.38
-43.47
-35.72
-26.01
-15.57
-5.64
2.97
9.95
15.49
19.99
23.76
26.97
29.58
31.51
32.76
33.42
33.59
33.35
32.66
31.43
29.61
27.31
24.80
22.47
20.61
19.31
18.40
17.56
16.43
14.86
12.88
10.69
8.49
6.35
4.18
1.74
-1.14
-4.44
-7.91
-11.04
-13.25
-14.14
-13.55
-11.75
-9.31
-6.87
-4.93
-3.78
-3.46
-3.96
-5.42
-8.05
-12.02
-17.11
-22.59
-27.28
-29.97
-29.83
-26.73
-21.27
-14.47
-7.38
-0.82
4.72
8.99
11.86
13.40
13.93
14.18
15.19
18.07
23.55
31.65
41.33
50.70
57.37
59.15
54.68
43.91
28.15
9.70
-8.80
-25.23
-38.59
-49.44
-59.36
-70.30
-83.47
-98.54
-113.49
-125.24
-130.86
-128.58
-118.37
-101.91
-82.19
-63.02
-48.30
-41.20
-43.06
-52.42
-64.83
-73.96
-73.96
-61.97
-39.61
-12.54
11.96
27.97
33.16
29.10
19.83
9.56
1.01
-5.01
-8.74
-10.38
-9.12
-3.29
8.77
27.54
51.60
77.76
101.91
120.28
130.57
132.47
127.47
118.06
106.69
95.02
83.66
72.48
61.15
49.73
38.92
29.78
23.41
20.59
21.73
27.04
36.58
49.99
66.19
83.08
97.79
107.40
109.82
104.52
92.50
75.87
57.00
38.01
20.46
5.39
-6.63
-15.49
-21.66
-26.14
-30.15
-34.71
-40.02
-45.32
-49.16
-49.93
-46.54
-38.89
-27.85
-14.98
-2.05
9.36
18.19
23.96
26.78
27.17
25.81
23.17
19.26
13.60
5.43
-5.75
-19.65
-35.02
-49.92
-62.36
-70.92
-75.11
-75.29
-72.27
-66.92
-59.92
-51.79
-42.96
-33.83
-24.71
-15.83
-7.36
0.45
7.19
12.36
15.48
16.30
14.97
11.97
8.18
4.83
3.38
5.30
11.43
21.46
33.71
45.43
53.74
56.63
53.56
45.41
33.78
20.19
5.79
-8.66
-22.38
-34.35
-43.50
-49.19
-51.66
-52.06
-52.09
-53.34
-56.59
-61.54
-66.89
-70.77
-71.40
-67.61
-59.14
-46.62
-31.29
-14.54
2.37
18.44
32.81
44.45
52.26
55.20
52.80
45.59
35.10
23.56
13.15
5.26
0.18
-2.85
-5.05
-7.57
-11.01
-15.36
-20.23
-25.14
-29.71
-33.75
-37.16
-39.90
-41.92
-43.19
-43.81
-44.11
-44.71
-46.39
-49.94
-55.68
-63.17
-71.17
-77.81
-81.29
-80.43
-75.09
-65.98
-54.28
-40.99
-26.69
-11.60
4.08
19.84
34.77
47.77
57.91
64.77
68.54
69.97
70.14
70.27
71.44
74.42
79.44
86.30
94.38
102.90
111.03
118.03
123.20
125.76
124.96
120.11
110.84
97.32
80.35
61.32
41.96
23.92
8.35
-4.48
-15.36
-25.90
-38.05
-53.51
-73.15
-96.74
-123.01
-149.94
-175.15
-196.28
-211.24
-218.55
-217.50
-208.34
-192.12
-170.45
-145.04
-117.35
-88.52
-59.46
-31.20
-5.07
17.27
34.11
44.17
46.98
43.22
34.61
23.51
12.42
3.36
-2.43
-4.69
-3.96
-1.31
2.01
4.88
6.46
6.32
4.37
0.86
-3.80
-9.16
-14.85
-20.68
-26.59
-32.61
-38.71
-44.69
-50.13
-54.40
-56.75
-56.56
-53.52
-47.81
-40.14
-31.54
-23.17
-16.04
-10.83
-7.75
-6.60
-6.75
-7.30
-7.27
-5.81
-2.51
2.38
7.85
12.41
14.49
12.99
7.68
-0.86
-11.42
-22.48
-32.53
-40.17
-44.17
-43.62
-38.11
-27.84
-13.58
3.53
22.48
42.64
63.90
86.30
109.54
132.58
153.61
170.45
181.24
184.96
181.73
172.58
159.02
142.61
124.67
106.31
88.54
72.44
58.98
48.69
41.50
36.71
33.41
31.04
29.76
30.46
34.39
42.46
54.69
69.97
86.41
101.90
114.80
124.36
130.62
134.06
134.98
133.12
127.57
117.15
100.82
78.22
50.25
19.55
-9.17
-29.75
-36.24
-25.10
2.70
41.29
81.39
113.64
131.84
134.90
126.13
110.64
92.26
71.77
47.16
15.66
-24.16
-71.19
-122.15
-173.00
-220.37
-262.26
-297.91
-327.04
-349.28
-364.08
-371.13
-370.89
-364.66
-354.19
-340.94
-325.46
-307.25
-285.07
-257.75
-225.00
-187.85
-148.46
-109.60
-73.60
-41.70
-13.47
12.86
39.54
68.27
99.29
131.13
161.19
186.77
206.15
219.72
230.24
241.97
258.98
283.13
312.90
343.78
369.90
386.09
389.86
381.87
364.69
340.99
312.08
277.41
235.88
187.19
132.37
74.54
18.43
-30.58
-67.55
-89.27
-95.30
-89.87
-78.97
-70.02
-68.40
-74.39
-83.42
-89.20
-86.45
-75.81
-60.35
-43.44
-27.72
-14.24
-2.87
5.37
9.41
7.96
0.05
-13.90
-32.06
-51.85
-70.49
-86.13
-98.67
-109.50
-120.90
-134.82
-151.46
-169.39
-186.45
-200.62
-210.57
-215.67
-215.27
-208.69
-195.74
-177.03
-154.68
-132.04
-112.57
-98.81
-91.60
-90.15
-92.88
-98.43
-105.99
-115.33
-126.40
-138.71
-150.90
-160.75
-165.41
-162.07
-148.90
-125.65
-94.17
-57.96
-21.26
12.23
40.31
62.50
79.52
92.34
101.56
107.31
109.63
109.12
107.24
106.29
108.62
115.82
127.86
142.92
157.75
168.71
172.85
168.70
156.35
137.15
113.19
86.79
60.10
34.78
11.49
-10.13
-31.35
-53.49
-76.96
-100.48
-121.28
-135.98
-142.03
-138.63
-126.95
-109.31
-88.13
-65.02
-40.57
-14.75
12.44
40.33
67.61
92.59
113.81
130.44
142.46
150.44
155.35
158.31
160.44
162.84
166.54
172.31
180.43
190.45
201.00
210.00
215.21
214.81
207.93
194.74
176.08
152.78
125.34
93.94
59.08
22.34
-13.40
-44.44
-67.62
-81.51
-87.10
-87.39
-86.14
-86.34
-89.17
-93.89
-98.55
-101.09
-100.12
-95.25
-86.82
-75.43
-61.61
-46.04
-29.72
-14.20
-1.43
6.78
9.34
6.40
-0.67
-9.68
-18.28
-24.49
-26.95
-24.85
-17.76
-5.71
10.62
29.61
48.55
64.10
73.16
73.86
66.16
51.86
33.77
14.76
-3.03
-18.40
-30.80
-39.97
-45.66
-47.81
-46.74
-43.39
-39.17
-35.49
-33.15
-31.82
-30.12
-26.11
-18.22
-6.04
9.39
25.86
40.85
52.29
59.08
60.92
57.99
50.56
38.87
23.39
4.98
-14.99
-34.83
-52.91
-67.96
-79.27
-86.61
-90.17
-90.36
-87.65
-82.54
-75.53
-67.18
-58.25
-49.60
-42.07
-36.28
-32.43
-30.17
-28.81
-27.56
-25.84
-23.42
-20.46
-17.35
-14.50
-12.28
-10.96
-10.79
-12.01
-14.60
-18.04
-21.04
-21.71
-18.01
-8.55
6.67
26.23
47.84
69.53
90.50
111.28
133.06
156.47
180.67
202.92
219.14
225.00
217.01
193.13
153.13
98.60
32.98
-38.33
-108.25
-169.04
-214.17
-240.36
-249.02
-246.06
-239.95
-238.63
-246.37
-262.09
-280.16
-292.88
-293.74
-279.74
-252.04
-214.49
-171.74
-127.38
-82.98
-38.90
4.91
47.84
88.31
123.96
152.75
173.32
185.66
190.68
188.67
179.20
161.42
134.94
100.68
61.52
20.85
-18.13
-52.95
-83.10
-108.38
-127.87
-139.64
-141.92
-133.67
-116.65
-93.93
-68.31
-42.80
-19.76
-1.07
11.48
16.28
13.38
3.51
-10.68
-17.71
-9.04
17.42
56.03
96.60
124.71
137.57
136.10
122.45
98.85
68.68
34.69
0.11
-31.57
-57.56
-75.96
-87.90
-95.70
-101.30
-106.33
-111.39
-115.88
-118.51
-118.14
-113.71
-105.75
-95.22
-82.87
-69.45
-55.07
-38.32
-16.47
13.58
53.85
102.60
154.28
200.74
233.43
246.28
237.98
212.12
175.46
135.59
98.35
67.12
43.14
26.15
14.96
7.77
2.25
-3.96
-12.23
-22.17
-31.37
-36.19
-33.31
-21.34
-1.55
22.53
46.50
66.45
79.83
85.55
83.65
74.92
60.68
42.68
22.67
1.94
-18.98
-40.15
-61.50
-81.97
-99.33
-110.72
-113.94
-108.53
-96.04
-79.44
-61.89
-45.74
-32.24
-21.97
-15.40
-13.40
-17.01
-26.92
-43.02
-64.24
-88.78
-114.55
-139.59
-162.20
-181.22
-196.13
-207.03
-214.29
-218.15
-218.27
-213.77
-203.53
-186.63
-162.68
-131.65
-93.71
-49.45
-0.83
47.73
89.26
116.14
123.29
111.26
87.14
62.30
48.08
51.71
74.49
113.00
161.78
215.43
269.13
317.66
354.57
373.03
368.35
340.63
295.67
243.20
193.55
154.04
127.27
111.09
100.08
87.83
68.86
40.30
2.80
-39.39
-79.57
-110.55
-126.94
-126.82
-112.09
-87.46
-58.60
-30.48
-6.35
12.22
25.05
32.89
37.04
38.77
38.95
37.79
34.76
29.16
20.48
8.67
-5.87
-22.53
-40.60
-59.38
-78.29
-97.14
-116.13
-135.79
-156.45
-177.80
-198.65
-217.14
-231.52
-240.98
-245.89
-247.33
-246.26
-242.74
-235.68
-223.29
-203.77
-176.05
-140.24
-97.91
-51.95
-6.16
35.46
69.98
96.28
115.47
130.19
143.41
157.25
172.54
189.01
205.86
222.20
237.08
249.31
257.43
260.07
256.54
247.38
234.43
220.36
207.95
199.37
195.63
196.47
200.45
205.26
208.16
206.73
199.51
186.44
168.73
148.19
126.55
104.70
82.69
59.95
36.05
11.20
-13.59
-36.83
-57.25
-74.27
-88.23
-100.13
-111.06
-121.81
-132.62
-143.26
-153.18
-161.65
-167.66
-169.82
-166.59
-156.66
-139.77
-117.16
-91.57
-66.50
-45.10
-29.21
-18.92
-12.84
-8.78
-4.72
0.67
7.76
16.21
25.27
34.03
41.61
47.17
50.04
49.85
46.70
41.16
34.24
27.12
20.73
15.50
11.24
7.38
3.29
-1.27
-6.12
-10.71
-14.39
-16.72
-17.65
-17.64
-17.47
-17.98
-19.71
-22.65
-26.26
-29.67
-32.05
-32.70
-31.17
-27.09
-20.18
-10.35
1.94
15.51
28.60
39.29
46.10
48.35
46.21
40.32
31.47
20.40
7.94
-4.89
-16.86
-26.69
-33.43
-36.58
-36.11
-32.30
-25.56
-16.41
-5.56
6.00
16.95
25.91
31.81
34.36
34.25
33.20
33.27
36.02
41.63
48.57
54.10
55.33
50.54
39.95
25.68
10.71
-2.33
-12.12
-18.81
-23.59
-27.73
-31.91
-35.92
-38.96
-40.17
-39.17
-36.24
-32.21
-28.06
-24.57
-22.20
-21.27
-22.11
-25.15
-30.60
-38.07
-46.31
-53.40
-57.30
-56.57
-50.84
-40.79
-27.80
-13.49
0.63
13.19
23.05
29.37
31.88
31.00
27.78
23.47
19.02
14.75
10.32
5.01
-1.87
-10.79
-21.90
-35.06
-49.76
-65.03
-79.36
-90.95
-98.15
-100.13
-97.24
-90.99
-83.62
-77.41
-74.12
-74.62
-78.76
-85.29
-92.12
-96.72
-96.93
-91.78
-81.90
-69.38
-56.73
-45.78
-36.93
-29.27
-21.43
-12.66
-3.40
4.85
10.37
12.04
9.92
5.02
-1.14
-7.20
-12.40
-16.64
-20.16
-23.14
-25.39
-26.14
-24.29
-18.82
-9.25
4.05
19.94
36.86
53.29
68.01
80.16
89.09
94.30
95.52
92.92
87.23
79.54
70.92
61.90
52.34
41.62
29.15
15.08
0.48
-12.78
-22.61
-27.33
-26.15
-19.35
-8.28
4.87
17.45
26.94
31.73
31.74
28.50
24.72
23.20
25.69
32.18
41.02
49.75
56.18
59.24
59.19
57.18
54.64
52.52
51.04
49.73
47.87
44.98
41.10
36.84
32.94
29.78
27.09
24.04
19.78
14.01
7.33
1.15
-2.84
-3.43
-0.37
5.39
11.82
16.06
14.92
5.49
-13.98
-43.27
-79.77
-118.70
-154.14
-180.52
-193.98
-193.27
-179.79
-157.09
-129.82
-102.67
-79.35
-62.02
-51.17
-45.84
-44.34
-44.83
-45.87
-46.54
-46.36
-44.97
-42.03
-37.24
-30.40
-21.42
-10.18
3.44
19.68
38.59
59.83
82.44
104.72
124.51
139.64
148.49
150.42
145.97
136.54
123.86
109.37
93.68
76.64
57.77
36.92
14.72
-7.38
-27.64
-44.66
-57.95
-68.01
-75.91
-82.79
-89.23
-94.96
-98.77
-98.83
-93.31
-81.03
-62.10
-38.18
-12.15
12.73
33.82
49.87
61.25
69.37
76.15
83.21
91.48
100.93
110.74
119.41
125.48
128.13
127.29
124.02
119.87
116.07
112.84
109.56
104.91
97.97
88.85
77.77
65.28
51.77
37.44
22.48
7.94
-5.12
-15.37
-21.50
-24.13
-24.87
-25.85
-28.82
-34.79
-43.13
-53.54
-66.12
-81.60
-102.96
-132.93
-171.93
-217.30
-263.87
-304.95
-336.57
-358.03
-362.63
-347.43
-312.79
-262.32
-202.51
-148.10
-104.58
-74.98
-59.88
-56.36
-58.90
-61.33
-58.28
-48.10
-33.10
-19.47
-15.75
-26.27
-47.80
-73.70
-96.99
-111.11
-112.77
-102.86
-86.49
-71.14
-63.59
-66.59
-77.96
-90.24
-93.51
-80.40
-49.60
-6.05
41.15
83.58
116.94
141.21
159.07
173.37
184.92
192.89
196.70
197.52
198.84
205.68
222.62
252.30
294.42
344.81
396.26
439.99
467.73
473.98
457.32
420.67
370.31
314.13
259.73
213.45
179.66
160.76
157.25
167.18
185.97
206.60
221.11
222.87
208.82
180.33
142.35
101.13
61.24
24.01
-12.44
-51.34
-95.14
-144.07
-196.19
-248.78
-299.92
-349.64
-399.39
-450.31
-501.18
-547.38
-581.78
-597.31
-590.27
-562.38
-520.93
-475.62
-434.99
-403.44
-380.27
-361.53
-342.67
-320.78
-295.24
-266.99
-237.05
-205.75
-172.70
-137.36
-99.79
-60.83
-22.23
14.09
46.43
73.88
96.23
113.98
128.10
139.71
150.11
161.15
175.40
195.65
223.55
257.91
293.62
322.20
334.22
322.42
284.17
222.41
144.81
61.87
-15.70
-79.44
-124.92
-152.24
-165.05
-168.38
-166.01
-158.77
-144.73
-121.34
-88.15
-48.21
-7.35
28.52
56.23
76.30
92.11
107.45
124.58
143.46
162.59
180.31
195.54
207.43
214.50
213.83
201.98
177.18
141.59
102.03
67.82
46.61
40.47
44.71
50.11
47.72
33.24
8.66
-19.51
-43.92
-59.61
-64.90
-60.19
-45.75
-20.59
16.72
66.63
126.86
192.07
254.88
308.10
346.70
368.87
375.91
370.78
356.31
334.06
304.22
266.62
222.10
173.06
122.99
75.33
32.22
-5.83
-39.37
-69.05
-94.75
-115.70
-131.06
-140.70
-145.48
-146.83
-146.00
-143.46
-138.93
-131.82
-122.07
-110.47
-98.49
-87.62
-78.81
-72.12
-67.01
-62.81
-59.19
-56.35
-54.80
-54.93
-56.55
-58.84
-60.61
-60.88
-59.37
-56.54
-53.16
-49.67
-45.84
-40.88
-34.03
-25.12
-14.75
-3.93
6.51
16.23
25.29
33.70
41.05
46.62
49.80
50.62
49.85
48.78
48.52
49.59
51.75
54.17
55.81
55.71
53.29
48.53
42.01
34.72
27.76
21.86
17.16
13.28
9.60
5.82
2.08
-1.11
-3.25
-4.25
-4.62
-5.19
-6.81
-10.00
-14.88
-21.36
-29.33
-38.73
-49.31
-60.43
-70.95
-79.50
-84.89
-86.65
-85.17
-81.58
-77.29
-73.59
-71.41
-71.30
-73.40
-77.50
-82.97
-88.80
-93.83
-97.18
-98.65
-98.89
-99.13
-100.63
-104.04
-108.96
-114.09
-117.69
-118.43
-116.03
-111.58
-107.23
-105.40
-107.66
-113.70
-120.85
-124.47
-119.32
-101.45
-69.68
-26.26
24.04
75.74
124.65
169.17
210.32
250.71
293.01
338.49
386.05
431.76
469.21
490.80
489.98
463.80
414.59
349.69
279.07
211.67
152.34
100.84
53.42
5.91
-43.52
-93.38
-139.87
-179.04
-208.60
-228.45
-239.93
-244.50
-242.94
-235.34
-221.75
-203.01
-181.07
-158.71
-138.74
-123.09
-112.25
-105.21
-100.03
-94.64
-87.72
-79.25
-70.49
-63.53
-60.32
-61.83
-67.57
-75.65
-83.40
-88.18
-88.03
-81.81
-69.19
-50.37
-26.01
2.53
33.17
63.10
89.25
108.92
120.36
123.07
117.64
105.40
88.12
67.97
47.67
30.41
19.42
16.87
22.68
33.94
45.14
49.66
41.78
18.46
-19.68
-68.45
-121.22
-170.21
-207.79
-227.55
-225.22
-199.33
-151.62
-86.76
-11.47
66.90
141.73
208.03
262.62
303.95
331.77
346.96
351.34
347.43
337.86
324.63
308.69
290.05
268.67
245.39
222.48
203.17
190.22
184.26
182.99
181.89
176.39
164.27
147.09
129.49
116.57
111.06
111.55
113.06
109.59
97.16
75.48
47.68
18.09
-10.06
-35.84
-60.31
-85.02
-110.51
-136.04
-160.47
-183.29
-204.95
-225.60
-243.45
-253.71
-249.57
-224.99
-178.35
-114.56
-44.36
19.01
64.26
85.25
81.51
56.44
14.78
-38.54
-97.83
-155.34
-201.25
-225.85
-223.34
-194.93
-149.37
-100.21
-60.88
-39.65
-37.37
-48.60
-65.25
-80.56
-91.20
-97.19
-100.10
-101.89
-104.25
-109.25
-119.60
-137.47
-163.33
-194.75
-227.19
-255.85
-277.73
-291.83
-297.73
-293.90
-278.04
-249.93
-214.40
-181.96
-164.98
-171.20
-198.49
-234.71
-263.16
-270.46
-252.75
-215.94
-170.90
-126.94
-87.48
-50.11
-10.06
35.79
87.45
142.32
197.75
252.47
306.25
358.62
407.16
447.30
473.34
481.08
469.56
441.88
403.99
362.61
323.16
288.62
259.60
235.20
214.10
195.10
177.37
160.28
143.42
126.62
109.99
93.98
79.28
66.54
56.03
47.52
40.34
33.52
26.11
17.41
7.24
-3.97
-15.54
-26.59
-36.32
-44.13
-49.58
-52.40
-52.19
-48.72
-42.15
-33.31
-23.66
-14.79
-7.60
-1.99
2.97
8.40
14.68
21.33
27.10
31.13
33.60
35.61
38.22
41.23
42.81
39.77
29.54
10.99
-14.34
-42.90
-70.89
-96.28
-120.03
-144.69
-172.79
-203.26
-231.92
-251.60
-255.13
-238.62
-203.64
-157.42
-109.57
-70.80
-48.46
-47.93
-70.85
-115.00
-174.15
-237.90
-293.47
-327.39
-333.25
-312.21
-276.93
-245.69
-235.64
-256.84
-308.87
-382.81
-464.47
-544.20
-592.29
-584.96
-511.28
-379.80
-214.83
-43.39
101.63
216.22
299.29
350.60
368.53
354.33
314.39
257.26
194.40
140.50
109.92
105.78
119.73
132.91
123.82
88.27
36.04
-14.85
-47.98
-52.58
-34.94
-12.07
-3.84
-21.64
-62.20
-110.88
-148.57
-160.95
-143.71
-105.22
-58.54
-15.21
19.07
44.57
63.53
77.82
87.87
94.27
97.86
101.89
110.60
126.59
148.34
169.14
180.08
174.23
150.14
112.19
69.39
32.20
9.41
6.55
24.99
62.39
112.68
165.74
208.04
225.81
209.81
159.84
86.31
7.20
-58.06
-95.00
-98.12
-70.97
-23.05
33.70
87.30
127.11
145.01
137.37
107.17
64.72
25.11
2.84
5.62
30.47
64.76
91.56
96.79
74.61
28.77
-30.13
-89.76
-140.67
-178.72
-204.58
-221.71
-233.69
-242.56
-248.41
-250.03
-245.86
-234.67
-215.71
-188.60
-153.16
-109.52
-58.61
-2.54
55.36
111.06
160.90
202.41
234.60
257.69
272.45
279.64
279.49
271.75
255.79
231.17
198.22
158.53
115.05
71.67
32.38
0.24
-23.30
-38.61
-47.36
-51.90
-54.60
-57.53
-62.27
-69.72
-80.01
-92.33
-105.08
-116.14
-123.21
-124.11
-116.97
-100.48
-74.06
-38.64
2.83
45.35
82.82
109.99
124.50
127.88
124.75
120.57
119.15
121.60
126.90
133.30
139.49
144.62
147.43
145.83
137.60
122.07
101.47
80.66
64.91
57.41
57.70
62.48
67.62
70.04
68.01
60.31
45.21
20.53
-14.94
-60.02
-110.74
-161.41
-206.59
-242.71
-268.61
-284.93
-292.96
-293.70
-287.51
-274.20
-253.26
-224.57
-189.27
-150.50
-113.55
-84.43
-67.41
-62.48
-64.36
-64.06
-52.41
-23.92
21.07
76.73
134.36
185.75
225.53
251.84
265.46
268.36
262.53
249.66
231.45
210.09
188.47
169.75
156.39
149.22
146.99
146.60
144.33
137.23
124.28
106.56
86.58
66.94
49.28
33.78
19.52
5.22
-9.89
-25.66
-41.12
-54.85
-65.58
-72.67
-76.16
-76.83
-75.86
-74.52
-73.72
-73.77
-74.29
-74.38
-73.00
-69.38
-63.32
-55.27
-46.10
-36.82
-28.26
-20.80
-14.31
-8.22
-1.69
6.02
15.23
25.64
36.21
45.38
51.35
52.54
47.87
37.14
21.26
2.34
-16.54
-31.73
-39.85
-38.57
-27.51
-8.57
14.14
35.27
49.58
53.59
46.77
31.77
13.53
-2.48
-12.10
-13.63
-7.96
2.39
14.38
25.42
33.64
37.76
36.92
30.80
20.00
6.31
-7.36
-17.62
-21.59
-17.80
-6.59
10.03
29.09
47.38
62.07
70.99
72.80
67.16
54.89
38.17
20.26
4.72
-5.60
-9.62
-8.28
-4.13
-0.23
1.10
-1.07
-6.23
-13.04
-20.10
-26.53
-32.01
-36.66
-40.64
-43.94
-46.36
-47.65
-47.88
-47.57
-47.69
-49.27
-52.84
-58.03
-63.52
-67.55
-68.66
-66.44
-61.67
-56.04
-51.32
-48.47
-47.23
-46.33
-44.21
-39.91
-33.75
-27.43
-23.52
-24.60
-32.20
-46.08
-63.94
-81.85
-95.18
-99.88
-93.59
-76.37
-50.66
-20.56
9.33
35.03
53.97
65.29
69.58
68.43
63.95
58.24
52.95
48.91
46.00
43.43
40.15
35.43
29.17
21.94
14.62
8.22
3.65
1.70
3.17
8.74
18.63
32.06
46.87
59.57
66.17
63.31
49.51
25.82
-4.31
-35.82
-63.22
-81.91
-89.23
-84.96
-71.26
-52.07
-31.93
-14.78
-3.01
2.98
4.35
3.05
0.89
-1.01
-2.22
-2.64
-2.24
-1.05
0.71
2.38
3.03
1.82
-1.36
-5.61
-8.96
-9.10
-4.28
5.74
19.32
33.19
43.53
47.23
42.92
31.46
15.67
-0.58
-13.51
-20.38
-20.15
-13.56
-2.93
8.32
16.44
18.26
12.18
-1.10
-18.48
-35.29
-46.58
-48.74
-40.57
-23.58
-1.58
20.39
37.28
45.18
42.30
29.62
10.80
-8.70
-23.13
-28.32
-22.90
-8.61
10.52
29.57
44.10
51.08
49.31
39.37
23.44
4.78
-12.95
-26.56
-34.09
-35.12
-30.57
-22.11
-11.59
-0.72
8.95
15.92
18.71
16.24
8.16
-4.63
-19.96
-34.74
-45.75
-50.64
-48.52
-40.19
-27.64
-13.39
0.11
10.82
17.05
17.56
11.70
-0.10
-15.94
-32.55
-46.05
-53.15
-52.20
-43.68
-29.90
-14.11
0.38
11.01
16.23
15.75
10.51
2.55
-5.44
-10.81
-11.84
-8.24
-1.15
7.40
15.43
21.67
25.86
28.41
29.91
30.51
29.57
25.84
17.78
4.36
-14.24
-36.28
-58.66
-77.76
-90.61
-95.87
-94.08
-87.16
-77.37
-66.33
-54.62
-41.92
-27.57
-11.13
7.36
27.41
48.14
68.33
86.46
100.82
109.86
112.47
108.23
97.31
80.18
57.46
29.99
-0.80
-32.67
-62.59
-87.26
-103.78
-110.34
-106.48
-93.03
-71.78
-45.11
-15.62
14.20
42.47
68.20
91.46
113.13
134.27
155.52
176.65
196.45
213.18
225.12
231.15
230.96
225.08
214.39
199.62
181.05
158.33
130.87
98.26
60.54
18.04
-29.14
-81.34
-138.65
-199.60
-259.88
-312.28
-348.51
-362.10
-351.11
-319.07
-273.39
-222.14
-171.16
-122.94
-77.67
-35.45
2.34
33.18
55.07
68.05
74.60
78.33
82.06
86.53
90.51
92.02
89.93
84.77
78.37
72.75
69.06
67.14
65.86
63.90
60.46
55.52
49.80
44.32
39.87
36.54
33.60
29.64
23.05
12.76
-1.41
-18.59
-37.24
-55.67
-72.49
-86.86
-98.60
-108.06
-115.90
-122.63
-127.96
-130.22
-126.27
-112.05
-83.89
-39.89
19.09
89.49
165.89
242.32
313.33
374.39
421.98
453.52
467.61
464.23
444.99
412.77
371.05
323.08
271.32
217.28
161.68
104.72
46.10
-14.78
-78.16
-142.73
-204.60
-257.35
-293.58
-307.81
-299.25
-272.95
-238.62
-207.36
-187.87
-183.84
-193.56
-211.58
-231.06
-245.79
-251.07
-244.10
-224.45
-194.74
-160.91
-131.53
-115.50
-119.13
-143.41
-182.98
-227.37
-264.20
-282.84
-277.29
-247.20
-197.13
-134.72
-68.63
-6.76
44.92
83.00
106.86
118.28
120.86
119.11
117.48
119.37
126.39
137.84
150.66
159.98
160.26
146.94
118.29
76.56
28.01
-18.61
-54.76
-74.95
-78.61
-70.23
-57.54
-48.39
-47.74
-55.88
-68.57
-79.10
-81.46
-73.29
-57.47
-41.56
-35.14
-45.73
-75.30
-118.56
-164.14
-198.36
-210.35
-196.26
-160.96
-116.33
-77.26
-56.85
-62.71
-95.22
-148.03
-210.21
-269.12
-313.45
-335.60
-332.79
-307.07
-263.94
-210.52
-153.64
-98.56
-48.23
-3.17
38.07
78.12
119.40
163.02
207.78
250.11
285.22
308.82
318.72
315.64
302.81
284.79
266.02
249.61
236.84
227.28
219.39
211.29
201.64
190.01
177.03
163.98
152.15
142.27
134.32
127.53
120.69
112.49
101.89
88.29
71.66
52.63
32.27
12.04
-6.52
-21.94
-33.08
-39.30
-40.53
-37.35
-30.95
-22.92
-14.98
-8.67
-5.00
-4.27
-6.09
-9.51
-13.45
-17.04
-19.94
-22.33
-24.65
-27.08
-29.23
-30.03
-28.06
-22.08
-11.66
2.61
19.29
36.56
52.79
67.03
79.00
88.87
96.90
103.18
107.43
108.90
106.50
99.10
86.17
68.39
48.05
28.64
13.75
5.47
3.11
3.00
-0.65
-13.92
-41.31
-84.35
-140.89
-205.08
-268.23
-320.61
-353.86
-363.28
-349.15
-316.21
-271.53
-221.81
-171.50
-122.48
-75.29
-30.56
10.37
46.12
76.56
103.65
130.90
161.82
198.17
239.22
282.43
324.87
364.49
400.52
432.59
459.67
479.62
489.78
488.35
475.53
453.62
425.92
395.33
363.25
329.45
292.96
252.85
208.59
159.90
106.81
50.32
-6.81
-60.10
-104.67
-137.06
-156.39
-164.11
-162.41
-152.87
-136.22
-113.58
-88.02
-64.74
-49.62
-46.60
-55.90
-74.29
-97.39
-122.32
-149.06
-179.27
-213.92
-251.18
-286.13
-312.75
-326.86
-328.49
-322.52
-317.23
-321.14
-339.54
-371.97
-411.75
-447.89
-468.63
-465.38
-435.38
-382.36
-314.85
-243.24
-176.78
-121.60
-80.27
-52.62
-36.83
-30.37
-30.17
-32.57
-33.66
-30.05
-19.84
-3.24
17.70
40.00
60.82
78.39
92.32
103.26
112.36
120.65
128.69
136.34
142.92
147.42
148.91
146.92
141.57
133.50
123.67
112.99
102.16
91.70
81.96
73.25
65.84
59.89
55.35
51.86
48.51
43.86
36.18
24.24
8.28
-9.32
-24.29
-31.79
-28.24
-12.92
11.68
40.79
69.15
92.66
109.18
118.30
120.58
116.94
108.45
96.40
82.40
67.97
54.25
41.63
29.85
18.41
6.90
-4.73
-16.23
-27.12
-36.86
-44.85
-50.68
-54.28
-56.07
-56.97
-58.09
-60.28
-63.75
-68.04
-72.25
-75.57
-77.55
-78.21
-77.91
-77.10
-76.12
-75.01
-73.49
-70.93
-66.56
-59.70
-50.11
-38.22
-25.12
-12.21
-0.71
8.72
16.20
22.40
28.12
33.83
39.44
44.41
48.02
49.81
49.72
48.16
45.76
43.12
40.58
38.17
35.64
32.74
29.30
25.28
20.82
16.11
11.40
6.97
3.17
0.36
-1.26
-1.79
-1.72
-1.95
-3.58
-7.54
-14.28
-23.53
-34.35
-45.37
-55.19
-62.65
-67.01
-67.92
-65.32
-59.36
-50.53
-39.79
-28.65
-18.99
-12.65
-10.84
-13.70
-20.32
-29.08
-38.32
-46.81
-53.94
-59.52
-63.51
-65.86
-66.62
-66.17
-65.29
-65.05
-66.34
-69.47
-74.08
-79.34
-84.41
-88.90
-93.05
-97.48
-102.81
-109.26
-116.48
-123.73
-130.19
-135.40
-139.34
-142.24
-143.89
-143.19
-138.08
-126.13
-105.54
-76.07
-39.32
1.86
44.28
85.10
121.96
152.78
175.81
190.24
197.00
198.99
200.19
203.90
210.93
219.10
224.40
223.23
214.35
199.46
182.10
165.69
151.96
140.61
130.16
119.21
107.39
95.28
83.96
74.25
66.31
59.70
53.73
47.91
42.13
36.64
31.71
27.45
23.54
19.32
13.97
6.83
-2.30
-13.19
-25.17
-37.45
-49.33
-60.39
-70.51
-79.76
-88.26
-96.13
-103.48
-110.48
-117.30
-124.13
-131.22
-138.83
-147.37
-157.34
-169.06
-182.44
-196.81
-210.95
-223.40
-232.74
-237.77
-237.37
-230.44
-215.84
-192.77
-161.19
-122.15
-77.74
-30.48
17.09
62.77
104.65
141.01
170.44
192.14
206.19
213.56
215.68
213.68
208.00
198.48
185.03
168.37
150.50
134.47
123.65
120.77
127.14
142.27
164.15
189.72
215.71
239.33
258.84
273.65
284.18
291.42
296.51
300.39
303.44
305.37
305.18
301.49
293.07
279.55
261.80
241.77
221.72
203.29
186.78
171.19
154.85
136.33
115.20
92.32
69.55
49.34
34.22
26.15
25.94
32.77
44.00
55.78
64.31
67.35
65.19
60.41
56.41
55.56
57.85
60.95
61.50
56.82
46.05
30.02
10.33
-12.05
-37.31
-66.43
-100.40
-139.58
-183.48
-230.94
-280.07
-327.89
-370.12
-401.74
-418.59
-419.35
-406.58
-386.18
-365.16
-348.96
-339.71
-336.32
-335.95
-335.81
-334.13
-329.62
-320.62
-304.73
-279.62
-244.47
-201.00
-153.15
-105.45
-61.39
-22.21
12.74
44.89
75.31
104.14
130.78
154.28
173.70
188.05
196.29
197.44
191.04
177.67
159.09
137.88
116.77
98.05
83.18
72.75
66.63
63.89
62.83
61.04
55.68
44.20
24.91
-2.35
-36.08
-73.58
-111.83
-148.44
-182.15
-212.63
-239.63
-262.09
-278.02
-285.21
-282.22
-269.22
-247.98
-221.16
-191.21
-159.74
-127.44
-94.33
-60.27
-25.08
11.33
48.72
86.08
121.34
151.57
173.74
185.81
187.44
180.15
166.64
149.85
132.13
115.02
99.28
85.15
72.71
62.00
53.14
46.17
41.01
37.20
33.77
29.41
22.87
13.63
2.26
-9.43
-19.07
-24.57
-24.95
-20.66
-13.41
-5.61
0.39
2.86
1.20
-3.93
-10.73
-16.83
-20.06
-19.40
-15.37
-9.84
-5.19
-3.23
-4.34
-7.43
-10.53
-11.76
-10.10
-5.36
2.14
12.21
24.84
39.98
56.96
74.19
89.34
100.03
104.72
103.32
97.25
89.01
81.55
77.39
77.98
83.27
91.74
100.97
108.41
112.36
112.47
109.63
105.37
101.22
98.22
96.79
96.81
97.47
97.18
93.50
83.71
65.56
38.31
3.13
-37.45
-80.39
-122.98
-162.85
-197.59
-224.33
-240.06
-242.72
-232.39
-211.55
-184.38
-155.28
-127.58
-103.24
-83.16
-67.66
-56.73
-49.70
-45.09
-40.89
-35.39
-28.12
-20.10
-13.17
-8.92
-7.56
-7.91
-8.03
-6.27
-2.07
3.97
10.55
16.41
20.77
23.57
25.25
26.37
27.18
27.47
26.89
25.34
23.56
23.01
25.35
31.54
41.08
51.96
61.28
66.40
65.94
60.20
50.81
39.96
29.53
20.52
12.98
6.18
-0.94
-9.56
-20.70
-35.04
-52.64
-72.54
-92.56
-109.38
-119.29
-119.22
-107.91
-86.54
-58.60
-29.04
-2.93
15.70
24.55
23.09
12.28
-6.06
-29.67
-56.25
-83.62
-109.81
-133.20
-152.48
-166.77
-175.56
-178.76
-176.66
-169.94
-159.61
-146.97
-133.38
-120.10
-108.06
-97.99
-90.45
-85.94
-84.57
-85.53
-86.61
-84.35
-75.01
-56.00
-27.24
8.53
46.69
82.61
113.36
138.57
159.98
180.08
200.80
222.67
244.92
266.05
284.49
299.06
308.96
313.71
313.04
306.91
295.81
281.03
264.67
249.17
236.49
227.07
219.36
210.07
195.32
172.13
139.64
99.39
54.67
9.33
-33.24
-70.56
-101.01
-123.63
-138.12
-145.08
-146.22
-144.06
-141.13
-139.05
-137.95
-136.58
-133.23
-126.71
-117.04
-105.40
-93.56
-83.15
-75.25
-70.29
-68.18
-68.54
-70.63
-73.39
-75.50
-75.76
-73.46
-68.72
-62.45
-56.02
-50.77
-47.58
-46.71
-47.68
-49.53
-51.04
-51.12
-49.07
-44.91
-39.31
-33.40
-28.28
-24.71
-22.86
-22.40
-22.76
-23.26
-23.27
-22.19
-19.47
-14.83
-8.33
-0.52
7.67
15.21
21.35
25.71
28.28
29.23
28.89
27.79
26.85
27.27
30.11
35.71
43.28
50.90
56.11
56.83
52.19
42.87
30.72
17.98
6.48
-2.87
-9.98
-15.12
-18.48
-19.95
-19.31
-16.56
-12.29
-7.74
-4.49
-3.85
-6.35
-11.53
-18.15
-24.71
-29.94
-33.17
-34.31
-33.65
-31.58
-28.38
-24.22
-19.29
-14.02
-9.14
-5.58
-4.15
-5.19
-8.31
-12.44
-16.22
-18.47
-18.65
-16.91
-14.01
-10.84
-8.17
-6.44
-5.75
-6.09
-7.39
-9.58
-12.51
-15.80
-18.90
-21.13
-21.92
-21.01
-18.51
-14.80
-10.38
-5.65
-0.86
3.90
8.53
12.85
16.61
19.59
21.71
23.10
24.01
24.71
25.31
25.75
25.89
25.59
24.89
23.89
22.79
21.68
20.56
19.34
17.90
16.24
14.48
12.87
11.74
11.35
11.87
13.28
15.40
17.84
20.10
21.63
21.94
20.64
17.60
12.99
7.30
1.31
-4.12
-8.29
-10.85
-11.79
-11.25
-9.31
-5.82
-0.58
6.44
14.74
23.32
30.89
36.30
38.95
38.85
36.44
32.31
26.96
20.82
14.37
8.21
3.02
-0.63
-2.49
-2.71
-1.77
-0.29
1.17
2.21
2.69
2.57
1.92
0.75
-0.99
-3.36
-6.36
-9.75
-13.05
-15.58
-16.74
-16.24
-14.24
-11.31
-8.20
-5.49
-3.41
-1.80
-0.27
1.51
3.67
6.02
8.16
9.60
9.96
9.15
7.39
5.16
3.04
1.51
0.82
1.02
1.93
3.31
4.87
6.29
7.28
7.71
7.74
7.79
8.43
10.09
12.81
16.05
18.95
20.62
20.59
18.93
16.22
13.15
10.21
7.54
4.88
1.88
-1.63
-5.42
-8.89
-11.22
-11.74
-10.18
-6.89
-2.67
1.50
4.88
7.26
8.93
10.54
12.61
15.32
18.36
21.13
23.04
23.74
23.20
21.57
19.22
16.95
16.19
18.87
26.82
40.63
58.75
77.37
91.47
96.61
90.68
74.66
52.15
27.71
5.17
-13.43
-27.74
-38.35
-45.96
-50.90
-53.39
-53.84
-53.13
-52.46
-52.81
-54.52
-56.95
-58.89
-59.06
-56.81
-52.43
-46.96
-41.66
-37.42
-34.39
-31.98
-29.25
-25.45
-20.40
-14.70
-9.40
-5.62
-3.98
-4.36
-5.93
-7.54
-8.20
-7.47
-5.63
-3.38
-1.59
-0.86
-1.25
-2.32
-3.27
-3.23
-1.53
2.04
7.26
13.45
19.72
25.19
29.29
31.83
32.95
33.03
32.44
31.44
30.09
28.30
25.98
23.15
20.02
16.95
14.33
12.48
11.49
11.25
11.51
12.00
12.51
12.89
13.03
12.88
12.39
11.64
10.77
9.96
9.38
9.01
8.69
8.16
7.20
5.75
3.96
2.11
0.57
-0.33
-0.37
0.55
2.31
4.54
6.64
7.88
7.68
5.80
2.46
-1.73
-6.06
-9.97
-13.26
-16.03
-18.54
-21.03
-23.48
-25.68
-27.35
-28.17
-28.00
-26.84
-24.83
-22.25
-19.37
-16.48
-13.78
-11.44
-9.53
-8.08
-7.05
-6.38
-5.97
-5.68
-5.43
-5.16
-4.87
-4.64
-4.61
-4.92
-5.63
-6.70
-7.92
-8.99
-9.63
-9.71
-9.31
-8.67
-8.10
-7.85
-8.04
-8.65
-9.64
-10.95
-12.59
-14.50
-16.53
-18.35
-19.59
-19.98
-19.49
-18.33
-16.86
-15.39
-14.01
-12.57
-10.84
-8.62
-5.87
-2.77
0.41
3.42
6.12
8.44
10.36
11.82
12.74
13.07
12.86
12.29
11.69
11.49
12.03
13.50
15.79
18.52
21.22
23.43
24.85
25.44
25.22
24.28
22.65
20.33
17.34
13.89
10.28
6.89
4.05
1.91
0.41
-0.64
-1.55
-2.67
-4.32
-6.68
-9.79
-13.41
-17.10
-20.24
-22.28
-22.83
-21.80
-19.40
-16.09
-12.38
-8.79
-5.72
-3.42
-1.97
-1.26
-1.00
-0.86
-0.51
0.24
1.39
2.79
4.18
5.34
6.12
6.50
6.57
6.48
6.37
6.37
6.58
6.98
7.53
8.12
8.65
9.02
9.16
9.03
8.61
7.94
7.07
6.07
5.03
4.06
3.18
2.42
1.70
0.90
-0.10
-1.31
-2.62
-3.73
-4.26
-3.86
-2.35
0.16
3.36
6.86
10.32
13.59
16.63
19.50
22.25
24.92
27.44
29.61
30.98
30.93
28.80
24.16
17.09
8.28
-1.07
-9.52
-15.87
-19.33
-19.62
-16.88
-11.47
-3.96
4.86
13.97
22.17
28.36
31.77
32.26
30.17
26.22
21.17
15.57
9.78
4.04
-1.37
-6.09
-9.76
-12.10
-13.04
-12.63
-11.03
-8.45
-5.19
-1.68
1.64
4.38
6.34
7.58
8.23
8.34
7.76
6.14
3.21
-0.97
-5.83
-10.39
-13.61
-14.72
-13.51
-10.27
-5.67
-0.41
4.94
10.10
14.91
19.25
22.94
25.69
27.24
27.47
26.50
24.67
22.41
20.11
17.96
15.92
13.70
10.96
7.42
3.05
-1.85
-6.71
-10.94
-14.12
-16.19
-17.38
-18.01
-18.27
-18.08
-17.21
-15.58
-13.46
-11.57
-10.81
-11.98
-15.36
-20.58
-26.72
-32.57
-36.91
-38.81
-37.65
-33.30
-26.07
-16.79
-6.68
2.74
10.00
14.00
14.25
11.07
5.46
-1.18
-7.41
-12.14
-14.75
-15.24
-14.05
-11.90
-9.54
-7.61
-6.55
-6.51
-7.43
-9.05
-11.01
-12.95
-14.58
-15.73
-16.29
-16.23
-15.56
-14.34
-12.70
-10.78
-8.73
-6.64
-4.54
-2.37
-0.13
2.13
4.24
6.03
7.42
8.50
9.58
10.98
12.95
15.47
18.28
20.85
22.66
23.38
22.94
21.56
19.57
17.28
14.79
12.06
8.98
5.54
1.96
-1.38
-4.08
-5.94
-7.13
-8.09
-9.38
-11.44
-14.31
-17.68
-20.96
-23.54
-24.93
-24.89
-23.37
-20.59
-16.94
-12.97
-9.34
-6.62
-5.13
-4.86
-5.46
-6.42
-7.25
-7.62
-7.40
-6.62
-5.44
-4.05
-2.68
-1.56
-0.87
-0.64
-0.78
-1.10
-1.45
-1.82
-2.30
-3.06
-4.16
-5.49
-6.80
-7.85
-8.54
-8.97
-9.39
-10.05
-11.10
-12.48
-13.99
-15.43
-16.63
-17.55
-18.22
-18.68
-18.91
-18.81
-18.19
-16.86
-14.61
-11.32
-6.94
-1.52
4.75
11.51
18.26
24.41
29.43
32.95
34.87
35.38
34.81
33.50
31.70
29.50
26.96
24.15
21.25
18.57
16.37
14.78
13.69
12.84
11.94
10.78
9.35
7.81
6.30
4.92
3.61
2.33
1.11
0.16
-0.24
0.08
1.07
2.40
3.63
4.39
4.63
4.62
4.80
5.57
7.12
9.33
11.90
14.50
16.87
18.89
20.56
21.91
22.92
23.57
23.78
23.53
22.84
21.78
20.45
18.97
17.43
15.98
14.69
13.60
12.63
11.59
10.28
8.66
6.97
5.69
5.35
6.23
8.18
10.58
12.59
13.44
12.77
10.69
7.73
4.55
1.70
-0.60
-2.46
-4.23
-6.24
-8.70
-11.54
-14.43
-16.92
-18.58
-19.19
-18.84
-17.98
-17.40
-18.10
-20.92
-26.16
-33.15
-40.18
-44.85
-44.78
-38.51
-26.11
-9.28
9.16
26.10
39.00
46.45
48.19
44.96
38.01
28.82
18.83
9.34
1.44
-4.20
-7.31
-8.20
-7.62
-6.57
-6.00
-6.48
-8.09
-10.44
-12.87
-14.78
-15.81
-15.98
-15.63
-15.29
-15.55
-16.86
-19.43
-23.13
-27.48
-31.76
-35.21
-37.22
-37.54
-36.21
-33.54
-29.84
-25.43
-20.61
-15.72
-11.23
-7.65
-5.42
-4.71
-5.31
-6.69
-8.14
-9.02
-9.01
-8.07
-6.46
-4.58
-2.84
-1.54
-0.89
-0.96
-1.70
-2.93
-4.36
-5.67
-6.61
-7.02
-6.95
-6.57
-6.10
-5.68
-5.40
-5.22
-5.07
-4.88
-4.55
-4.02
-3.28
-2.30
-1.10
0.26
1.73
3.19
4.55
5.67
6.44
6.81
6.81
6.62
6.46
6.61
7.25
8.35
9.70
10.97
11.84
12.18
12.07
11.74
11.43
11.26
11.13
10.84
10.20
9.17
7.86
6.48
5.25
4.31
3.69
3.38
3.34
3.54
3.93
4.44
4.92
5.16
4.99
4.31
3.19
1.80
0.30
-1.27
-3.02
-5.16
-7.83
-10.91
-13.96
-16.40
-17.71
-17.66
-16.39
-14.34
-11.98
-9.65
-7.41
-5.16
-2.75
-0.22
2.17
3.99
4.83
4.55
3.34
1.75
0.36
-0.40
-0.52
-0.33
-0.32
-0.81
-1.74
-2.70
-3.17
-2.80
-1.64
-0.18
0.76
0.35
-1.87
-5.77
-10.56
-14.99
-17.82
-18.40
-17.07
-15.17
-14.58
-16.84
-22.40
-30.22
-38.09
-43.56
-45.00
-42.36
-37.10
-31.55
-27.80
-26.87
-28.50
-31.50
-34.20
-34.81
-31.65
-23.51
-10.51
5.18
19.29
26.70
23.91
11.46
-5.23
-17.44
-16.70
1.23
34.29
74.67
112.09
137.76
147.40
141.94
125.94
105.03
83.66
64.05
46.59
30.97
17.30
6.36
-0.94
-4.38
-4.95
-4.68
-5.61
-8.86
-14.07
-19.75
-24.21
-26.58
-27.14
-27.00
-27.56
-29.58
-32.86
-36.34
-38.43
-37.66
-33.17
-25.09
-14.53
-3.33
6.53
13.49
16.80
16.60
13.67
9.03
3.53
-2.23
-7.90
-13.18
-17.72
-21.14
-23.20
-23.89
-23.42
-22.19
-20.54
-18.78
-17.06
-15.51
-14.33
-13.72
-13.86
-14.82
-16.48
-18.59
-20.90
-23.22
-25.49
-27.72
-30.00
-32.33
-34.76
-37.26
-39.78
-42.28
-44.65
-46.74
-48.44
-49.70
-50.65
-51.51
-52.50
-53.68
-54.91
-55.93
-56.57
-56.96
-57.54
-58.86
-61.22
-64.42
-67.70
-70.03
-70.56
-69.03
-65.91
-62.21
-59.04
-57.16
-56.78
-57.32
-57.55
-55.76
-50.10
-39.26
-22.91
-2.24
20.28
41.70
59.73
74.02
86.59
101.44
123.12
154.78
196.42
244.17
290.96
328.53
349.91
351.56
334.22
302.22
261.74
218.80
177.93
141.77
111.49
87.46
69.59
57.37
49.67
44.73
40.57
35.60
29.06
21.19
12.98
5.63
-0.06
-4.02
-6.95
-9.95
-13.99
-19.47
-26.02
-32.64
-38.16
-41.75
-43.29
-43.35
-42.91
-42.86
-43.67
-45.24
-47.03
-48.41
-48.96
-48.72
-48.03
-47.44
-47.34
-47.86
-48.78
-49.65
-50.00
-49.44
-47.79
-45.08
-41.54
-37.52
-33.47
-29.85
-27.04
-25.22
-24.32
-23.96
-23.65
-22.89
-21.40
-19.22
-16.64
-14.13
-12.19
-11.14
-11.10
-11.93
-13.39
-15.14
-16.89
-18.44
-19.72
-20.68
-21.29
-21.45
-21.07
-20.11
-18.68
-17.01
-15.35
-13.84
-12.47
-11.13
-9.70
-8.23
-6.90
-5.93
-5.47
-5.53
-5.94
-6.50
-7.06
-7.66
-8.45
-9.66
-11.40
-13.66
-16.17
-18.51
-20.20
-20.82
-20.18
-18.25
-15.26
-11.51
-7.31
-2.89
1.62
6.14
10.64
15.03
19.13
22.69
25.48
27.35
28.35
28.78
29.02
29.40
30.04
30.80
31.34
31.35
30.65
29.26
27.36
25.08
22.48
19.48
16.01
12.03
7.64
3.05
-1.49
-5.72
-9.42
-12.38
-14.49
-15.71
-16.16
-16.12
-15.98
-16.15
-16.87
-18.10
-19.54
-20.67
-21.01
-20.29
-18.56
-16.15
-13.50
-11.07
-9.14
-7.86
-7.30
-7.42
-8.12
-9.23
-10.45
-11.50
-12.14
-12.24
-11.81
-10.93
-9.70
-8.25
-6.69
-5.13
-3.66
-2.34
-1.19
-0.24
0.46
0.83
0.84
0.50
-0.04
-0.55
-0.87
-0.97
-1.00
-1.26
-2.05
-3.57
-5.86
-8.72
-11.80
-14.58
-16.51
-17.10
-16.11
-13.65
-10.15
-6.29
-2.74
-0.01
1.70
2.49
2.65
2.49
2.22
1.91
1.50
0.90
0.06
-1.01
-2.19
-3.32
-4.24
-4.82
-5.02
-4.87
-4.47
-3.92
-3.37
-3.00
-2.94
-3.36
-4.35
-5.95
-8.12
-10.74
-13.58
-16.42
-19.02
-21.26
-23.14
-24.74
-26.24
-27.78
-29.39
-30.99
-32.43
-33.45
-33.88
-33.54
-32.35
-30.28
-27.34
-23.61
-19.23
-14.46
-9.60
-5.01
-1.05
1.97
3.80
4.27
3.40
1.43
-1.03
-3.07
-3.60
-1.74
2.91
10.10
18.93
28.28
37.04
44.38
49.84
53.13
54.11
52.71
49.02
43.36
36.27
28.46
20.57
13.14
6.51
0.86
-3.75
-7.41
-10.32
-12.81
-15.24
-17.90
-20.87
-23.96
-26.76
-28.71
-29.32
-28.31
-25.76
-22.12
-18.05
-14.21
-11.08
-8.84
-7.43
-6.68
-6.41
-6.55
-7.09
-7.96
-9.06
-10.19
-11.18
-11.93
-12.31
-12.09
-10.82
-7.92
-2.92
4.21
12.88
21.99
30.15
36.20
39.53
40.19
38.75
36.00
32.66
29.23
25.95
22.85
19.78
16.53
12.85
8.57
3.63
-1.89
-7.72
-13.47
-18.58
-22.39
-24.32
-23.97
-21.32
-16.78
-11.11
-5.26
-0.02
4.13
7.13
9.17
10.54
11.46
12.02
12.22
12.04
11.57
10.93
10.33
9.88
9.68
9.74
10.02
10.43
10.81
10.95
10.63
9.75
8.34
6.60
4.81
3.22
1.95
0.97
0.08
-0.97
-2.44
-4.42
-6.85
-9.51
-12.07
-14.28
-16.05
-17.50
-18.95
-20.76
-23.22
-26.40
-30.02
-33.41
-35.48
-34.94
-30.63
-21.97
-9.34
5.91
21.75
36.04
47.17
54.34
57.59
57.51
54.89
50.44
44.84
38.72
32.80
27.75
24.08
21.93
21.07
20.95
20.95
20.59
19.60
18.01
15.97
13.75
11.62
9.76
8.26
7.02
5.85
4.51
2.77
0.59
-1.95
-4.68
-7.39
-9.97
-12.37
-14.58
-16.60
-18.38
-19.88
-21.04
-21.83
-22.27
-22.31
-21.88
-20.84
-19.07
-16.52
-13.34
-9.83
-6.42
-3.47
-1.22
0.27
1.14
1.56
1.66
1.48
1.01
0.28
-0.64
-1.64
-2.59
-3.41
-4.02
-4.46
-4.75
-5.03
-5.50
-6.41
-7.97
-10.22
-13.04
-16.10
-19.04
-21.54
-23.46
-24.87
-25.95
-26.94
-27.96
-28.97
-29.80
-30.11
-29.57
-27.94
-25.16
-21.37
-16.99
-12.56
-8.69
-5.86
-4.23
-3.62
-3.48
-3.14
-1.99
0.29
3.64
7.67
11.86
15.68
18.78
21.01
22.38
23.03
23.11
22.86
22.51
22.32
22.51
23.28
24.71
26.76
29.34
32.22
35.21
38.08
40.63
42.66
43.97
44.41
43.92
42.61
40.72
38.61
36.62
34.97
33.72
32.81
32.03
31.12
29.83
27.94
25.42
22.42
19.28
16.37
13.88
11.72
9.46
6.61
2.93
-1.26
-5.02
-7.14
-6.55
-2.81
3.66
11.74
20.03
27.37
33.23
37.78
41.63
45.44
49.49
53.41
56.20
56.37
52.20
42.08
24.87
0.35
-30.39
-64.79
-98.91
-128.13
-148.20
-156.40
-152.15
-137.04
-114.01
-86.28
-56.63
-27.22
0.09
23.48
41.27
52.33
56.57
55.15
49.92
42.54
33.73
22.89
8.64
-10.24
-33.73
-59.88
-84.88
-104.15
-113.78
-111.99
-99.79
-80.45
-58.27
-36.84
-18.22
-2.83
9.76
20.13
28.65
35.79
42.54
50.39
60.77
74.01
88.93
103.34
115.54
125.39
134.38
144.35
155.62
165.82
170.48
164.89
146.38
115.48
75.61
31.50
-12.31
-52.25
-85.48
-109.57
-122.55
-123.70
-114.37
-97.92
-78.89
-61.48
-48.51
-40.96
-38.38
-39.57
-43.16
-47.97
-53.05
-57.79
-61.79
-64.80
-66.35
-65.71
-61.99
-54.55
-43.38
-29.28
-13.60
2.42
18.14
33.62
49.27
65.36
81.68
97.57
112.35
125.66
137.71
149.17
160.77
172.80
184.69
194.91
201.12
200.86
192.19
174.55
149.01
118.07
85.05
53.16
24.76
1.06
-17.81
-32.54
-44.39
-55.03
-66.28
-79.67
-95.82
-114.07
-132.47
-148.41
-159.50
-164.42
-163.24
-157.27
-148.41
-138.61
-129.41
-121.86
-116.46
-113.30
-112.03
-111.92
-111.99
-111.32
-109.29
-105.82
-101.32
-96.44
-91.81
-87.71
-84.04
-80.36
-76.12
-70.88
-64.47
-57.00
-48.79
-40.28
-31.88
-23.96
-16.74
-10.33
-4.73
0.11
4.24
7.62
10.20
11.99
13.13
13.94
14.83
16.10
17.77
19.49
20.72
20.95
20.04
18.21
16.04
14.11
12.75
11.92
11.29
10.43
9.01
6.92
4.20
0.95
-2.73
-6.71
-10.69
-14.17
-16.53
-17.26
-16.24
-13.99
-11.49
-9.89
-10.01
-11.91
-14.92
-17.84
-19.45
-19.01
-16.46
-12.40
-7.74
-3.40
-0.01
2.17
3.24
3.45
3.13
2.47
1.59
0.51
-0.78
-2.24
-3.83
-5.51
-7.23
-8.91
-10.27
-10.92
-10.42
-8.59
-5.75
-2.62
-0.10
1.35
2.10
3.43
7.03
14.22
25.20
38.95
53.70
67.83
80.58
92.19
103.35
114.37
124.62
132.48
136.00
133.71
125.08
110.49
90.90
67.41
41.03
12.72
-16.63
-46.35
-76.19
-106.31
-136.88
-167.50
-196.35
-220.10
-234.19
-234.11
-216.79
-181.96
-132.74
-75.18
-16.91
35.22
77.04
108.25
131.68
151.47
170.97
191.44
212.31
232.41
251.31
269.66
288.26
306.55
321.90
330.36
328.76
317.03
299.12
281.73
271.08
269.75
275.18
280.63
278.40
263.19
234.30
195.37
152.32
110.32
71.84
36.38
1.57
-34.95
-74.24
-115.57
-157.00
-196.23
-231.47
-261.93
-287.74
-309.87
-330.04
-350.61
-374.02
-401.68
-432.50
-462.07
-483.19
-487.90
-470.59
-430.10
-370.14
-297.93
-221.86
-149.54
-86.59
-36.38
-0.03
23.51
37.24
45.21
51.12
56.87
61.89
63.87
60.66
52.09
40.46
29.95
24.66
26.96
36.57
50.88
66.03
78.04
83.66
80.80
68.80
48.39
21.72
-7.72
-35.68
-58.01
-71.49
-74.58
-67.30
-50.67
-26.22
4.20
37.83
70.27
95.37
106.17
97.07
66.31
17.50
-40.67
-96.62
-139.08
-160.28
-157.69
-134.31
-97.48
-56.82
-21.87
0.43
7.51
1.94
-9.71
-19.36
-20.60
-11.25
5.95
24.62
37.50
39.35
28.76
8.74
-14.17
-31.75
-36.56
-24.49
3.45
40.65
76.63
100.07
102.37
80.16
36.08
-22.32
-84.56
-139.84
-179.15
-197.00
-192.48
-169.04
-132.84
-90.02
-44.13
4.81
59.00
120.04
186.23
251.75
308.36
348.65
368.74
369.24
353.92
327.20
292.20
250.58
203.61
153.77
105.42
63.74
32.82
13.67
3.46
-3.36
-12.66
-28.13
-49.75
-74.21
-96.91
-114.14
-124.72
-129.87
-131.76
-131.70
-129.03
-121.27
-105.33
-78.99
-41.62
5.33
58.48
113.12
163.59
204.24
230.72
240.91
235.42
217.07
189.19
153.93
111.64
62.09
6.70
-49.89
-100.43
-137.66
-157.36
-160.16
-150.79
-135.38
-118.66
-102.52
-86.58
-70.00
-53.23
-38.08
-26.74
-20.43
-18.69
-20.07
-23.29
-28.05
-35.15
-45.92
-61.60
-82.83
-109.24
-139.44
-171.06
-201.06
-226.26
-244.03
-253.15
-254.23
-249.42
-241.61
-233.15
-225.06
-216.90
-207.29
-194.93
-179.29
-160.77
-140.35
-119.04
-97.47
-75.87
-54.21
-32.24
-9.47
15.07
42.88
75.63
114.35
158.49
205.41
250.66
289.02
315.93
328.76
327.35
313.83
291.77
265.21
237.77
212.19
190.12
172.18
157.92
146.08
134.91
122.71
108.41
91.94
74.24
56.91
41.65
29.70
21.61
17.20
15.79
16.39
17.93
19.43
20.04
19.27
16.93
13.27
8.76
3.93
-0.86
-5.48
-10.02
-14.55
-18.91
-22.65
-25.11
-25.71
-24.29
-21.23
-17.47
-14.13
-12.07
-11.67
-12.69
-14.54
-16.61
-18.60
-20.59
-22.87
-25.75
-29.37
-33.60
-38.25
-43.00
-47.56
-51.62
-54.97
-57.60
-59.85
-62.31
-65.60
-70.04
-75.38
-80.76
-85.00
-86.96
-85.95
-81.87
-75.33
-67.50
-59.89
-54.11
-51.43
-52.36
-56.38
-62.01
-67.26
-70.25
-69.81
-65.76
-58.76
-50.08
-41.18
-33.48
-28.12
-25.81
-26.64
-29.94
-34.50
-38.84
-41.79
-42.80
-42.08
-40.28
-38.14
-36.18
-34.56
-33.25
-32.16
-31.26
-30.54
-29.87
-29.01
-27.63
-25.51
-22.61
-19.02
-14.88
-10.21
-4.91
1.10
7.68
14.37
20.45
25.25
28.44
30.18
31.12
32.10
33.82
36.59
40.26
44.39
48.53
52.39
55.95
59.37
62.79
66.24
69.56
72.44
74.56
75.69
75.77
74.82
72.99
70.34
66.85
62.52
57.40
51.67
45.73
39.98
34.78
30.29
26.39
22.82
19.27
15.54
11.68
7.96
4.75
2.37
0.91
0.14
-0.30
-0.67
-0.88
-0.39
1.62
5.90
12.85
22.20
33.15
44.41
54.50
61.87
65.17
63.59
57.24
47.41
36.42
27.07
21.79
21.89
27.26
36.59
48.17
60.50
72.79
84.84
96.50
107.23
116.06
121.88
123.66
120.50
111.49
95.97
73.95
46.58
16.31
-13.75
-41.03
-64.46
-84.74
-103.62
-122.40
-140.88
-157.28
-169.13
-174.76
-174.10
-168.62
-160.34
-150.74
-140.23
-128.44
-114.82
-99.30
-82.56
-65.88
-50.56
-37.34
-26.20
-16.55
-7.67
0.76
8.46
14.65
18.46
19.41
17.68
14.11
9.87
5.96
2.84
0.34
-2.25
-5.67
-10.40
-16.34
-22.89
-29.25
-34.76
-39.19
-42.75
-45.98
-49.43
-53.37
-57.63
-61.72
-64.99
-66.93
-67.40
-66.61
-65.11
-63.52
-62.46
-62.40
-63.56
-65.89
-68.93
-71.88
-73.72
-73.52
-70.73
-65.34
-57.81
-48.87
-39.22
-29.33
-19.52
-10.05
-1.28
6.39
12.63
17.43
21.10
24.18
27.17
30.29
33.46
36.33
38.59
40.05
40.73
40.74
40.21
39.19
37.68
35.73
33.48
31.23
29.32
28.00
27.29
26.95
26.51
25.47
23.51
20.60
16.98
13.04
9.11
5.38
1.85
-1.57
-5.06
-8.78
-12.89
-17.44
-22.29
-26.92
-30.49
-32.00
-30.59
-25.99
-18.61
-9.44
0.25
9.36
17.17
23.41
28.11
31.46
33.62
34.78
35.13
34.91
34.40
33.88
33.54
33.47
33.61
33.86
34.14
34.40
34.65
34.91
35.17
35.33
35.20
34.55
33.23
31.22
28.66
25.79
22.81
19.83
16.81
13.63
10.22
6.63
3.05
-0.29
-3.27
-5.96
-8.62
-11.57
-15.16
-19.58
-24.81
-30.51
-35.96
-40.08
-41.69
-39.84
-34.20
-25.33
-14.44
-3.11
7.32
16.08
22.99
28.26
32.16
34.83
36.29
36.64
36.14
35.27
34.51
34.24
34.56
35.40
36.51
37.61
38.46
38.86
38.67
37.87
36.51
34.76
32.76
30.60
28.22
25.47
22.19
18.36
14.13
9.80
5.73
2.14
-0.98
-3.85
-6.89
-10.55
-15.21
-21.02
-27.85
-35.21
-42.28
-48.00
-51.30
-51.34
-47.84
-41.13
-32.12
-22.04
-12.06
-3.01
4.66
10.90
15.77
19.35
21.66
22.69
22.61
21.80
20.75
19.97
19.74
20.06
20.68
21.24
21.52
21.47
21.27
21.18
21.42
21.99
22.74
23.33
23.38
22.58
20.74
17.89
14.25
10.20
6.19
2.58
-0.44
-2.90
-5.00
-7.05
-9.39
-12.32
-16.02
-20.51
-25.49
-30.27
-33.85
-35.18
-33.54
-28.81
-21.61
-13.04
-4.26
3.83
10.81
16.63
21.41
25.23
28.09
29.98
30.96
31.24
31.06
30.69
30.28
29.92
29.61
29.33
29.00
28.54
27.90
27.03
25.93
24.59
23.02
21.22
19.18
16.92
14.44
11.82
9.10
6.36
3.64
0.99
-1.54
-3.94
-6.23
-8.43
-10.65
-12.98
-15.54
-18.46
-21.75
-25.22
-28.41
-30.58
-30.95
-28.94
-24.45
-17.95
-10.34
-2.65
4.32
10.18
14.89
18.63
21.56
23.72
25.06
25.59
25.44
24.91
24.38
24.13
24.29
24.77
25.32
25.62
25.41
24.57
23.13
21.26
19.17
17.06
15.02
13.02
10.91
8.52
5.73
2.54
-0.86
-4.20
-7.21
-9.79
-12.03
-14.16
-16.43
-19.09
-22.24
-25.90
-29.97
-34.16
-38.01
-40.80
-41.77
-40.27
-36.12
-29.70
-21.90
-13.80
-6.35
-0.06
4.98
8.99
12.20
14.73
16.57
17.64
17.93
17.62
17.04
16.50
16.27
16.42
16.87
17.42
17.81
17.81
17.29
16.19
14.57
12.54
10.26
7.86
5.45
3.07
0.70
-1.67
-4.06
-6.45
-8.81
-11.11
-13.33
-15.48
-17.60
-19.74
-21.97
-24.39
-27.11
-30.18
-33.51
-36.72
-39.18
-40.10
-38.74
-34.76
-28.34
-20.21
-11.41
-2.92
4.55
10.74
15.65
19.44
22.18
23.87
24.54
24.31
23.57
22.76
22.28
22.28
22.65
23.10
23.35
23.26
22.84
22.20
21.45
20.56
19.43
17.92
15.93
13.45
10.54
7.27
3.68
-0.17
-4.20
-8.24
-12.06
-15.42
-18.17
-20.31
-22.00
-23.50
-25.08
-26.97
-29.25
-31.95
-34.85
-37.54
-39.35
-39.54
-37.50
-33.02
-26.36
-18.24
-9.53
-1.03
6.71
13.31
18.56
22.23
24.18
24.44
23.30
21.33
19.25
17.71
17.02
17.16
17.79
18.50
18.95
19.03
18.87
18.69
18.76
19.18
19.87
20.60
20.98
20.67
19.38
17.00
13.59
9.42
4.79
0.05
-4.53
-8.72
-12.36
-15.38
-17.78
-19.71
-21.52
-23.63
-26.47
-30.21
-34.63
-39.10
-42.68
-44.38
-43.49
-39.84
-33.82
-26.26
-18.14
-10.31
-3.30
2.70
7.65
11.61
14.58
16.57
17.66
18.08
18.18
18.30
18.70
19.46
20.48
21.50
22.25
22.45
21.97
20.84
19.20
17.30
15.32
13.37
11.41
9.31
6.93
4.20
1.19
-2.00
-5.19
-8.25
-11.10
-13.75
-16.31
-18.98
-22.00
-25.62
-29.94
-34.83
-39.88
-44.46
-47.77
-49.14
-48.14
-44.83
-39.73
-33.71
-27.71
-22.45
-18.33
-15.37
-13.39
-12.19
-11.62
-11.55
-11.77
-11.96
-11.66
-10.44
-7.96
-4.09
1.09
7.32
14.09
20.56
25.68
28.38
27.97
24.50
18.84
12.50
6.96
3.15
1.28
0.96
1.82
3.86
7.52
13.31
21.36
31.20
41.98
52.96
63.88
74.90
86.21
97.37
107.19
113.97
116.26
113.44
105.93
94.89
81.69
67.63
53.80
41.18
30.74
23.23
19.08
18.09
19.59
22.64
26.44
30.42
34.18
37.45
39.90
41.30
41.65
41.16
40.21
39.09
37.87
36.44
34.74
32.88
31.11
29.67
28.43
26.81
24.00
19.43
13.24
6.39
0.32
-3.70
-5.13
-4.34
-2.33
-0.14
1.56
2.53
2.64
1.48
-1.70
-7.62
-16.47
-27.49
-39.12
-49.59
-57.71
-63.34
-67.29
-70.84
-74.97
-79.98
-85.49
-90.80
-95.30
-98.70
-100.86
-101.60
-100.53
-97.14
-91.08
-82.44
-71.86
-60.40
-49.19
-39.11
-30.49
-23.02
-15.99
-8.63
-0.58
7.84
15.74
22.02
25.92
27.38
27.11
26.38
26.47
28.21
31.71
36.45
41.50
46.02
49.46
51.39
51.19
47.87
40.38
28.37
13.02
-2.75
-15.09
-20.81
-18.77
-10.34
1.52
13.96
25.49
36.21
46.80
57.24
66.18
71.47
71.45
66.04
56.91
46.63
37.47
30.53
25.64
21.84
18.17
14.09
9.47
4.40
-1.10
-7.08
-13.54
-20.30
-26.93
-32.96
-37.97
-41.81
-44.56
-46.45
-47.66
-48.37
-48.69
-48.70
-48.48
-48.06
-47.46
-46.69
-45.86
-45.13
-44.77
-44.98
-45.79
-46.91
-47.79
-47.78
-46.28
-43.02
-38.10
-32.03
-25.59
-19.64
-14.92
-11.85
-10.47
-10.46
-11.26
-12.26
-12.96
-13.00
-12.18
-10.51
-8.11
-5.29
-2.46
-0.10
1.38
1.73
0.96
-0.60
-2.46
-4.08
-5.02
-5.09
-4.32
-3.00
-1.58
-0.51
-0.19
-0.82
-2.37
-4.60
-7.09
-9.25
-10.36
-9.69
-6.70
-1.38
5.67
13.15
19.35
22.58
21.63
16.19
6.92
-4.72
-16.82
-27.44
-34.98
-38.47
-37.77
-33.57
-27.27
-20.59
-15.03
-11.42
-9.79
-9.40
-9.14
-7.98
-5.25
-0.86
4.76
10.77
16.16
20.01
21.77
21.38
19.33
16.34
13.12
10.00
6.89
3.40
-0.93
-6.29
-12.45
-18.76
-24.22
-27.79
-28.66
-26.41
-21.19
-13.65
-4.80
4.13
12.00
17.97
21.74
23.64
24.55
25.63
27.86
31.64
36.65
42.01
46.76
50.32
52.76
54.73
57.12
60.71
65.75
71.72
77.40
81.10
81.29
77.14
68.82
57.49
44.79
32.06
19.67
6.93
-7.64
-25.59
-47.92
-74.76
-105.43
-138.64
-172.84
-206.48
-238.18
-266.78
-291.20
-310.14
-322.15
-325.90
-320.75
-307.30
-287.68
-265.13
-243.39
-226.08
-216.13
-215.41
-224.25
-240.70
-259.98
-274.84
-277.17
-260.74
-224.10
-172.07
-114.91
-64.84
-31.53
-18.39
-21.46
-31.36
-37.44
-31.66
-10.86
23.51
67.42
116.37
166.53
214.61
257.11
290.21
310.55
316.69
310.02
294.54
275.55
257.63
243.53
233.61
226.19
218.34
206.95
189.94
167.33
141.56
116.81
97.28
85.32
80.43
79.67
79.29
76.39
69.89
60.00
47.18
31.38
12.36
-9.26
-31.11
-49.32
-59.91
-60.64
-52.06
-37.28
-20.44
-5.03
7.10
15.65
21.08
23.81
23.97
21.68
17.48
12.51
8.22
5.76
5.46
6.77
8.51
9.48
9.03
7.22
4.76
2.58
1.39
1.31
1.83
1.93
0.52
-3.13
-9.05
-16.57
-24.62
-31.94
-37.55
-41.01
-42.46
-42.57
-42.24
-42.41
-43.90
-47.00
-51.03
-54.33
-54.63
-49.96
-39.53
-24.07
-5.52
13.66
31.39
46.40
58.26
67.00
72.75
75.60
75.72
73.50
69.62
64.86
59.90
55.11
50.62
46.44
42.43
38.40
34.31
30.31
26.79
24.09
22.31
21.34
20.87
20.60
20.27
19.79
19.10
18.24
17.30
16.49
16.09
16.32
17.17
18.40
19.62
20.45
20.68
20.45
20.11
20.16
21.01
22.80
25.36
28.19
30.60
31.93
31.77
30.10
27.39
24.38
21.92
20.73
21.28
23.75
28.00
33.68
40.27
47.21
54.00
60.25
65.61
69.50
70.94
68.46
60.31
45.10
22.46
-6.42
-38.64
-69.90
-95.32
-110.46
-112.59
-101.67
-80.60
-54.64
-29.95
-11.68
-2.58
-2.82
-10.78
-24.32
-41.47
-59.98
-76.51
-86.47
-85.22
-70.08
-42.45
-8.00
25.28
50.09
62.46
62.26
51.70
33.06
7.41
-25.02
-62.96
-102.57
-137.57
-161.28
-169.52
-162.40
-144.17
-121.13
-99.01
-80.89
-66.95
-55.54
-44.64
-33.12
-20.86
-8.28
4.19
16.39
28.51
40.72
52.87
64.61
75.41
84.71
92.17
97.75
101.94
105.56
109.43
113.99
119.18
124.56
129.66
134.28
138.54
142.62
146.41
149.36
150.52
149.02
144.44
137.03
127.52
116.68
104.76
91.35
75.52
56.40
33.98
9.51
-14.57
-35.25
-50.06
-58.05
-60.19
-59.11
-58.13
-60.17
-66.84
-78.12
-92.70
-108.63
-123.93
-137.01
-146.72
-152.28
-153.19
-149.29
-140.71
-127.87
-111.50
-92.42
-71.42
-49.19
-26.27
-3.13
19.70
41.57
61.64
78.89
92.34
101.27
105.58
105.98
103.74
100.32
96.65
92.78
88.01
81.29
71.86
59.71
45.68
31.20
17.89
7.01
-0.86
-5.84
-8.75
-10.79
-13.15
-16.72
-21.89
-28.46
-35.82
-43.21
-50.02
-55.90
-60.83
-65.00
-68.65
-72.00
-75.27
-78.73
-82.72
-87.49
-93.01
-98.67
-103.44
-106.20
-106.42
-104.56
-102.13
-100.90
-101.92
-104.81
-107.65
-107.90
-103.42
-93.41
-78.40
-59.50
-37.58
-12.83
14.98
45.82
78.94
112.92
146.23
177.87
207.80
236.63
265.13
293.66
321.89
348.79
372.68
391.22
401.56
400.86
387.04
359.51
319.38
269.37
213.13
154.91
99.13
50.01
10.91
-16.32
-31.66
-36.66
-33.21
-22.05
-2.13
28.23
69.05
116.45
162.25
196.09
209.00
196.82
161.39
109.25
48.67
-13.30
-72.16
-125.96
-173.93
-215.52
-250.12
-277.44
-297.88
-312.53
-322.55
-328.54
-330.36
-327.19
-318.10
-302.40
-279.92
-250.84
-215.61
-175.04
-130.57
-84.64
-40.57
-2.03
27.80
47.04
55.44
54.11
44.80
29.19
8.64
-15.59
-41.93
-68.17
-91.67
-110.18
-122.60
-129.55
-133.21
-136.48
-141.64
-149.36
-158.35
-165.98
-169.54
-167.43
-159.85
-148.45
-135.52
-122.82
-110.98
-99.61
-87.86
-75.18
-61.77
-48.52
-36.58
-26.86
-19.75
-15.17
-12.81
-12.27
-13.21
-15.31
-18.15
-21.26
-24.08
-26.17
-27.21
-27.08
-25.88
-23.90
-21.67
-19.87
-19.16
-20.02
-22.54
-26.40
-31.04
-35.83
-40.39
-44.58
-48.51
-52.34
-56.24
-60.42
-65.10
-70.51
-76.65
-83.05
-88.65
-91.93
-91.45
-86.37
-76.88
-64.11
-49.75
-35.36
-21.92
-9.66
1.81
12.99
24.19
35.18
45.30
53.66
59.53
62.58
63.16
62.13
60.66
59.76
59.91
60.94
62.22
63.14
63.51
63.94
65.61
69.61
76.26
84.39
91.24
93.31
87.63
72.85
49.87
21.70
-7.33
-32.12
-47.43
-48.69
-33.17
-1.52
41.41
87.29
126.99
154.11
167.82
173.21
178.79
192.25
216.66
248.88
280.82
302.51
305.50
285.17
241.56
179.19
106.05
32.11
-32.60
-79.91
-105.41
-109.19
-95.47
-71.19
-44.05
-20.61
-5.25
0.15
-3.88
-15.08
-30.35
-46.61
-61.66
-74.75
-86.49
-98.15
-110.72
-124.21
-137.45
-148.70
-156.52
-160.49
-161.38
-160.59
-159.34
-157.87
-155.24
-149.67
-139.10
-121.90
-97.45
-66.49
-31.24
4.89
37.71
63.46
80.15
88.42
91.18
92.09
93.67
95.90
96.30
91.38
78.48
57.41
30.32
0.86
-27.28
-51.42
-69.81
-81.28
-84.75
-79.57
-65.95
-45.52
-20.94
5.04
30.63
55.38
79.77
104.36
128.92
152.25
172.51
188.37
199.31
205.61
207.67
205.56
198.92
187.35
171.03
150.87
128.37
105.02
81.80
59.39
38.21
19.01
2.97
-8.69
-15.08
-16.32
-13.72
-9.49
-6.03
-5.08
-7.09
-11.14
-15.28
-17.35
-15.85
-10.55
-2.62
5.82
12.45
15.57
14.71
10.75
5.72
2.17
2.49
8.22
19.59
35.31
52.94
69.60
82.91
91.65
95.96
96.74
94.74
89.62
79.83
63.40
39.08
7.41
-28.93
-65.77
-98.70
-124.37
-141.33
-150.07
-152.28
-149.86
-144.21
-135.94
-125.20
-112.00
-96.61
-79.59
-61.54
-42.98
-24.25
-5.75
11.79
27.18
39.03
46.27
48.79
47.61
44.74
42.40
42.38
45.38
50.84
57.08
61.92
63.42
60.57
53.81
44.72
35.66
28.86
25.82
26.88
31.37
37.91
44.90
50.95
54.98
56.44
55.27
51.76
46.21
38.34
26.99
10.19
-14.02
-46.54
-86.29
-130.12
-173.43
-211.61
-241.28
-261.23
-272.64
-278.65
-283.29
-290.01
-300.35
-313.22
-325.33
-332.44
-331.00
-319.27
-297.39
-266.57
