1530229324.00
64.000000
-0.00
-0.00
-0.00
-0.00
-0.00
-0.00
-0.00
-0.00
-0.00
-0.00
0.00
0.01
0.01
-0.00
-0.03
-0.05
-0.05
0.00
0.13
0.36
0.66
1.01
1.37
1.72
2.06
2.40
2.79
3.24
3.80
4.42
5.06
5.66
6.20
6.68
7.15
7.68
8.31
9.14
10.09
11.04
11.88
12.56
13.14
13.76
14.65
15.96
17.92
20.32
22.91
25.38
27.58
29.57
31.67
34.31
37.82
42.57
48.20
54.16
59.85
64.89
69.36
73.76
78.80
85.04
93.03
102.25
111.86
120.95
128.91
135.76
142.17
149.48
156.43
165.30
176.64
190.51
205.62
219.02
226.38
223.12
205.95
174.11
129.98
77.36
20.40
-37.82
-95.88
-153.50
-210.63
-266.73
-320.71
-371.03
-416.89
-457.92
-493.91
-524.25
-547.52
-561.63
-564.31
-554.01
-530.33
-494.69
-449.78
-398.88
-345.05
-290.53
-236.52
-183.56
-132.00
-82.42
-36.02
5.77
41.61
70.55
92.19
106.69
115.00
119.02
121.67
126.33
135.87
151.48
171.98
194.08
213.69
227.45
233.88
233.48
227.95
219.10
208.10
195.45
181.42
166.58
151.87
138.28
126.42
116.17
106.87
97.63
87.85
77.49
67.07
57.43
49.28
43.03
38.31
34.36
30.39
25.95
21.05
16.05
11.48
7.75
5.00
3.09
1.74
0.66
-0.40
-1.58
-2.89
-4.28
-5.62
-6.75
-7.55
-7.97
-8.03
-7.85
-7.55
-7.25
-6.97
-6.71
-6.51
-6.40
-6.44
-6.60
-6.78
-6.78
-6.42
-5.65
-4.60
-3.58
-2.87
-2.65
-2.86
-3.26
-3.57
-3.57
-3.23
-2.67
-2.09
-1.63
-1.39
-1.35
-1.42
-1.53
-1.62
-1.71
-1.80
-1.97
-2.23
-2.54
-2.82
-2.99
-2.98
-2.78
-2.44
-2.04
-1.68
-1.37
-1.11
-0.85
-0.55
-0.25
-0.01
0.11
0.11
0.05
0.07
0.27
0.71
1.32
1.91
2.35
2.55
2.58
2.61
2.85
3.45
4.44
5.70
7.01
8.13
8.86
9.13
8.93
8.34
7.39
6.12
4.55
2.66
0.55
-1.61
-3.58
-5.17
-6.34
-7.18
-7.89
-8.60
-9.35
-10.00
-10.32
-10.17
-9.54
-8.63
-7.71
-7.01
-6.58
-6.30
-6.00
-5.52
-4.91
-4.26
-3.69
-3.25
-2.88
-2.50
-2.08
-1.67
-1.35
-1.17
-1.10
-1.06
-0.90
-0.58
-0.09
0.50
1.10
1.57
1.82
1.77
1.44
0.97
0.55
0.37
0.51
0.87
1.29
1.62
1.83
2.01
2.30
2.74
3.27
3.67
3.74
3.37
2.61
1.64
0.69
-0.05
-0.51
-0.76
-0.88
-1.00
-1.20
-1.54
-2.04
-2.64
-3.33
-4.08
-4.86
-5.63
-6.32
-6.86
-7.20
-7.31
-7.24
-7.02
-6.71
-6.30
-5.74
-4.98
-4.02
-2.92
-1.80
-0.82
-0.09
0.38
0.67
0.91
1.22
1.66
2.18
2.71
3.17
3.52
3.78
3.97
4.07
4.02
3.77
3.27
2.57
1.78
1.03
0.43
0.00
-0.27
-0.46
-0.62
-0.73
-0.79
-0.77
-0.68
-0.59
-0.59
-0.73
-1.01
-1.37
-1.69
-1.85
-1.77
-1.45
-0.90
-0.18
0.65
1.50
2.33
3.06
3.68
4.17
4.49
4.62
4.55
4.29
3.92
3.62
3.56
3.84
4.43
5.16
5.79
6.13
6.07
5.63
4.91
4.02
3.03
2.04
1.11
0.33
-0.25
-0.61
-0.82
-0.98
-1.21
-1.61
-2.20
-2.96
-3.81
-4.68
-5.50
-6.22
-6.80
-7.20
-7.36
-7.21
-6.67
-5.71
-4.40
-2.92
-1.50
-0.36
0.37
0.69
0.66
0.40
0.03
-0.38
-0.76
-1.06
-1.25
-1.29
-1.23
-1.12
-1.03
-0.99
-0.98
-0.95
-0.82
-0.57
-0.23
0.11
0.31
0.25
-0.15
-0.88
-1.80
-2.76
-3.59
-4.16
-4.46
-4.56
-4.54
-4.48
-4.38
-4.16
-3.72
-3.00
-1.99
-0.79
0.45
1.56
2.46
3.09
3.46
3.63
3.63
3.51
3.34
3.20
3.21
3.42
3.79
4.16
4.33
4.14
3.59
2.83
2.09
1.55
1.28
1.18
1.07
0.82
0.40
-0.09
-0.53
-0.87
-1.13
-1.39
-1.68
-1.95
-2.07
-1.95
-1.60
-1.12
-0.69
-0.46
-0.45
-0.59
-0.74
-0.80
-0.74
-0.62
-0.50
-0.40
-0.34
-0.32
-0.33
-0.37
-0.42
-0.44
-0.38
-0.18
0.21
0.73
1.33
1.87
2.24
2.34
2.15
1.77
1.34
1.03
0.93
1.04
1.26
1.41
1.37
1.09
0.62
0.09
-0.38
-0.70
-0.88
-0.99
-1.08
-1.21
-1.41
-1.67
-2.01
-2.38
-2.72
-2.97
-3.01
-2.77
-2.24
-1.55
-0.85
-0.33
-0.10
-0.17
-0.44
-0.80
-1.16
-1.45
-1.64
-1.72
-1.69
-1.53
-1.24
-0.80
-0.22
0.47
1.23
1.92
2.45
2.74
2.80
2.73
2.62
2.54
2.47
2.36
2.14
1.80
1.40
1.05
0.79
0.65
0.57
0.45
0.26
-0.01
-0.37
-0.79
-1.28
-1.84
-2.44
-2.98
-3.36
-3.46
-3.22
-2.67
-1.88
-0.95
-0.01
0.84
1.53
1.98
2.16
2.05
1.67
1.08
0.41
-0.20
-0.57
-0.55
-0.12
0.62
1.45
2.14
2.56
2.70
2.65
2.55
2.43
2.31
2.15
1.97
1.86
1.92
2.17
2.55
2.93
3.11
3.01
2.59
1.95
1.20
0.44
-0.26
-0.91
-1.54
-2.21
-2.93
-3.69
-4.41
-4.96
-5.22
-5.11
-4.66
-3.94
-3.09
-2.24
-1.47
-0.85
-0.39
-0.03
0.27
0.57
0.92
1.32
1.77
2.25
2.71
3.12
3.42
3.61
3.67
3.62
3.50
3.35
3.19
3.02
2.82
2.55
2.20
1.79
1.37
1.00
0.70
0.48
0.29
0.08
-0.18
-0.48
-0.77
-1.00
-1.17
-1.30
-1.46
-1.72
-2.10
-2.56
-2.97
-3.20
-3.14
-2.79
-2.25
-1.66
-1.15
-0.74
-0.35
0.10
0.67
1.31
1.88
2.22
2.25
2.02
1.69
1.40
1.25
1.22
1.25
1.30
1.43
1.75
2.33
3.14
4.00
4.66
4.91
4.70
4.11
3.37
2.65
2.04
1.49
0.88
0.11
-0.84
-1.88
-2.86
-3.61
-4.05
-4.18
-4.09
-3.89
-3.71
-3.65
-3.73
-3.92
-4.16
-4.37
-4.48
-4.46
-4.31
-4.01
-3.55
-2.93
-2.16
-1.30
-0.47
0.24
0.75
1.03
1.14
1.19
1.27
1.44
1.66
1.85
1.92
1.87
1.78
1.76
1.88
2.12
2.38
2.55
2.60
2.55
2.50
2.51
2.54
2.53
2.39
2.10
1.69
1.21
0.72
0.23
-0.25
-0.68
-1.03
-1.28
-1.44
-1.54
-1.64
-1.74
-1.86
-1.98
-2.11
-2.30
-2.59
-2.98
-3.40
-3.73
-3.82
-3.55
-2.90
-1.93
-0.76
0.45
1.54
2.39
2.93
3.19
3.23
3.13
2.93
2.68
2.38
2.07
1.77
1.54
1.40
1.34
1.31
1.26
1.17
1.05
0.93
0.77
0.49
0.02
-0.68
-1.54
-2.45
-3.26
-3.87
-4.29
-4.57
-4.83
-5.14
-5.53
-6.00
-6.54
-7.11
-7.69
-8.26
-8.76
-9.13
-9.28
-9.18
-8.77
-8.08
-7.12
-5.88
-4.38
-2.62
-0.65
1.43
3.47
5.31
6.79
7.81
8.35
8.42
8.12
7.61
7.05
6.62
6.39
6.35
6.37
6.32
6.13
5.83
5.48
5.18
4.91
4.57
4.04
3.24
2.23
1.15
0.21
-0.42
-0.70
-0.71
-0.60
-0.54
-0.62
-0.83
-1.11
-1.36
-1.51
-1.58
-1.61
-1.67
-1.78
-1.95
-2.13
-2.34
-2.56
-2.77
-2.90
-2.80
-2.28
-1.28
0.16
1.79
3.32
4.49
5.15
5.30
5.02
4.46
3.77
3.13
2.65
2.41
2.37
2.39
2.34
2.12
1.75
1.38
1.16
1.19
1.45
1.85
2.27
2.64
2.92
3.07
3.06
2.84
2.39
1.77
1.10
0.54
0.17
0.00
-0.08
-0.22
-0.53
-1.01
-1.59
-2.12
-2.51
-2.73
-2.84
-2.96
-3.18
-3.51
-3.93
-4.35
-4.63
-4.69
-4.48
-3.99
-3.27
-2.41
-1.48
-0.57
0.27
0.97
1.47
1.73
1.74
1.54
1.24
0.90
0.59
0.31
0.04
-0.22
-0.43
-0.53
-0.50
-0.40
-0.33
-0.42
-0.73
-1.24
-1.92
-2.69
-3.57
-4.58
-5.69
-6.80
-7.74
-8.32
-8.47
-8.20
-7.65
-6.95
-6.19
-5.37
-4.44
-3.37
-2.16
-0.90
0.29
1.26
1.94
2.29
2.37
2.32
2.30
2.45
2.84
3.45
4.18
4.90
5.51
5.91
6.08
6.00
5.73
5.31
4.87
4.49
4.25
4.17
4.19
4.24
4.22
4.07
3.82
3.49
3.12
2.73
2.30
1.81
1.24
0.62
0.03
-0.44
-0.73
-0.85
-0.89
-0.94
-1.10
-1.38
-1.72
-2.03
-2.21
-2.21
-2.04
-1.73
-1.35
-0.94
-0.59
-0.35
-0.30
-0.46
-0.77
-1.09
-1.24
-1.10
-0.63
0.04
0.70
1.18
1.37
1.31
1.10
0.90
0.75
0.66
0.61
0.56
0.54
0.60
0.81
1.18
1.64
2.08
2.37
2.43
2.28
1.95
1.55
1.15
0.81
0.55
0.39
0.34
0.39
0.50
0.61
0.63
0.50
0.21
-0.17
-0.53
-0.78
-0.89
-0.89
-0.88
-0.95
-1.19
-1.61
-2.20
-2.85
-3.39
-3.68
-3.57
-3.03
-2.13
-1.01
0.13
1.15
1.99
2.62
3.01
3.17
3.07
2.75
2.33
1.95
1.77
1.90
2.30
2.85
3.36
3.67
3.65
3.28
2.61
1.80
0.98
0.31
-0.11
-0.27
-0.24
-0.14
-0.11
-0.22
-0.50
-0.88
-1.27
-1.58
-1.76
-1.81
-1.77
-1.67
-1.58
-1.56
-1.70
-2.01
-2.50
-3.08
-3.60
-3.94
-4.00
-3.74
-3.16
-2.33
-1.34
-0.32
0.61
1.34
1.84
2.09
2.13
2.00
1.74
1.41
1.08
0.84
0.76
0.86
1.08
1.32
1.47
1.46
1.29
1.06
0.84
0.68
0.56
0.41
0.15
-0.27
-0.85
-1.52
-2.20
-2.82
-3.31
-3.68
-3.92
-4.09
-4.26
-4.55
-5.01
-5.61
-6.17
-6.41
-6.08
-5.10
-3.62
-2.00
-0.64
0.25
0.67
0.85
1.03
1.37
1.79
2.12
2.17
1.87
1.29
0.55
-0.24
-1.01
-1.76
-2.48
-3.13
-3.67
-4.09
-4.43
-4.76
-5.16
-5.64
-6.13
-6.52
-6.67
-6.53
-6.10
-5.43
-4.58
-3.63
-2.61
-1.57
-0.54
0.39
1.15
1.69
2.01
2.21
2.40
2.71
3.17
3.74
4.35
4.87
5.24
5.43
5.45
5.31
5.02
4.58
4.05
3.51
3.07
2.85
2.88
3.13
3.49
3.81
3.98
3.95
3.72
3.37
2.98
2.65
2.48
2.53
2.82
3.28
3.76
4.02
3.88
3.28
2.33
1.27
0.34
-0.30
-0.65
-0.83
-0.99
-1.19
-1.35
-1.33
-0.99
-0.31
0.60
1.54
2.31
2.78
2.94
2.88
2.67
2.40
2.08
1.70
1.27
0.81
0.42
0.23
0.32
0.72
1.37
2.08
2.67
3.00
3.01
2.78
2.39
1.97
1.58
1.23
0.95
0.70
0.46
0.15
-0.30
-0.94
-1.67
-2.32
-2.66
-2.59
-2.15
-1.55
-1.05
-0.80
-0.76
-0.78
-0.68
-0.37
0.12
0.66
1.08
1.29
1.26
1.05
0.72
0.36
0.07
-0.08
-0.04
0.21
0.59
1.01
1.36
1.53
1.52
1.38
1.17
0.95
0.73
0.45
0.08
-0.37
-0.81
-1.12
-1.18
-0.95
-0.51
0.00
0.40
0.54
0.35
-0.15
-0.86
-1.63
-2.28
-2.64
-2.60
-2.12
-1.21
-0.00
1.34
2.63
3.70
4.45
4.87
4.98
4.84
4.50
4.00
3.41
2.83
2.34
1.96
1.65
1.27
0.69
-0.14
-1.13
-2.09
-2.81
-3.15
-3.07
-2.67
-2.12
-1.57
-1.15
-0.91
-0.82
-0.80
-0.79
-0.76
-0.76
-0.89
-1.22
-1.75
-2.37
-2.97
-3.46
-3.82
-4.09
-4.29
-4.38
-4.30
-4.00
-3.53
-2.99
-2.47
-1.99
-1.49
-0.89
-0.18
0.55
1.17
1.60
1.85
2.04
2.30
2.71
3.19
3.63
3.89
3.89
3.65
3.19
2.56
1.78
0.90
-0.04
-0.94
-1.68
-2.18
-2.42
-2.46
-2.42
-2.46
-2.69
-3.17
-3.87
-4.67
-5.44
-6.06
-6.46
-6.60
-6.46
-6.06
-5.48
-4.88
-4.46
-4.38
-4.70
-5.30
-5.96
-6.42
-6.54
-6.32
-5.91
-5.50
-5.23
-5.13
-5.12
-5.13
-5.07
-4.90
-4.56
-3.99
-3.12
-1.89
-0.32
1.45
3.24
4.86
6.15
7.05
7.54
7.68
7.51
7.12
6.66
6.29
6.13
6.23
6.54
6.92
7.21
7.30
7.14
6.75
6.13
5.33
4.39
3.44
2.62
2.12
2.02
2.28
2.69
3.02
3.05
2.69
2.02
1.24
0.56
0.13
-0.03
0.03
0.19
0.40
0.63
0.88
1.17
1.42
1.55
1.48
1.21
0.81
0.43
0.21
0.20
0.38
0.62
0.79
0.80
0.63
0.35
0.03
-0.27
-0.55
-0.82
-1.10
-1.43
-1.83
-2.31
-2.85
-3.43
-3.97
-4.35
-4.46
-4.26
-3.79
-3.16
-2.48
-1.87
-1.32
-0.82
-0.36
0.07
0.39
0.59
0.64
0.60
0.54
0.54
0.63
0.78
0.96
1.11
1.22
1.26
1.22
1.06
0.79
0.43
0.07
-0.19
-0.26
-0.13
0.10
0.28
0.25
-0.03
-0.51
-1.01
-1.38
-1.55
-1.56
-1.50
-1.51
-1.65
-1.91
-2.24
-2.61
-2.95
-3.26
-3.47
-3.48
-3.18
-2.49
-1.41
-0.08
1.29
2.45
3.23
3.57
3.51
3.17
2.67
2.10
1.53
1.04
0.70
0.57
0.62
0.80
1.00
1.15
1.21
1.20
1.11
0.95
0.68
0.32
-0.03
-0.26
-0.24
0.03
0.45
0.82
0.97
0.87
0.58
0.24
-0.04
-0.22
-0.32
-0.41
-0.54
-0.72
-0.99
-1.36
-1.89
-2.58
-3.37
-4.11
-4.64
-4.79
-4.49
-3.78
-2.78
-1.66
-0.60
0.28
0.94
1.38
1.66
1.87
2.09
2.36
2.70
3.05
3.33
3.50
3.54
3.49
3.42
3.38
3.35
3.31
3.18
2.92
2.51
2.00
1.45
0.90
0.39
-0.02
-0.32
-0.47
-0.50
-0.44
-0.40
-0.44
-0.65
-1.04
-1.57
-2.16
-2.68
-3.02
-3.10
-2.93
-2.58
-2.15
-1.74
-1.37
-1.01
-0.63
-0.24
0.08
0.20
0.05
-0.34
-0.82
-1.21
-1.38
-1.31
-1.12
-0.97
-0.92
-0.95
-0.92
-0.70
-0.22
0.40
0.99
1.34
1.34
1.05
0.62
0.26
0.04
-0.05
-0.15
-0.38
-0.78
-1.24
-1.61
-1.79
-1.80
-1.81
-2.02
-2.51
-3.21
-3.89
-4.32
-4.35
-3.98
-3.31
-2.51
-1.69
-0.92
-0.22
0.39
0.88
1.22
1.37
1.33
1.11
0.80
0.52
0.39
0.47
0.74
1.08
1.29
1.28
1.02
0.62
0.27
0.07
0.06
0.16
0.28
0.33
0.31
0.22
0.09
-0.11
-0.40
-0.76
-1.11
-1.35
-1.43
-1.35
-1.20
-1.07
-1.02
-1.00
-0.88
-0.54
0.07
0.88
1.71
2.39
2.80
2.92
2.82
2.60
2.34
2.10
1.91
1.81
1.84
2.03
2.34
2.71
3.01
3.14
3.04
2.72
2.27
1.81
1.47
1.32
1.39
1.62
1.92
2.17
2.24
2.09
1.72
1.16
0.49
-0.26
-1.03
-1.76
-2.43
-2.95
-3.30
-3.44
-3.36
-3.06
-2.53
-1.80
-0.92
-0.01
0.77
1.30
1.51
1.48
1.35
1.27
1.31
1.43
1.51
1.47
1.33
1.17
1.11
1.23
1.46
1.65
1.64
1.33
0.75
0.08
-0.52
-0.92
-1.16
-1.34
-1.58
-1.96
-2.42
-2.86
-3.16
-3.29
-3.29
-3.30
-3.40
-3.60
-3.77
-3.74
-3.39
-2.72
-1.86
-1.03
-0.40
-0.01
0.18
0.31
0.48
0.74
1.02
1.24
1.33
1.29
1.16
1.03
0.94
0.94
1.01
1.11
1.14
1.02
0.67
0.09
-0.66
-1.41
-2.03
-2.41
-2.52
-2.44
-2.28
-2.12
-2.01
-1.92
-1.80
-1.67
-1.55
-1.49
-1.54
-1.68
-1.89
-2.07
-2.17
-2.14
-1.98
-1.68
-1.30
-0.87
-0.47
-0.13
0.15
0.38
0.61
0.84
1.06
1.22
1.28
1.28
1.27
1.29
1.39
1.50
1.55
1.50
1.35
1.21
1.19
1.36
1.71
2.11
2.45
2.59
2.46
2.08
1.53
0.91
0.36
0.01
-0.08
0.10
0.47
0.87
1.09
1.00
0.53
-0.25
-1.20
-2.07
-2.67
-2.84
-2.53
-1.82
-0.83
0.24
1.23
2.01
2.48
2.64
2.54
2.26
1.90
1.57
1.33
1.21
1.19
1.24
1.34
1.45
1.57
1.67
1.77
1.88
2.03
2.24
2.47
2.65
2.68
2.50
2.09
1.51
0.85
0.19
-0.39
-0.82
-1.06
-1.09
-0.96
-0.77
-0.69
-0.83
-1.23
-1.82
-2.46
-2.98
-3.25
-3.25
-2.99
-2.53
-1.96
-1.34
-0.73
-0.20
0.19
0.42
0.48
0.39
0.22
0.07
0.02
0.15
0.48
0.97
1.48
1.87
2.00
1.80
1.28
0.54
-0.27
-0.97
-1.47
-1.72
-1.75
-1.65
-1.52
-1.42
-1.39
-1.41
-1.43
-1.41
-1.32
-1.18
-1.07
-1.08
-1.29
-1.67
-2.14
-2.54
-2.75
-2.71
-2.49
-2.18
-1.91
-1.73
-1.64
-1.60
-1.57
-1.55
-1.54
-1.54
-1.53
-1.48
-1.39
-1.29
-1.24
-1.25
-1.30
-1.34
-1.32
-1.20
-1.00
-0.82
-0.72
-0.75
-0.89
-1.08
-1.25
-1.40
-1.56
-1.83
-2.26
-2.86
-3.53
-4.13
-4.50
-4.60
-4.52
-4.39
-4.40
-4.61
-5.00
-5.50
-6.01
-6.50
-6.97
-7.43
-7.85
-8.15
-8.20
-7.94
-7.34
-6.47
-5.45
-4.39
-3.38
-2.44
-1.53
-0.59
0.46
1.63
2.91
4.24
5.55
6.76
7.82
8.70
9.32
9.65
9.64
9.34
8.83
8.18
7.50
6.81
6.16
5.59
5.12
4.80
4.63
4.57
4.54
4.47
4.33
4.11
3.80
3.38
2.85
2.17
1.36
0.47
-0.41
-1.22
-1.87
-2.28
-2.40
-2.20
-1.71
-1.03
-0.33
0.26
0.67
0.92
1.11
1.32
1.57
1.80
1.91
1.86
1.67
1.46
1.34
1.38
1.57
1.80
1.99
2.11
2.21
2.35
2.54
2.75
2.84
2.71
2.30
1.70
1.03
0.45
0.06
-0.12
-0.17
-0.18
-0.25
-0.44
-0.75
-1.16
-1.62
-2.08
-2.47
-2.74
-2.87
-2.86
-2.74
-2.57
-2.35
-2.08
-1.71
-1.23
-0.64
0.00
0.59
1.02
1.28
1.37
1.38
1.35
1.31
1.26
1.17
1.07
1.01
1.04
1.21
1.47
1.75
1.91
1.90
1.70
1.38
1.07
0.83
0.69
0.59
0.48
0.33
0.16
-0.01
-0.19
-0.42
-0.77
-1.27
-1.89
-2.51
-3.04
-3.39
-3.53
-3.51
-3.40
-3.23
-3.02
-2.74
-2.36
-1.85
-1.25
-0.58
0.10
0.75
1.37
1.95
2.48
2.86
2.95
2.68
2.11
1.44
0.95
0.83
1.09
1.53
1.87
1.97
1.82
1.61
1.54
1.70
2.04
2.38
2.53
2.41
2.06
1.63
1.27
1.04
0.90
0.76
0.56
0.29
0.01
-0.21
-0.36
-0.56
-0.94
-1.61
-2.50
-3.41
-4.07
-4.28
-4.02
-3.41
-2.65
-1.90
-1.27
-0.76
-0.37
-0.13
-0.06
-0.15
-0.36
-0.57
-0.68
-0.61
-0.36
0.03
0.48
0.90
1.22
1.40
1.41
1.29
1.06
0.76
0.43
0.07
-0.29
-0.66
-1.05
-1.48
-1.98
-2.48
-2.92
-3.21
-3.30
-3.23
-3.15
-3.18
-3.39
-3.73
-4.06
-4.24
-4.15
-3.77
-3.16
-2.43
-1.64
-0.88
-0.17
0.46
1.01
1.48
1.83
2.01
1.98
1.77
1.45
1.18
1.12
1.31
1.72
2.21
2.62
2.84
2.86
2.72
2.49
2.21
1.89
1.54
1.18
0.85
0.65
0.60
0.71
0.89
1.02
1.00
0.78
0.41
-0.00
-0.39
-0.76
-1.15
-1.64
-2.22
-2.81
-3.27
-3.48
-3.42
-3.15
-2.73
-2.18
-1.46
-0.54
0.55
1.64
2.51
2.98
3.03
2.77
2.40
2.06
1.84
1.72
1.66
1.64
1.71
1.90
2.22
2.62
3.00
3.27
3.35
3.25
2.98
2.61
2.19
1.78
1.43
1.18
1.01
0.91
0.81
0.69
0.51
0.26
-0.06
-0.44
-0.86
-1.27
-1.61
-1.79
-1.77
-1.58
-1.29
-1.02
-0.84
-0.78
-0.78
-0.78
-0.72
-0.64
-0.61
-0.68
-0.87
-1.11
-1.33
-1.46
-1.48
-1.37
-1.16
-0.84
-0.40
0.14
0.71
1.22
1.58
1.74
1.70
1.50
1.15
0.68
0.14
-0.41
-0.88
-1.20
-1.35
-1.37
-1.35
-1.40
-1.61
-1.98
-2.49
-3.01
-3.41
-3.53
-3.30
-2.70
-1.82
-0.83
0.08
0.77
1.18
1.30
1.18
0.89
0.48
0.03
-0.34
-0.55
-0.55
-0.35
-0.01
0.39
0.81
1.21
1.56
1.77
1.76
1.47
0.96
0.31
-0.34
-0.90
-1.33
-1.64
-1.83
-1.90
-1.85
-1.73
-1.66
-1.78
-2.15
-2.69
-3.21
-3.50
-3.44
-3.08
-2.56
-2.05
-1.65
-1.31
-0.96
-0.49
0.11
0.79
1.42
1.86
2.03
1.94
1.66
1.28
0.93
0.68
0.61
0.75
1.09
1.56
2.05
2.45
2.64
2.58
2.29
1.86
1.40
0.98
0.68
0.51
0.46
0.49
0.53
0.48
0.27
-0.08
-0.48
-0.83
-1.06
-1.22
-1.41
-1.73
-2.18
-2.64
-2.91
-2.80
-2.25
-1.36
-0.32
0.65
1.39
1.83
1.99
1.94
1.79
1.63
1.56
1.62
1.86
2.23
2.65
3.04
3.30
3.39
3.32
3.13
2.91
2.73
2.64
2.66
2.76
2.87
2.90
2.79
2.50
2.07
1.57
1.11
0.77
0.60
0.54
0.50
0.38
0.11
-0.31
-0.84
-1.43
-1.98
-2.42
-2.66
-2.61
-2.24
-1.60
-0.84
-0.18
0.24
0.37
0.29
0.15
0.08
0.11
0.22
0.33
0.40
0.44
0.51
0.66
0.90
1.18
1.42
1.52
1.39
1.02
0.44
-0.24
-0.90
-1.46
-1.89
-2.20
-2.42
-2.57
-2.66
-2.73
-2.80
-2.92
-3.09
-3.32
-3.54
-3.67
-3.66
-3.45
-3.08
-2.64
-2.21
-1.89
-1.69
-1.57
-1.48
-1.37
-1.23
-1.11
-1.02
-0.97
-0.91
-0.77
-0.54
-0.25
0.01
0.15
0.16
0.08
0.02
0.04
0.12
0.17
0.06
-0.30
-0.92
-1.72
-2.58
-3.41
-4.16
-4.81
-5.39
-5.88
-6.26
-6.53
-6.73
-6.92
-7.15
-7.42
-7.66
-7.76
-7.56
-6.93
-5.76
-4.03
-1.82
0.69
3.20
5.45
7.21
8.37
9.01
9.26
9.29
9.21
9.06
8.87
8.66
8.49
8.42
8.49
8.62
8.68
8.50
7.97
7.10
6.01
4.91
3.98
3.29
2.83
2.53
2.28
2.05
1.86
1.74
1.69
1.67
1.60
1.41
1.10
0.71
0.33
-0.04
-0.38
-0.73
-1.08
-1.39
-1.54
-1.44
-1.04
-0.36
0.53
1.50
2.40
3.11
3.54
3.67
3.55
3.32
3.14
3.09
3.22
3.44
3.59
3.55
3.28
2.81
2.29
1.85
1.59
1.53
1.62
1.75
1.81
1.71
1.42
0.96
0.41
-0.14
-0.65
-1.14
-1.65
-2.22
-2.88
-3.58
-4.24
-4.78
-5.07
-5.07
-4.78
-4.23
-3.52
-2.72
-1.94
-1.23
-0.64
-0.20
0.10
0.26
0.35
0.43
0.56
0.77
1.04
1.33
1.56
1.67
1.62
1.42
1.11
0.77
0.49
0.30
0.22
0.15
0.00
-0.33
-0.84
-1.46
-2.02
-2.41
-2.60
-2.64
-2.68
-2.81
-3.07
-3.40
-3.75
-4.08
-4.41
-4.72
-4.93
-4.89
-4.47
-3.63
-2.48
-1.25
-0.16
0.63
1.09
1.28
1.27
1.15
0.96
0.76
0.59
0.47
0.43
0.49
0.63
0.83
1.07
1.29
1.44
1.48
1.45
1.38
1.32
1.30
1.27
1.17
0.96
0.66
0.34
0.07
-0.14
-0.34
-0.59
-0.94
-1.37
-1.81
-2.23
-2.63
-3.04
-3.50
-3.93
-4.18
-4.10
-3.58
-2.68
-1.56
-0.45
0.47
1.16
1.67
2.09
2.43
2.65
2.66
2.42
2.01
1.61
1.42
1.58
2.06
2.68
3.23
3.51
3.51
3.31
3.11
3.07
3.24
3.53
3.78
3.82
3.59
3.14
2.62
2.16
1.81
1.53
1.22
0.80
0.27
-0.29
-0.83
-1.30
-1.76
-2.28
-2.91
-3.58
-4.16
-4.48
-4.42
-3.94
-3.12
-2.09
-1.04
-0.12
0.59
1.05
1.31
1.43
1.52
1.61
1.71
1.79
1.82
1.80
1.73
1.64
1.52
1.32
0.97
0.47
-0.13
-0.68
-1.07
-1.21
-1.13
-0.94
-0.77
-0.68
-0.64
-0.58
-0.47
-0.34
-0.31
-0.49
-0.92
-1.55
-2.26
-2.92
-3.44
-3.77
-3.90
-3.79
-3.44
-2.83
-1.98
-1.01
-0.01
0.90
1.64
2.17
2.53
2.76
2.91
3.01
3.05
2.99
2.78
2.43
2.00
1.57
1.24
1.03
0.89
0.74
0.49
0.10
-0.36
-0.77
-0.99
-0.97
-0.74
-0.44
-0.23
-0.20
-0.41
-0.78
-1.20
-1.58
-1.90
-2.24
-2.70
-3.31
-4.05
-4.83
-5.51
-5.95
-6.07
-5.77
-5.02
-3.88
-2.46
-0.96
0.39
1.43
2.09
2.38
2.41
2.30
2.11
1.91
1.74
1.68
1.77
2.03
2.35
2.63
2.74
2.64
2.35
1.96
1.57
1.27
1.09
1.05
1.13
1.29
1.45
1.50
1.38
1.07
0.65
0.21
-0.13
-0.35
-0.50
-0.71
-1.09
-1.72
-2.58
-3.56
-4.52
-5.26
-5.63
-5.49
-4.85
-3.79
-2.52
-1.25
-0.17
0.62
1.15
1.53
1.86
2.19
2.48
2.67
2.68
2.54
2.36
2.25
2.28
2.42
2.59
2.69
2.68
2.60
2.53
2.50
2.51
2.49
2.38
2.18
1.91
1.66
1.45
1.29
1.11
0.84
0.46
-0.01
-0.52
-1.02
-1.48
-1.95
-2.46
-2.98
-3.42
-3.65
-3.54
-3.10
-2.43
-1.71
-1.08
-0.57
-0.13
0.33
0.84
1.29
1.53
1.47
1.16
0.75
0.47
0.45
0.71
1.10
1.44
1.60
1.53
1.30
1.00
0.69
0.40
0.14
-0.13
-0.40
-0.68
-0.98
-1.29
-1.63
-1.95
-2.23
-2.42
-2.50
-2.50
-2.48
-2.49
-2.61
-2.88
-3.29
-3.79
-4.27
-4.56
-4.49
-3.97
-3.05
-1.89
-0.75
0.19
0.88
1.35
1.69
1.93
2.03
1.96
1.73
1.48
1.34
1.43
1.73
2.13
2.51
2.80
3.03
3.23
3.45
3.62
3.66
3.47
3.07
2.50
1.88
1.29
0.76
0.29
-0.14
-0.54
-0.90
-1.26
-1.64
-2.10
-2.64
-3.26
-3.88
-4.45
-4.91
-5.23
-5.37
-5.28
-4.91
-4.25
-3.38
-2.42
-1.52
-0.75
-0.07
0.62
1.40
2.25
3.04
3.61
3.87
3.88
3.79
3.80
4.04
4.50
5.08
5.61
5.94
5.94
5.54
4.72
3.49
1.98
0.36
-1.08
-2.13
-2.63
-2.64
-2.32
-1.89
-1.53
-1.31
-1.17
-1.05
-0.92
-0.85
-0.94
-1.26
-1.80
-2.41
-2.89
-3.04
-2.78
-2.16
-1.34
-0.54
0.08
0.42
0.49
0.40
0.30
0.27
0.35
0.51
0.66
0.75
0.74
0.66
0.57
0.53
0.59
0.75
0.95
1.14
1.29
1.37
1.40
1.38
1.29
1.12
0.86
0.56
0.28
0.09
0.02
0.02
0.02
-0.10
-0.41
-0.94
-1.66
-2.51
-3.41
-4.22
-4.80
-5.00
-4.75
-4.06
-3.03
-1.85
-0.73
0.18
0.79
1.07
1.08
0.92
0.71
0.54
0.51
0.63
0.87
1.18
1.48
1.74
1.92
2.04
2.09
2.08
2.00
1.87
1.71
1.56
1.44
1.36
1.29
1.17
0.95
0.61
0.18
-0.29
-0.74
-1.13
-1.48
-1.81
-2.18
-2.59
-3.02
-3.37
-3.55
-3.47
-3.08
-2.39
-1.48
-0.48
0.47
1.25
1.79
2.07
2.16
2.14
2.05
1.93
1.79
1.61
1.44
1.32
1.30
1.40
1.60
1.87
2.17
2.48
2.79
3.06
3.20
3.15
2.88
2.43
1.91
1.46
1.15
1.03
1.01
1.02
0.98
0.82
0.52
0.07
-0.51
-1.19
-1.89
-2.50
-2.86
-2.85
-2.45
-1.71
-0.79
0.13
0.88
1.38
1.64
1.68
1.61
1.47
1.32
1.15
0.99
0.82
0.67
0.56
0.53
0.57
0.66
0.75
0.75
0.63
0.43
0.20
0.02
-0.08
-0.14
-0.22
-0.41
-0.71
-1.10
-1.55
-2.04
-2.62
-3.31
-4.12
-4.95
-5.64
-6.04
-6.05
-5.69
-5.09
-4.38
-3.70
-3.11
-2.62
-2.25
-2.03
-2.00
-2.15
-2.44
-2.71
-2.83
-2.68
-2.22
-1.54
-0.79
-0.15
0.23
0.29
0.08
-0.27
-0.61
-0.79
-0.76
-0.58
-0.36
-0.23
-0.26
-0.41
-0.62
-0.84
-1.06
-1.31
-1.59
-1.93
-2.28
-2.63
-3.00
-3.40
-3.84
-4.25
-4.49
-4.43
-3.97
-3.08
-1.85
-0.46
0.85
1.86
2.40
2.44
2.10
1.58
1.14
0.92
0.93
1.06
1.16
1.14
0.99
0.81
0.72
0.81
1.07
1.41
1.74
1.98
2.11
2.16
2.18
2.19
2.14
1.98
1.63
1.08
0.37
-0.40
-1.15
-1.82
-2.37
-2.80
-3.08
-3.15
-2.94
-2.40
-1.55
-0.46
0.72
1.84
2.76
3.42
3.82
3.98
3.97
3.82
3.60
3.35
3.12
2.94
2.82
2.73
2.64
2.49
2.26
1.97
1.66
1.35
1.04
0.74
0.44
0.16
-0.06
-0.23
-0.39
-0.58
-0.86
-1.21
-1.60
-1.96
-2.29
-2.59
-2.90
-3.17
-3.31
-3.19
-2.74
-2.02
-1.17
-0.36
0.31
0.84
1.32
1.80
2.26
2.57
2.63
2.38
1.92
1.44
1.11
1.02
1.15
1.37
1.53
1.57
1.48
1.30
1.09
0.82
0.48
0.04
-0.47
-0.99
-1.42
-1.70
-1.84
-1.88
-1.91
-1.98
-2.10
-2.27
-2.49
-2.74
-3.05
-3.36
-3.64
-3.78
-3.71
-3.39
-2.82
-2.03
-1.14
-0.28
0.44
0.88
0.99
0.80
0.43
0.07
-0.12
-0.05
0.28
0.76
1.23
1.55
1.63
1.45
1.07
0.55
-0.03
-0.61
-1.16
-1.68
-2.19
-2.75
-3.40
-4.16
-4.98
-5.72
-6.27
-6.53
-6.48
-6.21
-5.84
-5.54
-5.38
-5.36
-5.35
-5.17
-4.55
-3.22
-0.95
2.45
7.08
12.85
19.50
26.53
33.27
39.02
43.21
45.53
46.08
45.27
43.67
41.84
40.09
38.45
36.63
34.25
31.03
26.92
22.11
17.01
12.02
7.56
3.92
1.33
-0.15
-0.74
-1.07
-2.12
-4.99
-10.49
-18.73
-28.96
-39.78
-49.61
-57.09
-61.40
-62.15
-59.15
-52.31
-41.61
-27.33
-10.20
8.62
27.79
46.07
62.55
76.68
88.13
96.72
102.41
105.40
106.26
105.85
105.09
104.69
104.85
105.24
105.09
103.42
99.39
92.48
82.79
70.99
58.26
45.97
35.26
26.66
19.92
14.10
8.03
0.79
-7.94
-17.80
-28.03
-37.80
-46.55
-54.08
-60.43
-65.73
-70.12
-73.75
-76.85
-79.72
-82.70
-85.91
-89.23
-92.31
-94.65
-95.82
-95.53
-93.72
-90.57
-86.58
-82.45
-79.06
-77.15
-77.00
-78.28
-80.01
-80.94
-79.97
-76.62
-71.17
-64.52
-57.84
-52.25
-48.51
-46.89
-47.15
-48.53
-49.91
-50.08
-48.08
-43.63
-37.21
-29.90
-22.92
-17.14
-12.78
-9.53
-6.90
-4.56
-2.52
-1.02
-0.25
-0.21
-0.71
-1.48
-2.35
-3.28
-4.30
-5.38
-6.42
-7.20
-7.49
-7.09
-5.90
-3.90
-1.23
1.89
5.09
8.00
10.34
12.02
13.15
14.00
14.85
15.84
16.98
18.13
19.11
19.79
20.13
20.12
19.84
19.37
18.78
18.13
17.46
16.76
15.94
14.94
13.74
12.39
11.06
9.92
9.09
8.58
8.31
8.17
8.10
8.11
8.23
8.51
8.97
9.53
10.13
10.70
11.19
11.62
12.04
12.53
13.19
14.00
14.88
15.65
16.10
16.08
15.57
14.68
13.63
12.65
11.85
11.25
10.73
10.15
9.37
8.36
7.20
6.05
5.08
4.45
4.21
4.28
4.52
4.79
4.99
5.14
5.29
5.50
5.80
6.12
6.41
6.67
6.91
7.22
7.60
8.01
8.32
8.36
8.04
7.41
6.62
5.89
5.40
5.21
5.26
5.40
5.47
5.38
5.11
4.70
4.20
3.63
2.91
1.95
0.64
-1.11
-3.30
-5.83
-8.45
-10.81
-12.58
-13.50
-13.47
-12.57
-10.98
-8.93
-6.63
-4.26
-1.99
-0.04
1.38
2.09
1.98
1.16
-0.12
-1.51
-2.71
-3.54
-3.99
-4.19
-4.29
-4.38
-4.43
-4.31
-3.88
-3.10
-2.03
-0.86
0.20
0.94
1.26
1.19
0.88
0.52
0.36
0.55
1.15
2.10
3.27
4.46
5.47
6.11
6.31
6.02
5.31
4.25
3.00
1.68
0.43
-0.67
-1.57
-2.24
-2.68
-2.90
-2.91
-2.75
-2.44
-2.04
-1.59
-1.15
-0.77
-0.53
-0.52
-0.80
-1.41
-2.30
-3.42
-4.67
-6.01
-7.35
-8.63
-9.71
-10.40
-10.51
-9.92
-8.65
-6.81
-4.62
-2.31
-0.08
1.90
3.48
4.58
5.19
5.37
5.28
5.10
5.00
5.07
5.34
5.75
6.21
6.66
7.06
7.40
7.69
7.91
8.07
8.19
8.31
8.49
8.79
9.30
10.06
11.07
12.26
13.50
14.65
15.59
16.31
16.81
17.15
17.29
17.17
16.67
15.77
14.54
13.21
12.06
11.30
11.01
11.04
11.11
10.94
10.29
9.12
7.53
5.70
3.82
2.01
0.30
-1.34
-2.95
-4.57
-6.21
-7.86
-9.48
-11.01
-12.33
-13.34
-13.94
-14.12
-13.93
-13.46
-12.79
-11.94
-10.87
-9.51
-7.82
-5.85
-3.75
-1.72
0.06
1.50
2.65
3.71
4.89
6.30
7.93
9.61
11.10
12.25
13.00
13.48
13.91
14.57
15.78
17.78
20.62
24.14
27.92
31.39
34.00
35.41
35.60
34.81
33.41
31.65
29.66
27.34
24.53
21.08
16.99
12.41
7.58
2.79
-1.73
-5.83
-9.45
-12.56
-15.12
-17.09
-18.48
-19.44
-20.19
-21.06
-22.27
-23.91
-25.84
-27.83
-29.62
-30.97
-31.75
-31.85
-31.18
-29.70
-27.47
-24.61
-21.40
-18.13
-15.13
-12.61
-10.74
-9.52
-8.89
-8.71
-8.83
-9.15
-9.65
-10.36
-11.31
-12.49
-13.80
-15.07
-16.10
-16.75
-16.97
-16.76
-16.20
-15.38
-14.39
-13.28
-12.10
-10.88
-9.66
-8.44
-7.21
-5.94
-4.56
-3.01
-1.25
0.70
2.79
4.90
6.90
8.69
10.15
11.22
11.89
12.20
12.26
12.20
12.13
12.07
11.91
11.48
10.59
9.18
7.30
5.13
2.87
0.63
-1.57
-3.73
-5.85
-7.85
-9.59
-10.92
-11.82
-12.32
-12.51
-12.42
-12.02
-11.27
-10.20
-8.90
-7.54
-6.30
-5.23
-4.31
-3.43
-2.52
-1.61
-0.76
-0.04
0.49
0.85
1.10
1.30
1.49
1.72
2.02
2.43
2.95
3.55
4.15
4.69
5.10
5.40
5.63
5.82
5.96
5.98
5.86
5.64
5.44
5.40
5.61
6.00
6.41
6.65
6.59
6.21
5.62
4.96
4.35
3.84
3.44
3.09
2.74
2.32
1.73
0.92
-0.14
-1.39
-2.70
-3.86
-4.74
-5.23
-5.34
-5.09
-4.53
-3.71
-2.67
-1.49
-0.30
0.75
1.51
1.87
1.78
1.33
0.70
0.11
-0.21
-0.13
0.35
1.12
2.03
2.95
3.86
4.74
5.57
6.25
6.57
6.38
5.61
4.40
2.95
1.52
0.28
-0.71
-1.47
-2.05
-2.48
-2.78
-2.96
-3.02
-2.99
-2.92
-2.84
-2.82
-2.92
-3.19
-3.61
-4.10
-4.52
-4.69
-4.48
-3.80
-2.64
-1.08
0.70
2.49
4.06
5.25
5.96
6.24
6.18
5.90
5.48
4.98
4.40
3.77
3.13
2.50
1.89
1.33
0.78
0.26
-0.21
-0.61
-0.88
-0.95
-0.77
-0.32
0.38
1.19
1.90
2.32
2.31
1.87
1.13
0.30
-0.44
-0.94
-1.18
-1.23
-1.22
-1.29
-1.54
-2.01
-2.69
-3.49
-4.31
-5.00
-5.43
-5.46
-5.02
-4.09
-2.79
-1.35
-0.00
1.05
1.75
2.19
2.55
2.96
3.46
3.97
4.33
4.39
4.15
3.71
3.31
3.19
3.49
4.17
5.05
5.90
6.50
6.77
6.74
6.54
6.28
6.06
5.90
5.78
5.70
5.61
5.46
5.19
4.74
4.12
3.41
2.71
2.13
1.67
1.28
0.86
0.32
-0.32
-0.99
-1.59
-2.09
-2.52
-2.97
-3.57
-4.33
-5.18
-5.99
-6.61
-7.03
-7.35
-7.74
-8.34
-9.13
-9.92
-10.39
-10.26
-9.41
-7.92
-6.06
-4.13
-2.35
-0.79
0.56
1.76
2.83
3.74
4.45
4.92
5.21
5.37
5.48
5.57
5.67
5.75
5.80
5.81
5.75
5.60
5.35
5.00
4.59
4.21
3.91
3.74
3.69
3.74
3.81
3.81
3.65
3.29
2.74
2.04
1.34
0.72
0.21
-0.20
-0.63
-1.14
-1.74
-2.34
-2.81
-3.05
-3.04
-2.93
-2.91
-3.16
-3.77
-4.70
-5.82
-6.96
-7.97
-8.80
-9.45
-9.97
-10.47
-11.00
-11.59
-12.16
-12.57
-12.61
-12.08
-10.86
-8.96
-6.62
-4.13
-1.81
0.18
1.82
3.27
4.68
6.12
7.47
8.54
9.14
9.24
9.01
8.71
8.63
8.91
9.43
9.96
10.16
9.84
9.02
7.94
7.00
6.57
6.77
7.43
8.11
8.30
7.68
6.31
4.68
3.54
3.51
4.79
6.97
9.18
10.48
10.30
8.80
6.81
5.47
5.69
7.80
11.40
15.62
19.52
22.37
23.90
24.31
24.34
25.31
28.82
36.31
48.23
63.33
78.64
90.12
94.14
88.88
75.09
55.85
35.31
17.13
3.31
-6.13
-12.49
-17.38
-21.70
-25.32
-27.39
-27.12
-24.59
-21.08
-18.77
-19.85
-25.57
-35.63
-48.31
-61.09
-71.67
-78.66
-81.76
-81.43
-78.30
-72.79
-65.03
-55.19
-43.92
-32.39
-22.16
-14.48
-9.86
-7.80
-7.11
-6.42
-4.89
-2.41
0.40
2.63
3.55
2.86
0.84
-1.88
-4.52
-6.44
-7.29
-7.12
-6.30
-5.40
-4.92
-5.11
-5.87
-6.78
-7.29
-6.97
-5.69
-3.69
-1.49
0.27
1.09
0.71
-0.77
-2.97
-5.33
-7.27
-8.32
-8.28
-7.19
-5.37
-3.26
-1.31
0.19
1.14
1.60
1.73
1.68
1.55
1.39
1.25
1.22
1.38
1.80
2.53
3.52
4.70
6.03
7.50
9.21
11.28
13.81
16.79
20.17
23.79
27.55
31.38
35.25
39.18
43.12
46.99
50.68
54.13
57.27
60.08
62.47
64.29
65.25
65.06
63.46
60.39
56.03
50.82
45.38
40.31
35.97
32.35
28.98
25.11
19.92
12.83
3.77
-6.78
-17.94
-28.64
-37.98
-45.35
-50.58
-53.80
-55.37
-55.69
-55.03
-53.59
-51.44
-48.61
-45.18
-41.31
-37.22
-33.16
-29.37
-25.99
-23.14
-20.91
-19.43
-18.86
-19.31
-20.76
-22.91
-25.24
-27.04
-27.65
-26.60
-23.80
-19.56
-14.42
-9.03
-3.92
0.56
4.27
7.18
9.33
10.83
11.81
12.45
12.84
12.92
12.46
11.12
8.69
5.23
1.15
-3.00
-6.76
-9.98
-12.92
-16.03
-19.68
-23.87
-28.13
-31.65
-33.56
-33.34
-30.92
-26.80
-21.73
-16.41
-11.24
-6.24
-1.17
4.26
10.14
16.30
22.39
28.04
32.93
36.84
39.67
41.30
41.66
40.76
38.71
35.76
32.28
28.66
25.25
22.30
19.88
17.90
16.13
14.26
12.05
9.40
6.39
3.29
0.37
-2.13
-4.19
-5.90
-7.45
-8.99
-10.58
-12.10
-13.37
-14.22
-14.59
-14.54
-14.27
-14.01
-13.94
-14.06
-14.28
-14.43
-14.40
-14.14
-13.76
-13.38
-13.13
-13.05
-13.08
-13.09
-12.91
-12.42
-11.53
-10.26
-8.71
-7.04
-5.44
-4.01
-2.78
-1.71
-0.76
0.13
0.95
1.65
2.25
2.77
3.30
3.88
4.55
5.23
5.81
6.16
6.21
5.97
5.54
5.03
4.50
3.92
3.17
2.10
0.60
-1.27
-3.29
-5.16
-6.59
-7.50
-7.98
-8.26
-8.57
-8.99
-9.38
-9.48
-9.02
-7.95
-6.45
-4.88
-3.61
-2.84
-2.50
-2.36
-2.17
-1.83
-1.41
-1.09
-1.01
-1.12
-1.25
-1.14
-0.69
0.06
0.89
1.58
1.99
2.17
2.27
2.46
2.85
3.40
3.97
4.37
4.48
4.27
3.80
3.19
2.56
1.97
1.41
0.84
0.24
-0.36
-0.87
-1.21
-1.31
-1.19
-0.86
-0.37
0.23
0.88
1.51
2.04
2.42
2.65
2.78
2.96
3.30
3.86
4.59
5.34
5.94
6.22
6.11
5.62
4.83
3.90
2.93
2.02
1.21
0.50
-0.12
-0.68
-1.21
-1.73
-2.25
-2.77
-3.28
-3.72
-4.08
-4.33
-4.48
-4.55
-4.55
-4.49
-4.33
-4.05
-3.67
-3.29
-3.02
-2.99
-3.19
-3.58
-4.02
-4.38
-4.61
-4.72
-4.81
-4.95
-5.12
-5.25
-5.23
-4.98
-4.53
-3.96
-3.41
-2.98
-2.66
-2.42
-2.16
-1.82
-1.37
-0.81
-0.20
0.45
1.07
1.60
1.95
2.05
1.89
1.52
1.08
0.76
0.68
0.88
1.28
1.71
1.98
1.98
1.69
1.22
0.69
0.26
-0.01
-0.11
-0.10
-0.02
0.08
0.18
0.27
0.32
0.33
0.24
-0.00
-0.40
-0.95
-1.55
-2.08
-2.42
-2.51
-2.39
-2.21
-2.12
-2.24
-2.54
-2.91
-3.16
-3.17
-2.89
-2.36
-1.62
-0.72
0.32
1.42
2.46
3.27
3.73
3.80
3.57
3.22
2.98
2.96
3.13
3.35
3.42
3.23
2.77
2.17
1.58
1.10
0.72
0.40
0.11
-0.15
-0.30
-0.29
-0.16
-0.02
-0.03
-0.26
-0.67
-1.12
-1.44
-1.53
-1.41
-1.14
-0.82
-0.56
-0.40
-0.38
-0.51
-0.78
-1.14
-1.52
-1.83
-2.06
-2.19
-2.26
-2.30
-2.34
-2.38
-2.40
-2.35
-2.20
-1.93
-1.53
-1.04
-0.54
-0.12
0.12
0.14
-0.01
-0.24
-0.44
-0.52
-0.48
-0.34
-0.15
0.06
0.27
0.45
0.60
0.70
0.76
0.80
0.86
0.96
1.14
1.34
1.51
1.57
1.45
1.11
0.59
-0.00
-0.54
-0.87
-0.92
-0.70
-0.32
0.06
0.27
0.23
0.00
-0.29
-0.48
-0.43
-0.14
0.29
0.69
0.91
0.86
0.60
0.24
-0.07
-0.25
-0.33
-0.34
-0.36
-0.35
-0.27
-0.08
0.24
0.63
0.97
1.20
1.29
1.26
1.16
1.08
1.03
1.02
1.01
0.98
0.89
0.72
0.47
0.17
-0.15
-0.50
-0.87
-1.23
-1.57
-1.79
-1.84
-1.71
-1.45
-1.19
-1.02
-0.96
-0.95
-0.87
-0.64
-0.28
0.08
0.27
0.15
-0.29
-0.95
-1.63
-2.12
-2.30
-2.16
-1.78
-1.27
-0.77
-0.38
-0.12
-0.02
-0.04
-0.12
-0.22
-0.28
-0.24
-0.04
0.35
0.90
1.54
2.15
2.61
2.87
2.93
2.86
2.73
2.60
2.47
2.27
1.95
1.50
0.98
0.50
0.18
0.07
0.12
0.16
0.01
-0.46
-1.25
-2.24
-3.18
-3.83
-4.07
-3.90
-3.48
-3.06
-2.87
-3.06
-3.63
-4.47
-5.34
-6.02
-6.38
-6.41
-6.31
-6.36
-6.79
-7.66
-8.79
-9.73
-9.91
-8.87
-6.45
-2.89
1.17
4.96
7.81
9.46
10.06
10.08
9.98
10.02
10.11
9.88
8.95
7.13
4.67
2.32
1.24
2.75
7.99
17.48
30.90
47.02
64.10
80.36
94.50
105.95
114.71
121.05
125.19
127.13
126.52
122.73
114.88
102.10
84.04
61.26
35.52
9.43
-14.27
-33.51
-47.47
-56.48
-61.47
-63.41
-63.04
-61.01
-58.09
-55.34
-53.73
-53.73
-54.96
-56.32
-56.54
-54.77
-50.93
-45.79
-40.51
-36.11
-33.06
-31.05
-29.10
-26.04
-21.16
-14.84
-8.96
-6.47
-10.44
-22.66
-42.57
-67.04
-91.27
-110.32
-120.60
-120.81
-111.84
-96.04
-76.35
-55.59
-36.16
-19.88
-7.90
-0.52
2.84
3.40
2.67
1.97
2.09
3.24
5.12
7.17
8.79
9.49
9.04
7.52
5.21
2.54
-0.11
-2.47
-4.47
-6.15
-7.63
-9.02
-10.33
-11.53
-12.53
-13.26
-13.70
-13.93
-14.07
-14.26
-14.58
-15.00
-15.37
-15.46
-15.10
-14.24
-13.01
-11.66
-10.51
-9.80
-9.65
-10.07
-10.93
-12.04
-13.15
-13.97
-14.15
-13.49
-11.90
-9.56
-6.83
-4.11
-1.74
0.15
1.63
2.90
4.14
5.46
6.83
8.13
9.19
9.90
10.24
10.33
10.36
10.56
11.13
12.10
13.42
14.91
16.42
17.80
19.01
19.95
20.55
20.66
20.17
19.04
17.36
15.26
12.87
10.22
7.26
4.05
0.81
-2.01
-3.85
-4.29
-3.22
-0.94
2.01
5.00
7.58
9.58
11.07
12.26
13.35
14.38
15.26
15.79
15.75
14.97
13.41
11.18
8.49
5.64
2.90
0.56
-1.16
-2.05
-1.96
-0.85
1.19
3.87
6.75
9.33
11.21
12.17
12.21
11.51
10.33
8.92
7.38
5.71
3.86
1.80
-0.39
-2.60
-4.65
-6.42
-7.89
-9.03
-9.76
-9.96
-9.42
-7.98
-5.67
-2.69
0.61
3.79
6.56
8.73
10.32
11.41
12.14
12.61
12.92
13.09
13.14
13.10
12.96
12.74
12.46
12.14
11.83
11.55
11.31
11.12
10.96
10.77
10.50
10.08
9.44
8.53
7.31
5.83
4.17
2.48
0.93
-0.35
-1.33
-2.14
-3.01
-4.18
-5.76
-7.65
-9.54
-11.01
-11.71
-11.39
-10.05
-7.80
-4.84
-1.43
2.15
5.58
8.52
10.64
11.73
11.75
10.88
9.47
7.99
6.86
6.44
6.92
8.33
10.55
13.32
16.29
19.03
21.12
22.25
22.27
21.18
19.14
16.40
13.19
9.78
6.42
3.39
0.87
-1.05
-2.42
-3.46
-4.39
-5.41
-6.58
-7.84
-9.11
-10.26
-11.21
-11.84
-12.00
-11.48
-10.18
-8.12
-5.55
-2.86
-0.43
1.53
3.04
4.25
5.35
6.37
7.15
7.45
7.10
6.16
4.93
3.86
3.33
3.56
4.47
5.83
7.32
8.66
9.65
10.21
10.38
10.26
10.02
9.81
9.71
9.70
9.67
9.48
8.98
8.14
7.02
5.74
4.45
3.30
2.39
1.82
1.62
1.75
2.02
2.12
1.74
0.64
-1.19
-3.45
-5.70
-7.41
-8.20
-7.92
-6.72
-4.87
-2.74
-0.64
1.21
2.66
3.61
4.08
4.12
3.89
3.51
3.08
2.63
2.13
1.61
1.15
0.88
0.92
1.27
1.76
2.16
2.22
1.86
1.14
0.22
-0.74
-1.65
-2.47
-3.22
-3.83
-4.23
-4.36
-4.24
-4.01
-3.92
-4.19
-4.96
-6.11
-7.29
-8.07
-8.05
-7.05
-5.16
-2.68
0.01
2.60
4.91
6.93
8.69
10.21
11.45
12.34
12.79
12.83
12.57
12.17
11.81
11.57
11.40
11.12
10.49
9.36
7.77
5.92
4.10
2.56
1.37
0.48
-0.28
-1.04
-1.83
-2.61
-3.29
-3.84
-4.31
-4.82
-5.52
-6.48
-7.71
-9.11
-10.55
-11.89
-13.05
-14.01
-14.76
-15.24
-15.31
-14.77
-13.41
-11.18
-8.19
-4.77
-1.33
1.72
4.18
6.03
7.42
8.54
9.49
10.24
10.65
10.59
10.04
9.12
8.05
7.03
6.18
5.45
4.73
3.90
2.93
1.90
0.93
0.08
-0.67
-1.38
-2.13
-2.91
-3.63
-4.17
-4.49
-4.64
-4.78
-5.10
-5.77
-6.91
-8.50
-10.43
-12.48
-14.31
-15.54
-15.80
-14.88
-12.78
-9.75
-6.18
-2.49
1.00
4.11
6.77
8.96
10.71
11.99
12.79
13.10
12.99
12.54
11.90
11.21
10.57
10.02
9.56
9.14
8.73
8.31
7.87
7.37
6.79
6.07
5.15
3.99
2.58
0.99
-0.67
-2.23
-3.53
-4.52
-5.24
-5.83
-6.46
-7.25
-8.28
-9.53
-11.02
-12.73
-14.58
-16.38
-17.77
-18.35
-17.80
-16.09
-13.45
-10.31
-7.08
-4.05
-1.35
0.99
2.93
4.38
5.23
5.49
5.26
4.81
4.43
4.34
4.61
5.15
5.81
6.40
6.83
7.07
7.13
7.02
6.73
6.26
5.61
4.80
3.91
2.96
1.99
1.02
0.05
-0.88
-1.74
-2.51
-3.22
-3.93
-4.68
-5.48
-6.28
-7.04
-7.76
-8.52
-9.36
-10.24
-10.96
-11.20
-10.66
-9.20
-6.95
-4.25
-1.49
1.00
3.10
4.84
6.31
7.57
8.59
9.33
9.75
9.88
9.82
9.72
9.68
9.74
9.90
10.10
10.27
10.34
10.28
10.06
9.69
9.19
8.61
7.98
7.36
6.77
6.19
5.61
5.00
4.33
3.59
2.81
2.03
1.29
0.63
0.05
-0.47
-1.00
-1.58
-2.27
-3.06
-3.90
-4.73
-5.50
-6.23
-7.00
-7.88
-8.95
-10.17
-11.46
-12.75
-13.96
-15.09
-16.08
-16.85
-17.21
-16.96
-15.92
-14.06
-11.49
-8.43
-5.13
-1.85
1.15
3.66
5.51
6.63
7.10
7.16
7.11
7.21
7.61
8.25
8.99
9.61
9.96
9.98
9.70
9.25
8.77
8.40
8.18
8.08
7.96
7.65
7.07
6.22
5.20
4.19
3.34
2.74
2.40
2.26
2.27
2.36
2.45
2.48
2.35
2.01
1.48
0.85
0.21
-0.35
-0.82
-1.25
-1.68
-2.17
-2.71
-3.26
-3.78
-4.30
-4.87
-5.58
-6.46
-7.51
-8.66
-9.83
-10.97
-12.01
-12.89
-13.50
-13.63
-13.09
-11.74
-9.61
-6.88
-3.90
-1.01
1.50
3.48
4.89
5.73
6.08
6.02
5.71
5.31
4.97
4.80
4.78
4.88
4.99
5.09
5.18
5.31
5.50
5.74
5.98
6.13
6.11
5.86
5.38
4.72
3.99
3.37
3.01
2.98
3.20
3.49
3.61
3.38
2.74
1.73
0.47
-0.92
-2.34
-3.64
-4.69
-5.37
-5.62
-5.60
-5.65
-6.21
-7.68
-10.25
-13.84
-18.14
-22.65
-26.82
-30.02
-31.74
-31.61
-29.60
-25.98
-21.32
-16.27
-11.41
-7.06
-3.30
-0.05
2.77
5.21
7.22
8.76
9.86
10.62
11.19
11.67
12.06
12.27
12.16
11.69
10.92
10.16
9.79
10.17
11.42
13.21
14.81
15.29
13.87
10.25
4.78
-1.71
-8.15
-13.69
-17.86
-20.62
-22.20
-22.85
-22.73
-21.90
-20.40
-18.32
-15.80
-13.00
-10.12
-7.35
-4.92
-3.07
-1.99
-1.69
-2.02
-2.61
-3.09
-3.12
-2.54
-1.33
0.48
2.80
5.52
8.50
11.47
14.12
16.15
17.38
17.80
17.48
16.53
14.99
12.91
10.42
7.79
5.41
3.66
2.74
2.58
2.94
3.51
4.12
4.74
5.42
6.16
6.84
7.20
7.05
6.36
5.32
4.28
3.51
3.15
3.13
3.28
3.44
3.54
3.63
3.82
4.15
4.65
5.27
6.01
6.86
7.82
8.80
9.55
9.69
8.83
6.66
3.15
-1.41
-6.51
-11.57
-16.07
-19.67
-22.17
-23.54
-23.81
-23.09
-21.56
-19.46
-17.00
-14.39
-11.69
-8.89
-5.97
-2.95
-0.04
2.43
4.10
4.74
4.32
3.12
1.63
0.40
-0.15
0.11
0.99
2.07
2.96
3.42
3.54
3.61
3.97
4.82
6.13
7.64
9.05
10.08
10.58
10.49
9.78
8.41
6.37
3.78
0.91
-1.85
-4.05
-5.42
-5.86
-5.45
-4.38
-2.88
-1.12
0.69
2.29
3.40
3.72
3.05
1.38
-1.11
-4.00
-6.76
-8.83
-9.77
-9.34
-7.65
-5.10
-2.27
0.24
2.00
2.88
3.08
2.99
3.09
3.75
5.13
7.14
9.49
11.71
13.35
14.00
13.42
11.58
8.69
5.15
1.48
-1.80
-4.28
-5.77
-6.33
-6.25
-5.88
-5.53
-5.33
-5.17
-4.80
-3.96
-2.58
-0.79
1.07
2.63
3.61
3.92
3.66
3.00
2.10
1.02
-0.22
-1.66
-3.29
-5.08
-6.95
-8.84
-10.63
-12.22
-13.44
-14.15
-14.22
-13.60
-12.34
-10.58
-8.50
-6.30
-4.16
-2.18
-0.41
1.15
2.50
3.59
4.37
4.74
4.69
4.27
3.66
3.08
2.76
2.86
3.42
4.34
5.48
6.66
7.74
8.60
9.18
9.43
9.36
8.95
8.22
7.19
5.89
4.37
2.71
0.99
-0.68
-2.16
-3.35
-4.16
-4.59
-4.72
-4.65
-4.50
-4.37
-4.33
-4.46
-4.82
-5.45
-6.33
-7.35
-8.29
-8.88
-8.90
-8.24
-6.95
-5.19
-3.22
-1.25
0.52
1.98
3.07
3.79
4.20
4.40
4.48
4.51
4.48
4.30
3.90
3.26
2.46
1.66
0.98
0.52
0.31
0.35
0.65
1.20
1.94
2.71
3.26
3.37
2.95
2.09
1.02
-0.04
-0.98
-1.81
-2.58
-3.28
-3.82
-4.03
-3.86
-3.40
-2.93
-2.76
-3.11
-3.98
-5.21
-6.52
-7.66
-8.47
-8.95
-9.18
-9.28
-9.31
-9.30
-9.15
-8.74
-7.93
-6.64
-4.96
-3.10
-1.35
0.05
0.98
1.48
1.72
1.89
2.14
2.50
2.95
3.43
3.90
4.34
4.76
5.17
5.55
5.88
6.11
6.21
6.16
5.98
5.72
5.45
5.24
5.13
5.14
5.25
5.41
5.56
5.64
5.59
5.40
5.05
4.55
3.91
3.17
2.37
1.59
0.88
0.33
-0.05
-0.33
-0.61
-1.04
-1.70
-2.58
-3.58
-4.55
-5.36
-5.89
-6.18
-6.30
-6.43
-6.71
-7.19
-7.79
-8.29
-8.40
-7.88
-6.65
-4.80
-2.61
-0.38
1.63
3.30
4.60
5.54
6.18
6.54
6.67
6.59
6.38
6.10
5.86
5.76
5.86
6.13
6.52
6.86
7.05
7.03
6.82
6.52
6.18
5.85
5.47
5.00
4.40
3.67
2.88
2.09
1.36
0.70
0.08
-0.55
-1.23
-2.00
-2.82
-3.64
-4.33
-4.81
-4.99
-4.85
-4.47
-3.96
-3.45
-3.09
-3.01
-3.28
-3.87
-4.68
-5.56
-6.35
-6.91
-7.15
-7.01
-6.47
-5.55
-4.33
-3.00
-1.73
-0.66
0.21
0.95
1.67
2.35
2.83
2.87
2.33
1.27
0.03
-0.93
-1.23
-0.76
0.30
1.54
2.53
2.93
2.63
1.75
0.52
-0.73
-1.72
-2.28
-2.34
-2.01
-1.45
-0.83
-0.25
0.29
0.87
1.61
2.57
3.73
4.97
6.14
7.07
7.60
7.63
7.09
6.01
4.53
2.83
1.12
-0.45
-1.86
-3.17
-4.44
-5.69
-6.80
-7.60
-7.95
-7.80
-7.22
-6.35
-5.32
-4.16
-2.87
-1.43
0.20
1.97
3.85
5.81
7.82
9.85
11.76
13.29
14.11
13.88
12.48
10.08
7.11
4.17
1.72
-0.01
-1.07
-1.70
-2.12
-2.39
-2.42
-2.15
-1.62
-1.11
-0.95
-1.39
-2.40
-3.69
-4.79
-5.37
-5.35
-5.00
-4.71
-4.86
-5.56
-6.71
-8.02
-9.20
-10.13
-10.81
-11.33
-11.77
-12.12
-12.32
-12.29
-11.99
-11.48
-10.82
-10.02
-9.02
-7.66
-5.78
-3.33
-0.48
2.41
4.87
6.49
7.08
6.76
5.92
5.08
4.73
5.13
6.21
7.62
8.86
9.50
9.35
8.50
7.28
6.05
5.01
4.13
3.21
2.00
0.44
-1.28
-2.71
-3.33
-2.64
-0.34
3.62
8.96
15.08
21.13
26.17
29.44
30.62
29.89
27.94
25.58
23.47
21.78
20.20
18.14
15.02
10.60
5.03
-1.24
-7.71
-14.01
-19.94
-25.46
-30.47
-34.76
-37.96
-39.76
-39.95
-38.55
-35.83
-32.11
-27.71
-22.84
-17.63
-12.18
-6.59
-1.02
4.39
9.50
14.19
18.31
21.64
23.92
24.93
24.71
23.69
22.76
23.02
25.35
30.01
36.37
43.13
48.78
52.27
53.41
52.83
51.50
50.19
49.04
47.67
45.49
42.18
37.91
33.19
28.57
24.25
20.07
15.67
10.86
5.78
0.91
-3.21
-6.23
-8.24
-9.65
-11.03
-12.83
-15.22
-18.08
-21.11
-23.93
-26.25
-27.84
-28.60
-28.49
-27.54
-25.86
-23.58
-20.94
-18.23
-15.79
-13.94
-12.88
-12.58
-12.85
-13.37
-13.87
-14.28
-14.68
-15.24
-16.01
-16.87
-17.55
-17.74
-17.27
-16.18
-14.62
-12.76
-10.74
-8.62
-6.46
-4.39
-2.60
-1.23
-0.39
0.00
0.11
0.09
0.02
-0.09
-0.32
-0.77
-1.46
-2.38
-3.42
-4.42
-5.22
-5.68
-5.74
-5.44
-4.92
-4.37
-3.94
-3.68
-3.53
-3.37
-3.09
-2.65
-2.12
-1.60
-1.19
-0.93
-0.82
-0.86
-1.05
-1.38
-1.80
-2.20
-2.49
-2.59
-2.49
-2.26
-2.02
-1.86
-1.86
-2.03
-2.36
-2.82
-3.35
-3.84
-4.20
-4.33
-4.20
-3.87
-3.41
-2.89
-2.35
-1.82
-1.35
-1.01
-0.84
-0.84
-0.90
-0.88
-0.66
-0.24
0.29
0.76
1.06
1.21
1.31
1.45
1.68
1.97
2.19
2.30
2.29
2.21
2.11
1.99
1.82
1.57
1.26
1.01
0.93
1.08
1.38
1.67
1.77
1.55
1.04
0.41
-0.16
-0.51
-0.57
-0.39
-0.07
0.34
0.78
1.29
1.88
2.59
3.38
4.25
5.12
5.96
6.68
7.24
7.65
7.99
8.44
9.21
10.43
12.11
14.09
16.14
18.12
20.01
21.99
24.28
27.12
30.64
34.87
39.73
44.92
49.86
53.62
55.10
53.34
47.94
39.32
28.63
17.37
6.85
-2.19
-9.62
-15.74
-20.91
-25.36
-29.16
-32.39
-35.33
-38.39
-41.97
-46.14
-50.54
-54.43
-56.93
-57.39
-55.65
-52.07
-47.40
-42.51
-38.15
-34.75
-32.51
-31.43
-31.42
-32.39
-34.17
-36.55
-39.20
-41.80
-44.02
-45.63
-46.46
-46.40
-45.44
-43.62
-41.06
-38.02
-34.86
-31.93
-29.55
-27.81
-26.66
-25.87
-25.13
-24.16
-22.72
-20.64
-17.80
-14.18
-9.82
-4.90
0.28
5.38
10.11
14.29
17.94
21.14
24.04
26.72
29.18
31.38
33.31
34.99
36.50
37.88
39.16
40.30
41.29
42.16
43.02
44.02
45.24
46.65
48.07
49.19
49.66
49.20
47.63
44.92
41.22
36.77
31.91
27.05
22.67
19.21
16.98
16.04
16.17
16.92
17.83
18.53
18.88
18.81
18.18
16.68
13.85
9.31
2.98
-4.77
-13.27
-21.78
-29.72
-36.82
-43.01
-48.28
-52.57
-55.71
-57.52
-57.90
-56.91
-54.71
-51.51
-47.49
-42.84
-37.76
-32.49
-27.36
-22.71
-18.85
-15.92
-13.89
-12.56
-11.66
-10.91
-10.12
-9.21
-8.11
-6.77
-5.15
-3.29
-1.25
0.75
2.52
3.89
4.82
5.38
5.73
5.98
6.18
6.29
6.23
5.92
5.39
4.73
4.08
3.60
3.30
3.07
2.67
1.87
0.67
-0.72
-1.97
-2.91
-3.73
-4.94
-7.04
-10.09
-13.54
-16.34
-17.52
-16.68
-14.23
-11.19
-8.63
-7.22
-6.98
-7.52
-8.36
-9.21
-9.99
-10.63
-10.98
-10.67
-9.30
-6.61
-2.69
2.03
6.92
11.36
14.93
17.51
19.24
20.37
21.18
21.80
22.28
22.54
22.53
22.24
21.73
21.10
20.46
19.87
19.33
18.82
18.29
17.70
17.05
16.35
15.62
14.89
14.17
13.45
12.73
12.01
11.30
10.61
9.92
9.22
8.48
7.71
6.88
6.02
5.13
4.20
3.18
2.04
0.77
-0.57
-1.91
-3.15
-4.27
-5.30
-6.36
-7.55
-8.93
-10.46
-12.04
-13.52
-14.77
-15.69
-16.20
-16.19
-15.50
-13.99
-11.59
-8.41
-4.73
-0.96
2.52
5.43
7.72
9.44
10.75
11.75
12.47
12.88
12.94
12.70
12.32
11.98
11.85
11.99
12.31
12.65
12.83
12.75
12.40
11.83
11.13
10.37
9.57
8.73
7.85
6.94
6.02
5.10
4.18
3.29
2.44
1.65
0.94
0.28
-0.35
-1.00
-1.68
-2.42
-3.21
-4.03
-4.88
-5.72
-6.53
-7.29
-7.98
-8.61
-9.23
-9.91
-10.74
-11.71
-12.75
-13.72
-14.40
-14.60
-14.14
-12.95
-11.01
-8.45
-5.46
-2.31
0.71
3.37
5.51
7.09
8.14
8.76
9.01
8.96
8.68
8.28
7.86
7.54
7.41
7.48
7.70
7.93
8.05
7.98
7.70
7.31
6.91
6.57
6.28
5.96
5.51
4.91
4.16
3.35
2.55
1.80
1.10
0.46
-0.14
-0.70
-1.21
-1.70
-2.18
-2.70
-3.30
-4.00
-4.77
-5.62
-6.52
-7.45
-8.43
-9.51
-10.67
-11.88
-12.99
-13.76
-14.01
-13.60
-12.55
-10.94
-8.90
-6.58
-4.09
-1.60
0.69
2.57
3.93
4.77
5.19
5.35
5.37
5.29
5.17
5.06
5.04
5.18
5.54
6.04
6.57
6.98
7.19
7.18
6.95
6.59
6.18
5.77
5.39
4.98
4.48
3.80
2.94
2.03
1.24
0.71
0.46
0.33
0.09
-0.46
-1.36
-2.46
-3.49
-4.21
-4.49
-4.41
-4.19
-4.07
-4.22
-4.69
-5.41
-6.24
-6.92
-7.12
-6.50
-4.75
-1.79
2.11
6.35
10.23
13.14
14.88
15.78
16.55
17.94
20.44
24.08
28.36
32.46
35.56
37.02
36.63
34.64
31.63
28.35
25.46
23.30
21.82
20.66
19.30
17.45
15.13
12.75
10.83
9.64
9.01
8.36
7.04
4.77
1.92
-0.53
-1.33
0.56
5.60
13.52
23.36
33.66
42.65
48.68
50.48
47.72
41.18
32.72
24.71
19.06
16.38
15.54
14.00
8.95
-1.40
-16.83
-35.08
-52.79
-66.98
-76.34
-81.60
-84.83
-88.15
-92.42
-96.74
-98.85
-96.21
-87.12
-71.46
-50.77
-27.71
-5.24
14.24
29.37
39.96
46.70
50.73
53.09
54.42
54.95
54.70
53.74
52.24
50.42
48.30
45.62
41.93
36.87
30.37
22.80
14.84
7.19
0.24
-6.12
-12.48
-19.77
-28.82
-39.99
-52.93
-66.47
-78.85
-88.23
-93.15
-92.91
-87.57
-77.88
-64.91
-49.92
-34.15
-19.01
-6.04
3.13
7.11
5.18
-2.26
-13.61
-26.35
-37.75
-45.62
-48.80
-47.36
-42.25
-34.82
-26.31
-17.64
-9.44
-2.17
3.76
8.15
11.01
12.68
13.63
14.33
15.11
16.09
17.31
18.76
20.46
22.38
24.47
26.68
28.98
31.36
33.82
36.31
38.61
40.39
41.26
40.95
39.44
36.95
33.92
30.77
27.84
25.25
22.92
20.75
18.66
16.69
14.94
13.54
12.46
11.56
10.53
9.02
6.78
3.69
-0.17
-4.59
-9.28
-13.93
-18.19
-21.76
-24.31
-25.66
-25.77
-24.87
-23.39
-21.87
-20.75
-20.25
-20.31
-20.72
-21.25
-21.74
-22.24
-22.83
-23.60
-24.52
-25.37
-25.83
-25.56
-24.34
-22.18
-19.39
-16.56
-14.34
-13.26
-13.48
-14.73
-16.38
-17.69
-18.05
-17.22
-15.30
-12.68
-9.83
-7.12
-4.78
-2.93
-1.62
-0.89
-0.72
-1.04
-1.66
-2.29
-2.64
-2.48
-1.75
-0.58
0.77
2.03
3.07
3.94
4.82
5.90
7.24
8.72
10.07
11.03
11.51
11.59
11.47
11.26
10.87
9.91
7.89
4.48
-0.37
-6.28
-12.52
-18.28
-22.80
-25.63
-26.65
-26.08
-24.30
-21.82
-19.04
-16.34
-14.06
-12.56
-12.17
-13.11
-15.32
-18.39
-21.56
-23.95
-24.80
-23.72
-20.72
-16.17
-10.63
-4.66
1.29
6.92
12.12
16.84
21.12
24.93
28.16
30.61
32.05
32.33
31.49
29.74
27.45
24.98
22.59
20.34
18.09
15.62
12.68
9.11
4.97
0.48
-3.92
-7.66
-10.19
-11.09
-10.20
-7.66
-3.95
0.27
4.34
7.71
10.07
11.35
11.63
11.09
9.98
8.55
7.07
5.79
4.92
4.61
4.83
5.49
6.39
7.27
7.96
8.38
8.55
8.63
8.78
9.12
9.61
10.07
10.27
10.07
9.45
8.54
7.54
6.57
5.63
4.65
3.56
2.33
1.03
-0.24
-1.43
-2.51
-3.45
-4.18
-4.53
-4.35
-3.54
-2.14
-0.36
1.56
3.36
4.93
6.19
7.16
7.82
8.14
8.08
7.66
6.98
6.16
5.36
4.72
4.32
4.17
4.19
4.26
4.24
4.04
3.63
3.05
2.37
1.70
1.06
0.51
0.07
-0.26
-0.49
-0.67
-0.82
-0.99
-1.16
-1.30
-1.43
-1.60
-1.92
-2.45
-3.12
-3.73
-3.94
-3.44
-2.05
0.17
2.93
5.79
8.36
10.35
11.67
12.38
12.56
12.31
11.65
10.60
9.23
7.73
6.34
5.35
4.91
5.02
5.52
6.12
6.56
6.63
6.21
5.26
3.78
1.87
-0.30
-2.50
-4.47
-6.00
-7.02
-7.60
-7.90
-8.09
-8.32
-8.61
-8.92
-9.21
-9.46
-9.67
-9.80
-9.75
-9.33
-8.37
-6.75
-4.52
-1.91
0.75
3.06
4.75
5.70
5.97
5.74
5.20
4.53
3.83
3.16
2.57
2.07
1.66
1.32
1.04
0.85
0.77
0.84
1.04
1.30
1.49
1.48
1.22
0.76
0.20
-0.35
-0.82
-1.22
-1.60
-2.01
-2.53
-3.22
-4.14
-5.30
-6.65
-8.01
-9.15
-9.85
-9.99
-9.56
-8.67
-7.41
-5.86
-4.06
-2.10
-0.16
1.47
2.51
2.85
2.57
1.95
1.29
0.79
0.46
0.20
-0.09
-0.49
-0.93
-1.36
-1.74
-2.12
-2.60
-3.23
-4.02
-4.86
-5.60
-6.11
-6.30
-6.17
-5.80
-5.34
-4.96
-4.82
-4.98
-5.38
-5.87
-6.31
-6.59
-6.68
-6.62
-6.45
-6.19
-5.81
-5.25
-4.50
-3.62
-2.68
-1.74
-0.79
0.20
1.23
2.23
3.03
3.47
3.45
2.99
2.31
1.68
1.39
1.60
2.34
3.49
4.81
6.06
7.02
7.58
7.69
7.43
6.86
6.06
5.06
3.89
2.64
1.38
0.20
-0.83
-1.74
-2.54
-3.24
-3.77
-4.04
-4.02
-3.80
-3.59
-3.62
-4.01
-4.67
-5.27
-5.47
-5.01
-3.87
-2.23
-0.38
1.40
2.92
4.07
4.81
5.13
5.07
4.72
4.25
3.84
3.61
3.61
3.77
4.02
4.33
4.67
5.07
5.49
5.85
6.05
6.00
5.68
5.15
4.49
3.75
2.99
2.20
1.38
0.55
-0.26
-1.01
-1.69
-2.32
-2.93
-3.58
-4.36
-5.31
-6.41
-7.57
-8.58
-9.20
-9.19
-8.45
-7.00
-5.00
-2.74
-0.50
1.46
2.99
4.02
4.61
4.87
4.95
4.95
4.95
4.94
4.92
4.85
4.75
4.65
4.56
4.49
4.43
4.34
4.23
4.09
3.92
3.72
3.43
2.97
2.32
1.54
0.75
0.11
-0.27
-0.44
-0.54
-0.79
-1.38
-2.36
-3.63
-4.95
-6.00
-6.55
-6.44
-5.71
-4.49
-2.98
-1.37
0.20
1.64
2.89
3.87
4.53
4.82
4.77
4.50
4.19
4.02
4.04
4.20
4.39
4.48
4.45
4.36
4.31
4.34
4.44
4.49
4.38
4.01
3.37
2.55
1.67
0.86
0.19
-0.35
-0.82
-1.30
-1.87
-2.52
-3.18
-3.80
-4.32
-4.77
-5.20
-5.59
-5.85
-5.78
-5.23
-4.10
-2.49
-0.61
1.27
2.91
4.17
4.98
5.39
5.40
5.09
4.54
3.89
3.32
2.97
2.91
3.10
3.39
3.65
3.76
3.74
3.61
3.47
3.33
3.15
2.89
2.50
1.97
1.35
0.70
0.06
-0.52
-1.03
-1.45
-1.80
-2.08
-2.36
-2.70
-3.19
-3.91
-4.83
-5.83
-6.70
-7.20
-7.14
-6.49
-5.30
-3.72
-1.95
-0.12
1.62
3.14
4.32
5.05
5.29
5.12
4.71
4.25
3.89
3.70
3.67
3.76
3.94
4.18
4.45
4.66
4.75
4.65
4.36
3.90
3.34
2.75
2.16
1.61
1.11
0.65
0.25
-0.09
-0.41
-0.75
-1.15
-1.62
-2.13
-2.63
-3.06
-3.41
-3.74
-4.18
-4.80
-5.58
-6.37
-6.88
-6.84
-6.13
-4.79
-3.09
-1.30
0.34
1.70
2.77
3.58
4.14
4.43
4.43
4.18
3.79
3.42
3.22
3.25
3.45
3.68
3.81
3.74
3.51
3.19
2.89
2.66
2.46
2.23
1.92
1.55
1.16
0.83
0.58
0.39
0.21
0.04
-0.16
-0.36
-0.58
-0.87
-1.29
-1.84
-2.49
-3.16
-3.75
-4.18
-4.38
-4.31
-3.95
-3.31
-2.42
-1.36
-0.24
0.87
1.93
2.92
3.82
4.57
5.04
5.14
4.84
4.24
3.54
2.97
2.69
2.76
3.12
3.62
4.07
4.33
4.31
4.03
3.59
3.10
2.66
2.30
1.97
1.61
1.20
0.74
0.27
-0.17
-0.56
-0.89
-1.15
-1.34
-1.47
-1.63
-1.94
-2.52
-3.38
-4.39
-5.29
-5.80
-5.78
-5.19
-4.18
-2.89
-1.49
-0.07
1.28
2.46
3.37
3.92
4.11
4.00
3.70
3.37
3.12
3.05
3.18
3.48
3.84
4.08
4.05
3.66
2.98
2.16
1.42
0.89
0.61
0.45
0.27
-0.02
-0.40
-0.78
-1.04
-1.20
-1.35
-1.62
-2.07
-2.66
-3.23
-3.64
-3.85
-3.97
-4.17
-4.59
-5.25
-5.98
-6.53
-6.66
-6.25
-5.31
-4.00
-2.53
-1.11
0.17
1.27
2.25
3.12
3.87
4.39
4.57
4.37
3.86
3.20
2.64
2.36
2.43
2.81
3.34
3.82
4.10
4.10
3.85
3.43
2.92
2.39
1.90
1.43
1.01
0.65
0.39
0.24
0.17
0.09
-0.08
-0.40
-0.85
-1.35
-1.81
-2.16
-2.42
-2.67
-3.04
-3.59
-4.32
-5.11
-5.83
-6.33
-6.53
-6.40
-5.99
-5.33
-4.47
-3.43
-2.26
-1.05
0.11
1.10
1.86
2.36
2.65
2.75
2.71
2.54
2.24
1.81
1.32
0.90
0.67
0.71
1.03
1.54
2.07
2.46
2.59
2.45
2.11
1.69
1.31
1.02
0.84
0.70
0.54
0.31
0.01
-0.34
-0.67
-0.96
-1.23
-1.50
-1.82
-2.19
-2.62
-3.06
-3.49
-3.91
-4.31
-4.67
-4.89
-4.88
-4.52
-3.77
-2.71
-1.49
-0.33
0.62
1.30
1.72
1.99
2.18
2.34
2.43
2.41
2.28
2.09
1.94
1.90
1.97
2.10
2.18
2.12
1.90
1.59
1.26
0.99
0.79
0.64
0.52
0.41
0.29
0.14
-0.11
-0.49
-1.03
-1.66
-2.23
-2.61
-2.72
-2.61
-2.40
-2.29
-2.41
-2.80
-3.40
-4.08
-4.69
-5.11
-5.23
-4.99
-4.32
-3.26
-1.93
-0.53
0.69
1.53
1.92
1.94
1.76
1.55
1.45
1.47
1.62
1.86
2.21
2.68
3.23
3.77
4.15
4.27
4.12
3.79
3.41
3.06
2.76
2.48
2.15
1.74
1.29
0.89
0.56
0.30
0.08
-0.14
-0.39
-0.64
-0.87
-1.08
-1.31
-1.62
-2.06
-2.60
-3.17
-3.67
-4.02
-4.20
-4.21
-4.04
-3.61
-2.86
-1.76
-0.38
1.09
2.42
3.39
3.90
3.97
3.67
3.13
2.49
1.89
1.50
1.41
1.64
2.13
2.71
3.19
3.44
3.44
3.22
2.85
2.40
1.93
1.49
1.13
0.87
0.67
0.46
0.16
-0.22
-0.64
-0.96
-1.12
-1.09
-0.96
-0.89
-0.99
-1.29
-1.74
-2.26
-2.78
-3.29
-3.78
-4.19
-4.38
-4.18
-3.47
-2.28
-0.87
0.47
1.46
1.99
2.12
2.04
1.94
1.92
1.98
2.05
2.09
2.06
2.00
1.92
1.86
1.83
1.86
1.94
2.05
2.13
2.13
2.04
1.90
1.77
1.70
1.64
1.50
1.18
0.66
0.04
-0.53
-0.91
-1.03
-1.00
-0.97
-1.12
-1.51
-2.06
-2.64
-3.10
-3.36
-3.40
-3.24
-2.92
-2.42
-1.74
-0.87
0.10
1.03
1.79
2.25
2.38
2.21
1.85
1.42
1.03
0.74
0.58
0.54
0.62
0.82
1.11
1.44
1.74
1.91
1.91
1.74
1.48
1.21
0.99
0.83
0.68
0.48
0.17
-0.22
-0.67
-1.14
-1.63
-2.11
-2.56
-2.96
-3.27
-3.48
-3.60
-3.65
-3.64
-3.57
-3.38
-3.02
-2.47
-1.76
-0.93
-0.07
0.77
1.52
2.08
2.38
2.37
2.06
1.56
1.06
0.71
0.62
0.80
1.17
1.62
2.04
2.35
2.51
2.53
2.43
2.28
2.14
2.05
1.98
1.86
1.65
1.33
0.94
0.52
0.13
-0.21
-0.49
-0.70
-0.84
-0.92
-0.99
-1.14
-1.44
-1.94
-2.54
-3.10
-3.44
-3.44
-3.08
-2.44
-1.64
-0.79
0.04
0.81
1.49
2.06
2.48
2.73
2.78
2.66
2.38
1.97
1.51
1.10
0.89
0.94
1.25
1.69
2.06
2.23
2.17
1.95
1.73
1.56
1.42
1.21
0.86
0.37
-0.13
-0.52
-0.72
-0.77
-0.79
-0.88
-1.08
-1.35
-1.62
-1.86
-2.08
-2.35
-2.70
-3.13
-3.57
-3.90
-3.98
-3.74
-3.17
-2.38
-1.53
-0.82
-0.40
-0.30
-0.45
-0.73
-1.00
-1.23
-1.43
-1.67
-1.99
-2.39
-2.79
-3.12
-3.31
-3.39
-3.43
-3.55
-3.82
-4.21
-4.66
-5.04
-5.26
-5.33
-5.28
-5.20
-5.12
-4.97
-4.62
-3.96
-2.92
-1.60
-0.19
1.10
2.05
2.59
2.78
2.75
2.70
2.77
3.05
3.51
4.09
4.70
5.24
5.65
5.88
5.89
5.66
5.27
4.81
4.44
4.25
4.22
4.24
4.17
3.91
3.47
2.95
2.48
2.13
1.89
1.73
1.58
1.42
1.27
1.16
1.07
0.96
0.79
0.51
0.09
-0.46
-1.09
-1.71
-2.24
-2.62
-2.84
-2.96
-3.04
-3.14
-3.26
-3.33
-3.26
-2.97
-2.41
-1.62
-0.70
0.22
1.03
1.65
2.06
2.25
2.27
2.13
1.83
1.41
0.97
0.62
0.49
0.61
0.92
1.28
1.52
1.58
1.48
1.28
1.08
0.92
0.80
0.70
0.58
0.44
0.25
-0.01
-0.33
-0.69
-1.05
-1.36
-1.62
-1.85
-2.07
-2.26
-2.41
-2.46
-2.41
-2.29
-2.17
-2.10
-2.07
-2.02
-1.89
-1.59
-1.13
-0.56
0.08
0.69
1.21
1.56
1.68
1.55
1.21
0.76
0.35
0.13
0.17
0.45
0.88
1.33
1.69
1.84
1.75
1.43
0.98
0.49
0.07
-0.21
-0.36
-0.41
-0.44
-0.50
-0.61
-0.75
-0.89
-1.00
-1.04
-1.05
-1.07
-1.13
-1.26
-1.44
-1.59
-1.62
-1.47
-1.13
-0.62
-0.05
0.48
0.92
1.24
1.44
1.54
1.54
1.40
1.09
0.61
0.07
-0.37
-0.52
-0.26
0.35
1.07
1.60
1.70
1.34
0.69
0.06
-0.33
-0.43
-0.40
-0.45
-0.75
-1.26
-1.87
-2.39
-2.74
-2.95
-3.13
-3.35
-3.64
-3.94
-4.20
-4.41
-4.56
-4.67
-4.75
-4.75
-4.58
-4.19
-3.62
-2.94
-2.31
-1.88
-1.78
-2.03
-2.56
-3.25
-3.92
-4.43
-4.66
-4.58
-4.18
-3.51
-2.61
-1.54
-0.35
0.92
2.23
3.49
4.61
5.48
6.03
6.25
6.18
5.95
5.70
5.52
5.45
5.42
5.29
4.93
4.29
3.44
2.54
1.80
1.32
1.09
0.96
0.81
0.63
0.49
0.54
0.88
1.48
2.21
2.89
3.41
3.71
3.77
3.61
3.26
2.73
2.13
1.55
1.12
0.93
1.01
1.30
1.66
1.94
2.04
1.91
1.58
1.13
0.66
0.23
-0.13
-0.40
-0.55
-0.56
-0.42
-0.19
-0.00
0.00
-0.24
-0.69
-1.22
-1.66
-1.95
-2.10
-2.18
-2.27
-2.34
-2.30
-2.06
-1.58
-0.93
-0.27
0.25
0.55
0.68
0.70
0.73
0.82
0.97
1.17
1.37
1.52
1.60
1.58
1.47
1.31
1.15
1.04
0.99
1.00
1.02
1.03
0.99
0.86
0.60
0.21
-0.29
-0.79
-1.20
-1.43
-1.49
-1.44
-1.35
-1.29
-1.25
-1.27
-1.39
-1.66
-2.11
-2.64
-3.08
-3.19
-2.81
-1.94
-0.70
0.62
1.73
2.44
2.66
2.42
1.85
1.13
0.43
-0.15
-0.51
-0.65
-0.60
-0.43
-0.20
0.02
0.17
0.25
0.27
0.26
0.21
0.12
-0.05
-0.31
-0.66
-1.06
-1.43
-1.71
-1.85
-1.85
-1.72
-1.56
-1.44
-1.44
-1.58
-1.85
-2.16
-2.42
-2.55
-2.47
-2.15
-1.62
-0.92
-0.14
0.60
1.18
1.51
1.54
1.32
0.92
0.46
0.02
-0.35
-0.60
-0.75
-0.80
-0.82
-0.84
-0.92
-1.07
-1.24
-1.38
-1.41
-1.28
-1.04
-0.81
-0.77
-1.04
-1.69
-2.64
-3.74
-4.80
-5.68
-6.29
-6.64
-6.79
-6.83
-6.82
-6.80
-6.77
-6.70
-6.49
-6.04
-5.23
-4.01
-2.39
-0.45
1.60
3.50
5.04
6.04
6.49
6.53
6.34
6.12
6.01
6.03
6.16
6.32
6.47
6.56
6.53
6.34
5.92
5.27
4.49
3.71
3.11
2.81
2.82
3.02
3.22
3.22
2.91
2.31
1.53
0.70
-0.06
-0.74
-1.33
-1.84
-2.20
-2.32
-2.16
-1.75
-1.20
-0.66
-0.21
0.16
0.49
0.84
1.17
1.38
1.36
1.09
0.65
0.19
-0.11
-0.17
0.00
0.31
0.65
0.94
1.15
1.31
1.48
1.69
1.92
2.09
2.08
1.79
1.22
0.50
-0.19
-0.71
-0.99
-1.13
-1.25
-1.46
-1.75
-2.03
-2.22
-2.29
-2.32
-2.40
-2.56
-2.74
-2.81
-2.64
-2.21
-1.57
-0.81
-0.03
0.71
1.37
1.89
2.20
2.26
2.08
1.76
1.43
1.22
1.20
1.33
1.52
1.66
1.66
1.51
1.25
0.94
0.63
0.35
0.06
-0.25
-0.57
-0.86
-1.04
-1.12
-1.11
-1.12
-1.22
-1.45
-1.79
-2.18
-2.52
-2.73
-2.77
-2.64
-2.36
-1.98
-1.54
-1.06
-0.55
-0.02
0.53
1.05
1.45
1.66
1.68
1.57
1.45
1.41
1.46
1.54
1.54
1.41
1.15
0.87
0.68
0.66
0.78
0.93
1.02
0.97
0.80
0.55
0.28
-0.00
-0.31
-0.65
-0.98
-1.21
-1.24
-1.03
-0.67
-0.35
-0.25
-0.51
-1.11
-1.87
-2.57
-2.97
-2.94
-2.48
-1.69
-0.73
0.22
0.99
1.49
1.70
1.67
1.48
1.23
1.00
0.81
0.71
0.70
0.83
1.08
1.39
1.65
1.73
1.55
1.14
0.64
0.23
0.01
-0.03
0.04
0.08
0.05
-0.05
-0.16
-0.29
-0.46
-0.74
-1.13
-1.55
-1.88
-2.01
-1.95
-1.81
-1.75
-1.86
-2.12
-2.39
-2.52
-2.44
-2.17
-1.82
-1.49
-1.24
-1.06
-0.93
-0.87
-0.94
-1.20
-1.69
-2.34
-3.02
-3.58
-3.92
-4.03
-3.96
-3.82
-3.69
-3.63
-3.65
-3.70
-3.72
-3.66
-3.49
-3.19
-2.76
-2.21
-1.55
-0.77
0.10
1.01
1.88
2.63
3.20
3.61
3.88
4.06
4.14
4.13
4.05
3.95
3.92
4.02
4.25
4.53
4.75
4.86
4.86
4.81
4.72
4.60
4.36
3.96
3.41
2.81
2.29
1.93
1.74
1.66
1.62
1.58
1.53
1.46
1.36
1.20
0.93
0.59
0.21
-0.12
-0.35
-0.45
-0.45
-0.44
-0.49
-0.64
-0.86
-1.06
-1.16
-1.12
-1.00
-0.93
-1.03
-1.36
-1.83
-2.26
-2.46
-2.30
-1.75
-0.94
-0.01
0.86
1.54
1.97
2.11
1.97
1.61
1.08
0.51
0.05
-0.21
-0.19
0.05
0.40
0.72
0.93
1.00
0.97
0.87
0.72
0.53
0.28
0.01
-0.23
-0.37
-0.40
-0.37
-0.38
-0.54
-0.89
-1.36
-1.84
-2.16
-2.24
-2.12
-1.92
-1.81
-1.90
-2.14
-2.36
-2.32
-1.87
-1.04
0.02
1.01
1.71
2.02
1.98
1.70
1.34
0.98
0.68
0.45
0.27
0.17
0.14
0.19
0.33
0.57
0.87
1.19
1.46
1.60
1.57
1.38
1.08
0.78
0.52
0.32
0.15
-0.06
-0.34
-0.67
-1.01
-1.28
-1.47
-1.60
-1.74
-1.94
-2.19
-2.40
-2.43
-2.21
-1.77
-1.23
-0.74
-0.39
-0.17
-0.01
0.19
0.44
0.67
0.80
0.75
0.56
0.33
0.13
0.04
0.04
0.11
0.20
0.31
0.42
0.50
0.51
0.44
0.26
0.01
-0.29
-0.58
-0.82
-0.96
-0.99
-0.94
-0.87
-0.87
-0.99
-1.23
-1.54
-1.89
-2.24
-2.62
-3.03
-3.43
-3.70
-3.71
-3.38
-2.72
-1.86
-0.98
-0.23
0.32
0.66
0.81
0.80
0.67
0.41
0.10
-0.19
-0.37
-0.43
-0.39
-0.34
-0.34
-0.42
-0.54
-0.66
-0.78
-0.92
-1.15
-1.51
-1.99
-2.55
-3.10
-3.58
-3.93
-4.15
-4.26
-4.30
-4.34
-4.50
-4.83
-5.37
-6.07
-6.79
-7.36
-7.62
-7.46
-6.81
-5.71
-4.23
-2.54
-0.82
0.73
1.97
2.88
3.51
4.00
4.46
4.93
5.39
5.81
6.18
6.52
6.85
7.16
7.35
7.29
6.89
6.15
5.21
4.27
3.52
3.02
2.71
2.48
2.21
1.86
1.48
1.15
0.91
0.75
0.61
0.38
0.04
-0.42
-0.92
-1.37
-1.67
-1.75
-1.54
-1.03
-0.27
0.65
1.56
2.29
2.72
2.83
2.68
2.40
2.07
1.78
1.51
1.22
0.91
0.59
0.37
0.33
0.56
1.00
1.53
1.97
2.18
2.10
1.72
1.13
0.42
-0.29
-0.91
-1.35
-1.55
-1.52
-1.33
-1.09
-0.93
-0.90
-0.99
-1.15
-1.27
-1.28
-1.14
-0.85
-0.44
0.02
0.42
0.65
0.69
0.60
0.50
0.54
0.80
1.23
1.69
2.02
2.16
2.10
1.92
1.72
1.55
1.44
1.37
1.34
1.32
1.27
1.16
0.93
0.56
0.07
-0.45
-0.90
-1.17
-1.21
-1.06
-0.81
-0.56
-0.45
-0.53
-0.80
-1.21
-1.67
-2.08
-2.33
-2.32
-2.00
-1.37
-0.51
0.45
1.35
2.06
2.51
2.67
2.55
2.16
1.54
0.78
0.02
-0.57
-0.84
-0.77
-0.44
0.03
0.47
0.80
0.97
0.96
0.78
0.44
-0.03
-0.56
-1.04
-1.41
-1.63
-1.69
-1.65
-1.54
-1.41
-1.29
-1.23
-1.28
-1.46
-1.74
-2.04
-2.25
-2.25
-1.98
-1.43
-0.67
0.19
1.01
1.63
1.95
1.95
1.67
1.21
0.68
0.17
-0.24
-0.55
-0.73
-0.82
-0.82
-0.76
-0.67
-0.61
-0.66
-0.88
-1.27
-1.76
-2.28
-2.76
-3.18
-3.58
-4.03
-4.55
-5.10
-5.59
-5.92
-6.02
-5.88
-5.56
-5.12
-4.60
-3.94
-3.06
-1.87
-0.39
1.25
2.86
4.23
5.27
6.04
6.66
7.22
7.72
8.02
7.98
7.51
6.69
5.69
4.72
3.91
3.29
2.86
2.62
2.57
2.72
2.99
3.26
3.39
3.28
2.96
2.52
2.10
1.83
1.73
1.75
1.77
1.71
1.49
1.12
0.63
0.10
-0.36
-0.66
-0.72
-0.57
-0.29
-0.04
0.09
0.04
-0.10
-0.21
-0.17
0.02
0.31
0.56
0.67
0.61
0.43
0.19
-0.05
-0.29
-0.54
-0.81
-1.08
-1.26
-1.29
-1.11
-0.77
-0.38
-0.07
0.05
-0.03
-0.27
-0.56
-0.84
-1.10
-1.37
-1.69
-2.05
-2.35
-2.50
-2.45
-2.20
-1.86
-1.50
-1.16
-0.81
-0.40
0.11
0.67
1.19
1.55
1.69
1.62
1.45
1.29
1.25
1.34
1.47
1.56
1.52
1.37
1.15
0.94
0.78
0.65
0.50
0.32
0.15
0.04
0.02
0.08
0.11
-0.01
-0.35
-0.91
-1.60
-2.29
-2.87
-3.28
-3.50
-3.52
-3.32
-2.90
-2.27
-1.48
-0.66
0.06
0.56
0.80
0.83
0.73
0.60
0.50
0.45
0.45
0.51
0.61
0.77
1.00
1.28
1.55
1.75
1.78
1.60
1.23
0.76
0.33
0.04
-0.08
-0.08
-0.08
-0.18
-0.39
-0.64
-0.86
-1.00
-1.12
-1.29
-1.60
-2.03
-2.50
-2.86
-2.99
-2.85
-2.45
-1.86
-1.17
-0.43
0.30
1.01
1.63
2.07
2.25
2.14
1.77
1.23
0.70
0.31
0.10
0.04
0.04
0.01
-0.06
-0.10
-0.03
0.15
0.40
0.58
0.58
0.33
-0.12
-0.69
-1.25
-1.69
-1.95
-2.03
-1.98
-1.88
-1.79
-1.77
-1.83
-1.98
-2.26
-2.68
-3.21
-3.76
-4.19
-4.33
-4.13
-3.61
-2.93
-2.25
-1.71
-1.39
-1.30
-1.44
-1.81
-2.33
-2.90
-3.35
-3.49
-3.22
-2.57
-1.68
-0.71
0.25
1.19
2.19
3.27
4.36
5.26
5.77
5.80
5.42
4.83
4.28
3.90
3.67
3.45
3.15
2.73
2.27
1.90
1.67
1.57
1.47
1.30
1.02
0.75
0.62
0.74
1.14
1.75
2.43
3.03
3.46
3.64
3.55
3.19
2.61
1.90
1.21
0.65
0.31
0.17
0.16
0.19
0.21
0.24
0.30
0.40
0.51
0.55
0.45
0.18
-0.22
-0.68
-1.15
-1.59
-2.00
-2.34
-2.56
-2.59
-2.46
-2.24
-2.09
-2.10
-2.24
-2.39
-2.39
-2.12
-1.62
-1.03
-0.51
-0.13
0.13
0.40
0.76
1.25
1.77
2.17
2.33
2.20
1.82
1.31
0.81
0.41
0.14
-0.04
-0.18
-0.30
-0.40
-0.42
-0.36
-0.22
-0.07
0.03
0.05
0.05
0.08
0.16
0.21
0.13
-0.16
-0.65
-1.21
-1.70
-1.98
-2.06
-2.04
-2.04
-2.16
-2.37
-2.55
-2.59
-2.37
-1.86
-1.15
-0.34
0.40
0.98
1.36
1.60
1.78
1.93
2.02
1.96
1.71
1.31
0.90
0.65
0.64
0.83
1.08
1.24
1.26
1.19
1.12
1.10
1.10
1.01
0.79
0.44
0.08
-0.18
-0.27
-0.21
-0.07
0.06
0.11
0.08
-0.04
-0.27
-0.60
-1.03
-1.50
-1.90
-2.12
-2.11
-1.89
-1.53
-1.08
-0.58
-0.06
0.49
0.99
1.36
1.50
1.36
1.02
0.58
0.22
0.04
0.05
0.19
0.35
0.41
0.36
0.23
0.07
-0.05
-0.14
-0.21
-0.30
-0.39
-0.43
-0.36
-0.19
-0.00
0.05
-0.13
-0.55
-1.03
-1.38
-1.42
-1.17
-0.77
-0.47
-0.44
-0.69
-1.11
-1.50
-1.67
-1.54
-1.12
-0.49
0.24
0.92
1.43
1.68
1.62
1.30
0.82
0.33
-0.05
-0.25
-0.30
-0.20
0.00
0.29
0.61
0.93
1.14
1.16
0.97
0.58
0.07
-0.45
-0.91
-1.28
-1.56
-1.79
-1.98
-2.15
-2.30
-2.39
-2.41
-2.37
-2.30
-2.21
-2.14
-2.08
-1.98
-1.79
-1.48
-1.06
-0.56
-0.05
0.41
0.78
1.06
1.24
1.32
1.30
1.13
0.81
0.33
-0.28
-0.95
-1.58
-2.08
-2.40
-2.52
-2.50
-2.40
-2.31
-2.27
-2.33
-2.47
-2.68
-2.96
-3.30
-3.70
-4.15
-4.60
-4.97
-5.19
-5.19
-4.97
-4.58
-4.14
-3.70
-3.28
-2.80
-2.17
-1.28
-0.13
1.23
2.66
4.05
5.30
6.35
7.15
7.65
7.82
7.64
7.13
6.36
5.46
4.58
3.89
3.49
3.41
3.55
3.75
3.81
3.61
3.16
2.57
2.05
1.74
1.68
1.74
1.76
1.58
1.18
0.66
0.21
-0.06
-0.11
-0.04
0.01
-0.05
-0.24
-0.48
-0.68
-0.77
-0.77
-0.75
-0.74
-0.70
-0.54
-0.15
0.47
1.22
1.91
2.35
2.44
2.27
1.97
1.74
1.61
1.53
1.33
0.91
0.29
-0.35
-0.78
-0.88
-0.70
-0.43
-0.29
-0.40
-0.72
-1.09
-1.33
-1.39
-1.31
-1.23
-1.26
-1.42
-1.62
-1.79
-1.88
-1.93
-2.04
-2.23
-2.44
-2.57
-2.52
-2.25
-1.84
-1.38
-0.94
-0.51
-0.03
0.52
1.09
1.57
1.84
1.82
1.55
1.15
0.73
0.38
0.11
-0.11
-0.29
-0.42
-0.46
-0.36
-0.11
0.27
0.66
0.98
1.14
1.09
0.87
0.55
0.19
-0.15
-0.44
-0.71
-0.95
-1.14
-1.28
-1.36
-1.45
-1.61
-1.87
-2.21
-2.53
-2.68
-2.55
-2.13
-1.46
-0.69
0.09
0.78
1.34
1.72
1.84
1.67
1.26
0.76
0.36
0.22
0.37
0.71
1.05
1.26
1.31
1.26
1.20
1.18
1.17
1.09
0.90
0.60
0.26
-0.04
-0.28
-0.50
-0.77
-1.10
-1.45
-1.74
-1.89
-1.88
-1.78
-1.73
-1.81
-2.02
-2.23
-2.26
-2.01
-1.48
-0.80
-0.18
0.26
0.51
0.69
0.94
1.32
1.74
2.01
1.96
1.55
0.91
0.24
-0.20
-0.29
-0.04
0.41
0.87
1.21
1.40
1.46
1.48
1.50
1.51
1.45
1.26
0.90
0.42
-0.11
-0.59
-0.94
-1.14
-1.19
-1.18
-1.17
-1.23
-1.38
-1.58
-1.73
-1.77
-1.65
-1.36
-0.95
-0.46
0.06
0.58
1.05
1.41
1.63
1.70
1.64
1.51
1.35
1.17
0.97
0.76
0.59
0.53
0.61
0.83
1.07
1.20
1.16
0.94
0.65
0.40
0.28
0.28
0.30
0.21
-0.08
-0.59
-1.23
-1.84
-2.32
-2.61
-2.74
-2.79
-2.85
-2.91
-2.93
-2.81
-2.44
-1.79
-0.93
-0.01
0.82
1.45
1.80
1.93
1.88
1.74
1.54
1.29
1.00
0.66
0.31
0.02
-0.14
-0.13
0.03
0.27
0.47
0.57
0.52
0.36
0.15
-0.06
-0.25
-0.47
-0.75
-1.16
-1.67
-2.26
-2.81
-3.23
-3.44
-3.40
-3.15
-2.78
-2.38
-2.02
-1.69
-1.34
-0.92
-0.40
0.18
0.75
1.23
1.57
1.71
1.66
1.40
0.92
0.27
-0.46
-1.14
-1.64
-1.83
-1.68
-1.28
-0.80
-0.42
-0.29
-0.48
-0.92
-1.48
-2.04
-2.54
-2.98
-3.41
-3.87
-4.37
-4.85
-5.29
-5.66
-5.98
-6.25
-6.46
-6.54
-6.40
-5.96
-5.16
-3.96
-2.40
-0.58
1.35
3.21
4.81
6.03
6.81
7.18
7.18
6.90
6.42
5.83
5.21
4.65
4.23
4.01
4.01
4.22
4.56
4.93
5.19
5.22
4.98
4.50
3.88
3.23
2.59
1.97
1.36
0.75
0.21
-0.19
-0.37
-0.36
-0.26
-0.20
-0.31
-0.59
-0.97
-1.29
-1.43
-1.29
-0.88
-0.29
0.39
1.04
1.61
2.08
2.44
2.69
2.81
2.76
2.52
2.09
1.51
0.89
0.36
0.04
-0.03
0.11
0.34
0.52
0.56
0.47
0.34
0.24
0.20
0.19
0.09
-0.15
-0.50
-0.82
-0.96
-0.82
-0.49
-0.15
-0.02
-0.26
-0.81
-1.48
-1.99
-2.13
-1.85
-1.21
-0.42
0.36
1.01
1.49
1.80
1.94
1.90
1.66
1.21
0.62
-0.01
-0.54
-0.84
-0.84
-0.55
-0.08
0.41
0.72
0.76
0.49
0.01
-0.55
-1.02
-1.34
-1.49
-1.51
-1.50
-1.49
-1.52
-1.60
-1.74
-1.98
-2.31
-2.68
-2.99
-3.10
-2.90
-2.36
-1.56
-0.66
0.20
0.88
1.34
1.58
1.65
1.59
1.46
1.31
1.15
1.00
0.86
0.74
0.63
0.53
0.43
0.35
0.33
0.38
0.51
0.70
0.87
0.92
0.77
0.40
-0.11
-0.62
-1.01
-1.20
-1.23
-1.23
-1.32
-1.58
-1.99
-2.49
-2.96
-3.30
-3.44
-3.33
-2.95
-2.29
-1.42
-0.40
0.68
1.70
2.56
3.18
3.47
3.38
2.94
2.24
1.46
0.80
0.42
0.36
0.56
0.88
1.20
1.42
1.55
1.59
1.54
1.40
1.18
0.90
0.62
0.39
0.20
0.03
-0.19
-0.51
-0.95
-1.52
-2.19
-2.91
-3.58
-4.07
-4.27
-4.11
-3.65
-3.01
-2.35
-1.76
-1.23
-0.72
-0.18
0.38
0.87
1.21
1.37
1.41
1.43
1.52
1.66
1.76
1.75
1.58
1.35
1.19
1.20
1.38
1.61
1.75
1.70
1.45
1.11
0.77
0.51
0.30
0.10
-0.13
-0.39
-0.61
-0.76
-0.80
-0.73
-0.57
-0.39
-0.28
-0.34
-0.65
-1.19
-1.84
-2.37
-2.58
-2.32
-1.59
-0.55
0.59
1.62
2.39
2.82
2.92
2.71
2.29
1.76
1.22
0.78
0.45
0.25
0.11
0.01
-0.08
-0.15
-0.18
-0.19
-0.22
-0.31
-0.51
-0.79
-1.13
-1.52
-1.94
-2.39
-2.85
-3.29
-3.68
-4.03
-4.37
-4.73
-5.14
-5.56
-5.92
-6.15
-6.22
-6.21
-6.16
-6.09
-5.89
-5.42
-4.54
-3.25
-1.70
-0.16
1.19
2.24
3.07
3.81
4.59
5.41
6.15
6.64
6.75
6.44
5.83
5.14
4.53
4.13
3.90
3.71
3.43
3.02
2.53
2.07
1.73
1.48
1.23
0.87
0.37
-0.19
-0.70
-1.01
-1.08
-0.95
-0.75
-0.64
-0.73
-1.05
-1.53
-1.98
-2.23
-2.15
-1.70
-0.99
-0.16
0.65
1.39
2.04
2.58
2.95
3.10
2.96
2.57
2.06
1.57
1.22
1.05
1.05
1.17
1.33
1.49
1.56
1.50
1.25
0.82
0.29
-0.23
-0.62
-0.84
-0.90
-0.88
-0.85
-0.86
-0.91
-1.00
-1.14
-1.36
-1.66
-2.02
-2.36
-2.60
-2.67
-2.58
-2.37
-2.07
-1.68
-1.18
-0.53
0.25
1.08
1.85
2.42
2.69
2.64
2.32
1.81
1.25
0.78
0.45
0.27
0.19
0.16
0.15
0.18
0.30
0.55
0.89
1.26
1.55
1.69
1.67
1.47
1.13
0.68
0.15
-0.41
-0.92
-1.32
-1.54
-1.60
-1.53
-1.41
-1.32
-1.32
-1.42
-1.59
-1.80
-1.99
-2.10
-2.08
-1.90
-1.51
-0.87
0.02
1.11
2.23
3.15
3.64
3.58
3.03
2.18
1.33
0.71
0.44
0.50
0.78
1.13
1.44
1.62
1.63
1.44
1.09
0.63
0.15
-0.28
-0.64
-0.91
-1.09
-1.19
-1.21
-1.16
-1.09
-1.09
-1.19
-1.42
-1.74
-2.06
-2.34
-2.52
-2.58
-2.54
-2.38
-2.09
-1.67
-1.12
-0.49
0.17
0.76
1.22
1.49
1.56
1.42
1.13
0.71
0.24
-0.18
-0.47
-0.54
-0.39
-0.09
0.27
0.55
0.66
0.61
0.43
0.20
-0.00
-0.16
-0.27
-0.37
-0.49
-0.64
-0.83
-1.02
-1.21
-1.35
-1.46
-1.53
-1.63
-1.80
-2.04
-2.29
-2.45
-2.38
-2.03
-1.41
-0.61
0.21
0.93
1.49
1.89
2.15
2.29
2.29
2.13
1.82
1.41
1.01
0.69
0.48
0.36
0.28
0.18
0.07
-0.02
-0.05
0.03
0.16
0.30
0.36
0.33
0.22
0.06
-0.15
-0.39
-0.68
-1.01
-1.33
-1.57
-1.68
-1.68
-1.63
-1.62
-1.71
-1.88
-2.04
-2.08
-1.93
-1.55
-0.98
-0.26
0.54
1.33
2.01
2.47
2.62
2.45
2.03
1.50
1.02
0.73
0.67
0.81
1.05
1.28
1.42
1.48
1.46
1.44
1.44
1.45
1.41
1.24
0.90
0.43
-0.07
-0.50
-0.79
-0.95
-1.06
-1.20
-1.40
-1.63
-1.81
-1.90
-1.90
-1.87
-1.88
-1.95
-2.06
-2.12
-2.04
-1.79
-1.37
-0.86
-0.36
0.05
0.30
0.35
0.21
-0.12
-0.60
-1.21
-1.91
-2.64
-3.27
-3.70
-3.84
-3.70
-3.36
-2.98
-2.70
-2.60
-2.67
-2.86
-3.08
-3.23
-3.28
-3.16
-2.86
-2.33
-1.61
-0.74
0.18
1.03
1.73
2.23
2.54
2.68
2.73
2.72
2.68
2.61
2.51
2.39
2.31
2.35
2.60
3.05
3.61
4.12
4.44
4.47
4.25
3.87
3.43
3.00
2.56
2.12
1.71
1.40
1.27
1.35
1.58
1.84
2.00
1.95
1.70
1.29
0.82
0.34
-0.14
-0.60
-1.06
-1.46
-1.77
-1.97
-2.06
-2.07
-2.05
-2.02
-1.97
-1.90
-1.80
-1.71
-1.69
-1.77
-1.91
-1.98
-1.83
-1.33
-0.48
0.58
1.66
2.56
3.12
3.34
3.27
3.00
2.61
2.12
1.56
0.97
0.44
0.09
-0.00
0.18
0.56
1.00
1.34
1.51
1.49
1.33
1.09
0.82
0.55
0.26
-0.05
-0.40
-0.75
-1.05
-1.24
-1.32
-1.32
-1.30
-1.34
-1.46
-1.64
-1.79
-1.84
-1.76
-1.60
-1.46
-1.43
-1.55
-1.75
-1.90
-1.86
-1.52
-0.86
0.06
1.07
2.02
2.75
3.19
3.31
3.13
2.66
1.96
1.11
0.29
-0.30
-0.49
-0.23
0.37
1.06
1.61
1.86
1.76
1.45
1.08
0.79
0.62
0.52
0.43
0.31
0.17
0.03
-0.09
-0.23
-0.45
-0.81
-1.29
-1.82
-2.22
-2.36
-2.21
-1.85
-1.45
-1.22
-1.24
-1.50
-1.84
-2.06
-1.97
-1.51
-0.74
0.19
1.07
1.73
2.07
2.11
1.89
1.52
1.08
0.65
0.27
-0.02
-0.19
-0.24
-0.15
0.06
0.35
0.71
1.05
1.31
1.43
1.36
1.12
0.78
0.44
0.18
0.03
-0.03
-0.08
-0.19
-0.44
-0.84
-1.34
-1.86
-2.30
-2.57
-2.67
-2.61
-2.51
-2.45
-2.47
-2.57
-2.64
-2.59
-2.32
-1.83
-1.13
-0.29
0.64
1.59
2.46
3.15
3.53
3.48
2.98
2.14
1.15
0.27
-0.29
-0.46
-0.27
0.11
0.55
0.90
1.11
1.17
1.07
0.85
0.54
0.19
-0.12
-0.29
-0.32
-0.24
-0.16
-0.16
-0.33
-0.62
-0.95
-1.25
-1.46
-1.59
-1.73
-1.95
-2.28
-2.70
-3.14
-3.51
-3.74
-3.76
-3.53
-2.97
-2.07
-0.91
0.38
1.58
2.47
2.91
2.88
2.53
2.06
1.67
1.45
1.41
1.48
1.54
1.52
1.43
1.31
1.23
1.24
1.31
1.40
1.45
1.44
1.40
1.36
1.35
1.35
1.30
1.18
0.99
0.75
0.49
0.23
-0.05
-0.33
-0.61
-0.86
-1.05
-1.20
-1.35
-1.58
-1.90
-2.23
-2.43
-2.38
-1.98
-1.27
-0.36
0.59
1.43
2.05
2.41
2.47
2.25
1.77
1.13
0.41
-0.27
-0.82
-1.19
-1.36
-1.36
-1.23
-1.02
-0.79
-0.60
-0.50
-0.53
-0.69
-0.94
-1.26
-1.64
-2.09
-2.61
-3.21
-3.85
-4.46
-4.97
-5.33
-5.55
-5.69
-5.81
-5.96
-6.17
-6.39
-6.53
-6.47
-6.08
-5.25
-3.94
-2.24
-0.30
1.62
3.33
4.68
5.64
6.22
6.45
6.35
5.93
5.28
4.53
3.86
3.46
3.39
3.58
3.89
4.12
4.18
4.02
3.68
3.20
2.62
1.97
1.31
0.73
0.31
0.07
-0.04
-0.13
-0.27
-0.48
-0.70
-0.83
-0.85
-0.80
-0.77
-0.84
-0.99
-1.16
-1.20
-1.02
-0.61
-0.03
0.63
1.26
1.80
2.24
2.57
2.78
2.85
2.75
2.46
1.99
1.40
0.77
0.23
-0.14
-0.29
-0.25
-0.07
0.17
0.38
0.53
0.57
0.54
0.44
0.33
0.24
0.18
0.13
0.02
-0.19
-0.49
-0.80
-1.07
-1.23
-1.27
-1.28
-1.34
-1.50
-1.75
-2.00
-2.10
-1.95
-1.51
-0.83
-0.01
0.81
1.52
2.02
2.32
2.41
2.31
2.06
1.69
1.25
0.83
0.52
0.38
0.40
0.54
0.72
0.89
1.06
1.21
1.36
1.44
1.39
1.16
0.77
0.30
-0.18
-0.59
-0.90
-1.08
-1.09
-0.94
-0.66
-0.35
-0.17
-0.20
-0.44
-0.80
-1.14
-1.37
-1.47
-1.45
-1.33
-1.05
-0.55
0.15
0.95
1.68
2.20
2.45
2.48
2.36
2.14
1.81
1.34
0.75
0.15
-0.31
-0.49
-0.32
0.11
0.66
1.18
1.52
1.62
1.49
1.16
0.73
0.24
-0.25
-0.72
-1.19
-1.64
-2.03
-2.28
-2.34
-2.24
-2.08
-2.02
-2.18
-2.58
-3.10
-3.51
-3.60
-3.26
-2.51
-1.53
-0.52
0.37
1.08
1.59
1.91
2.01
1.87
1.50
0.98
0.46
0.07
-0.08
-0.02
0.16
0.33
0.39
0.33
0.24
0.23
0.38
0.68
1.00
1.14
0.97
0.47
-0.25
-0.98
-1.54
-1.84
-1.91
-1.82
-1.66
-1.44
-1.19
-0.94
-0.81
-0.90
-1.27
-1.82
-2.33
-2.51
-2.18
-1.29
-0.04
1.27
2.30
2.82
2.77
2.27
1.53
0.84
0.38
0.24
0.38
0.67
0.97
1.19
1.29
1.30
1.25
1.16
1.01
0.77
0.44
0.09
-0.20
-0.33
-0.26
-0.07
0.13
0.18
0.02
-0.34
-0.78
-1.17
-1.42
-1.52
-1.53
-1.53
-1.50
-1.40
-1.09
-0.53
0.27
1.18
2.02
2.64
2.95
2.97
2.74
2.36
1.87
1.35
0.86
0.50
0.37
0.55
0.98
1.52
1.98
2.15
1.95
1.42
0.71
0.03
-0.46
-0.68
-0.67
-0.55
-0.45
-0.45
-0.60
-0.86
-1.18
-1.46
-1.67
-1.78
-1.78
-1.66
-1.39
-0.97
-0.37
0.35
1.08
1.70
2.08
2.16
1.93
1.48
0.91
0.32
-0.21
-0.69
-1.13
-1.53
-1.88
-2.16
-2.29
-2.26
-2.02
-1.60
-1.03
-0.36
0.32
0.90
1.24
1.30
1.09
0.70
0.30
0.02
-0.09
-0.07
-0.01
-0.01
-0.10
-0.27
-0.48
-0.71
-0.95
-1.25
-1.58
-1.91
-2.14
-2.17
-1.98
-1.61
-1.17
-0.79
-0.54
-0.46
-0.54
-0.74
-1.01
-1.31
-1.56
-1.70
-1.64
-1.37
-0.94
-0.50
-0.21
-0.22
-0.54
-1.05
-1.59
-1.99
-2.16
-2.14
-2.05
-2.03
-2.19
-2.54
-3.00
-3.48
-3.89
-4.21
-4.50
-4.82
-5.18
-5.55
-5.81
-5.87
-5.67
-5.22
-4.54
-3.61
-2.43
-0.98
0.68
2.41
3.97
5.16
5.85
6.05
5.87
5.46
5.02
4.65
4.46
4.47
4.67
4.98
5.26
5.38
5.25
4.86
4.30
3.75
3.35
3.17
3.17
3.20
3.09
2.77
2.24
1.65
1.16
0.90
0.86
0.94
1.04
1.05
0.93
0.67
0.26
-0.29
-0.92
-1.46
-1.72
-1.55
-0.92
0.02
1.02
1.82
2.26
2.35
2.20
1.96
1.77
1.71
1.80
2.00
2.21
2.32
2.22
1.90
1.41
0.89
0.47
0.23
0.16
0.15
0.06
-0.21
-0.68
-1.27
-1.84
-2.25
-2.44
-2.40
-2.24
-2.09
-2.04
-2.09
-2.15
-2.14
-1.95
-1.57
-1.05
-0.44
0.18
0.76
1.26
1.64
1.88
1.99
1.98
1.90
1.77
1.58
1.32
0.98
0.61
0.29
0.08
0.01
0.07
0.22
0.42
0.65
0.88
1.05
1.05
0.81
0.32
-0.33
-1.01
-1.59
-2.02
-2.32
-2.57
-2.80
-3.06
-3.29
-3.49
-3.64
-3.75
-3.81
-3.77
-3.57
-3.12
-2.39
-1.42
-0.33
0.73
1.59
2.13
2.33
2.23
1.97
1.66
1.37
1.12
0.89
0.69
0.58
0.61
0.83
1.21
1.65
2.02
2.20
2.16
1.93
1.59
1.19
0.77
0.33
-0.14
-0.63
-1.12
-1.59
-1.99
-2.29
-2.45
-2.44
-2.27
-1.97
-1.61
-1.21
-0.81
-0.40
0.00
0.41
0.79
1.07
1.20
1.14
0.89
0.51
0.09
-0.27
-0.49
-0.55
-0.49
-0.36
-0.21
-0.04
0.16
0.38
0.59
0.72
0.69
0.50
0.25
0.04
-0.04
0.00
0.05
-0.03
-0.33
-0.83
-1.40
-1.87
-2.10
-2.05
-1.77
-1.33
-0.80
-0.21
0.47
1.23
2.01
2.69
3.10
3.13
2.76
2.10
1.36
0.73
0.34
0.21
0.25
0.36
0.43
0.43
0.38
0.33
0.33
0.38
0.48
0.57
0.58
0.46
0.18
-0.18
-0.54
-0.80
-0.96
-1.05
-1.16
-1.34
-1.57
-1.79
-1.87
-1.76
-1.43
-0.91
-0.27
0.45
1.20
1.89
2.40
2.61
2.45
1.94
1.24
0.51
-0.10
-0.53
-0.78
-0.94
-1.04
-1.12
-1.20
-1.29
-1.43
-1.63
-1.85
-2.01
-2.01
-1.78
-1.35
-0.82
-0.35
-0.08
-0.14
-0.54
-1.23
-2.04
-2.77
-3.22
-3.26
-2.85
-2.08
-1.11
-0.11
0.78
1.51
2.04
2.35
2.40
2.20
1.78
1.21
0.60
0.05
-0.40
-0.70
-0.87
-0.90
-0.80
-0.63
-0.48
-0.44
-0.57
-0.85
-1.18
-1.43
-1.51
-1.41
-1.21
-1.03
-0.98
-1.10
-1.33
-1.56
-1.67
-1.55
-1.19
-0.62
0.07
0.78
1.47
2.08
2.60
2.98
3.15
3.05
2.70
2.18
1.63
1.20
0.99
0.95
0.97
0.95
0.81
0.60
0.39
0.21
0.07
-0.10
-0.35
-0.71
-1.12
-1.51
-1.80
-1.97
-2.05
-2.13
-2.28
-2.55
-2.89
-3.17
-3.25
-2.97
-2.30
-1.34
-0.26
0.71
1.43
1.87
2.10
2.24
2.35
2.43
2.42
2.25
1.94
1.58
1.31
1.24
1.34
1.50
1.59
1.51
1.28
1.01
0.82
0.76
0.76
0.69
0.44
-0.00
-0.55
-1.03
-1.30
-1.28
-1.04
-0.73
-0.53
-0.58
-0.92
-1.43
-1.91
-2.15
-2.02
-1.52
-0.74
0.13
0.97
1.66
2.17
2.48
2.58
2.45
2.13
1.70
1.26
0.96
0.87
0.99
1.22
1.44
1.55
1.50
1.32
1.07
0.80
0.54
0.26
-0.09
-0.51
-0.96
-1.35
-1.58
-1.59
-1.42
-1.20
-1.09
-1.24
-1.67
-2.28
-2.91
-3.35
-3.49
-3.26
-2.74
-2.02
-1.21
-0.40
0.33
0.92
1.30
1.45
1.37
1.14
0.87
0.64
0.54
0.56
0.66
0.77
0.85
0.89
0.91
0.93
0.95
0.91
0.81
0.65
0.46
0.25
0.00
-0.33
-0.79
-1.36
-1.94
-2.41
-2.68
-2.75
-2.68
-2.50
-2.21
-1.77
-1.15
-0.37
0.39
0.96
1.19
1.09
0.79
0.46
0.26
0.22
0.30
0.36
0.32
0.14
-0.17
-0.52
-0.83
-1.01
-1.05
-1.01
-0.98
-1.05
-1.27
-1.62
-2.05
-2.50
-2.93
-3.36
-3.81
-4.29
-4.80
-5.31
-5.78
-6.17
-6.44
-6.53
-6.38
-5.96
-5.27
-4.35
-3.24
-2.01
-0.69
0.68
2.06
3.37
4.48
5.28
5.69
5.73
5.49
5.15
4.84
4.67
4.65
4.75
4.90
5.04
5.14
5.18
5.12
4.93
4.59
4.12
3.55
2.97
2.43
1.94
1.51
1.10
0.68
0.24
-0.18
-0.61
-1.03
-1.43
-1.75
-1.89
-1.74
-1.23
-0.38
0.67
1.70
2.51
2.95
3.01
2.75
2.32
1.82
1.36
0.99
0.74
0.62
0.63
0.74
0.93
1.15
1.36
1.52
1.63
1.67
1.64
1.54
1.34
1.01
0.54
-0.02
-0.58
-1.03
-1.28
-1.34
-1.26
-1.13
-1.05
-1.04
-1.12
-1.26
-1.44
-1.62
-1.73
-1.72
-1.55
-1.21
-0.75
-0.22
0.31
0.80
1.15
1.32
1.26
1.02
0.69
0.40
0.27
0.32
0.52
0.76
0.95
1.03
0.98
0.85
0.63
0.34
0.02
-0.29
-0.54
-0.71
-0.77
-0.79
-0.85
-1.03
-1.37
-1.82
-2.30
-2.71
-2.96
-3.06
-3.05
-2.96
-2.77
-2.41
-1.76
-0.77
0.48
1.80
2.95
3.70
3.97
3.79
3.31
2.72
2.13
1.62
1.17
0.79
0.48
0.28
0.22
0.31
0.48
0.63
0.66
0.50
0.15
-0.31
-0.77
-1.13
-1.34
-1.44
-1.50
-1.60
-1.76
-1.96
-2.15
-2.31
-2.45
-2.61
-2.84
-3.08
-3.21
-3.03
-2.42
-1.39
-0.11
1.12
2.01
2.41
2.37
2.10
1.81
1.63
1.52
1.41
1.21
0.95
0.75
0.73
0.91
1.19
1.40
1.41
1.16
0.72
0.21
-0.25
-0.58
-0.80
-0.96
-1.15
-1.37
-1.61
-1.77
-1.76
-1.57
-1.25
-0.97
-0.87
-1.05
-1.46
-1.93
-2.26
-2.30
-2.04
-1.57
-0.97
-0.32
0.38
1.14
1.91
2.58
2.98
3.02
2.70
2.16
1.64
1.30
1.24
1.38
1.61
1.79
1.84
1.76
1.61
1.45
1.30
1.17
1.02
0.83
0.62
0.42
0.24
0.12
0.05
0.01
-0.03
-0.09
-0.20
-0.36
-0.60
-0.91
-1.28
-1.69
-2.08
-2.39
-2.57
-2.64
-2.58
-2.38
-1.98
-1.32
-0.39
0.73
1.86
2.78
3.31
3.38
3.05
2.50
1.89
1.33
0.88
0.55
0.35
0.28
0.36
0.55
0.82
1.08
1.26
1.31
1.22
0.97
0.62
0.20
-0.23
-0.63
-0.98
-1.28
-1.52
-1.68
-1.75
-1.74
-1.67
-1.62
-1.68
-1.88
-2.18
-2.46
-2.59
-2.47
-2.06
-1.41
-0.63
0.14
0.82
1.34
1.70
1.90
1.92
1.77
1.45
1.03
0.64
0.38
0.31
0.42
0.63
0.82
0.96
1.01
0.98
0.88
0.67
0.32
-0.15
-0.65
-1.07
-1.31
-1.37
-1.30
-1.21
-1.18
-1.23
-1.34
-1.48
-1.66
-1.92
-2.24
-2.58
-2.82
-2.87
-2.69
-2.30
-1.74
-1.06
-0.30
0.52
1.35
2.06
2.53
2.64
2.41
1.96
1.45
1.05
0.85
0.82
0.90
1.03
1.18
1.35
1.53
1.67
1.69
1.50
1.09
0.52
-0.07
-0.52
-0.74
-0.75
-0.67
-0.64
-0.72
-0.92
-1.14
-1.29
-1.33
-1.29
-1.26
-1.33
-1.52
-1.79
-2.06
-2.21
-2.14
-1.76
-1.05
-0.09
1.00
2.01
2.78
3.19
3.25
3.02
2.60
2.05
1.43
0.80
0.26
-0.09
-0.16
0.05
0.46
0.91
1.23
1.35
1.24
0.97
0.60
0.21
-0.16
-0.43
-0.55
-0.52
-0.35
-0.15
-0.01
-0.01
-0.16
-0.40
-0.65
-0.82
-0.91
-0.94
-1.00
-1.11
-1.28
-1.41
-1.42
-1.22
-0.79
-0.19
0.50
1.14
1.65
1.94
1.99
1.82
1.48
1.10
0.80
0.66
0.66
0.77
0.88
0.92
0.86
0.72
0.51
0.24
-0.08
-0.42
-0.72
-0.92
-0.97
-0.90
-0.83
-0.88
-1.13
-1.59
-2.11
-2.51
-2.66
-2.52
-2.20
-1.88
-1.72
-1.76
-1.87
-1.89
-1.64
-1.07
-0.27
0.59
1.36
1.95
2.35
2.58
2.64
2.53
2.24
1.80
1.31
0.90
0.63
0.54
0.54
0.57
0.57
0.54
0.50
0.46
0.39
0.24
-0.03
-0.42
-0.83
-1.16
-1.30
-1.26
-1.12
-1.00
-1.02
-1.22
-1.53
-1.85
-2.06
-2.14
-2.12
-2.13
-2.26
-2.51
-2.73
-2.74
-2.36
-1.60
-0.54
0.59
1.62
2.41
2.92
3.19
3.22
3.02
2.59
1.98
1.29
0.70
0.32
0.22
0.36
0.65
0.96
1.15
1.17
0.97
0.62
0.20
-0.18
-0.43
-0.55
-0.57
-0.57
-0.59
-0.65
-0.69
-0.70
-0.67
-0.67
-0.77
-1.01
-1.35
-1.71
-1.99
-2.13
-2.16
-2.10
-1.95
-1.70
-1.27
-0.65
0.15
1.02
1.84
2.48
2.87
2.96
2.77
2.35
1.78
1.19
0.72
0.49
0.57
0.89
1.32
1.66
1.78
1.63
1.26
0.77
0.27
-0.19
-0.56
-0.84
-1.02
-1.11
-1.14
-1.16
-1.20
-1.27
-1.31
-1.27
-1.15
-1.02
-0.98
-1.14
-1.50
-1.93
-2.26
-2.31
-2.00
-1.39
-0.61
0.16
0.81
1.28
1.57
1.69
1.64
1.44
1.11
0.70
0.32
0.00
-0.20
-0.32
-0.41
-0.53
-0.72
-1.00
-1.35
-1.75
-2.15
-2.48
-2.71
-2.77
-2.69
-2.51
-2.33
-2.29
-2.47
-2.89
-3.50
-4.17
-4.79
-5.32
-5.75
-6.10
-6.36
-6.41
-6.13
-5.39
-4.23
-2.79
-1.29
0.08
1.23
2.21
3.09
3.94
4.72
5.29
5.53
5.38
4.87
4.18
3.50
3.04
2.90
3.03
3.31
3.58
3.70
3.59
3.30
2.87
2.38
1.92
1.53
1.24
1.03
0.86
0.65
0.36
-0.01
-0.38
-0.68
-0.86
-0.94
-0.99
-1.08
-1.23
-1.36
-1.38
-1.18
-0.72
-0.03
0.78
1.59
2.27
2.70
2.82
2.62
2.17
1.58
0.94
0.36
-0.08
-0.32
-0.32
-0.08
0.33
0.80
1.16
1.30
1.19
0.92
0.62
0.43
0.39
0.47
0.57
0.63
0.64
0.62
0.55
0.40
0.09
-0.39
-0.99
-1.58
-2.00
-2.17
-2.09
-1.82
-1.41
-0.88
-0.25
0.47
1.19
1.77
2.05
1.99
1.64
1.16
0.73
0.46
0.36
0.34
0.33
0.28
0.23
0.24
0.34
0.46
0.52
0.45
0.28
0.09
0.01
0.09
0.26
0.37
0.29
-0.01
-0.46
-0.87
-1.14
-1.25
-1.32
-1.48
-1.77
-2.13
-2.38
-2.35
-1.96
-1.24
-0.33
0.58
1.38
1.96
2.30
2.37
2.16
1.71
1.11
0.48
-0.04
-0.39
-0.53
-0.53
-0.42
-0.27
-0.10
0.06
0.21
0.30
0.31
0.23
0.05
-0.17
-0.38
-0.56
-0.70
-0.85
-1.05
-1.33
-1.69
-2.08
-2.43
-2.67
-2.75
-2.64
-2.33
-1.84
-1.25
-0.64
-0.07
0.43
0.85
1.21
1.52
1.72
1.76
1.63
1.38
1.12
0.92
0.81
0.76
0.70
0.62
0.54
0.53
0.60
0.75
0.88
0.87
0.65
0.23
-0.34
-0.93
-1.45
-1.82
-1.98
-1.95
-1.77
-1.51
-1.28
-1.16
-1.23
-1.48
-1.83
-2.13
-2.21
-1.90
-1.18
-0.12
1.05
2.10
2.81
3.08
2.91
2.41
1.73
1.06
0.55
0.30
0.30
0.47
0.68
0.84
0.94
1.01
1.14
1.33
1.50
1.50
1.22
0.66
-0.08
-0.77
-1.23
-1.40
-1.33
-1.17
-1.06
-1.09
-1.24
-1.46
-1.69
-1.90
-2.08
-2.19
-2.16
-1.88
-1.26
-0.34
0.74
1.75
2.50
2.87
2.88
2.63
2.24
1.80
1.36
0.92
0.54
0.28
0.24
0.49
1.02
1.73
2.40
2.82
2.85
2.47
1.82
1.13
0.59
0.28
0.14
0.02
-0.20
-0.56
-0.95
-1.21
-1.25
-1.07
-0.78
-0.54
-0.46
-0.56
-0.77
-0.98
-1.09
-1.04
-0.81
-0.42
0.10
0.73
1.37
1.94
2.32
2.41
2.21
1.77
1.24
0.80
0.60
0.64
0.85
1.06
1.17
1.16
1.09
1.01
0.96
0.86
0.64
0.21
-0.37
-1.00
-1.53
-1.84
-1.91
-1.81
-1.66
-1.57
-1.61
-1.80
-2.08
-2.35
-2.52
-2.48
-2.21
-1.72
-1.07
-0.35
0.36
1.00
1.50
1.80
1.86
1.67
1.29
0.86
0.52
0.39
0.50
0.74
0.97
1.05
0.99
0.86
0.81
0.90
1.06
1.14
1.01
0.62
0.10
-0.38
-0.69
-0.79
-0.81
-0.87
-1.05
-1.32
-1.62
-1.85
-2.01
-2.12
-2.24
-2.38
-2.49
-2.50
-2.34
-2.01
-1.52
-0.93
-0.31
0.30
0.84
1.29
1.62
1.84
1.97
2.04
2.03
1.91
1.66
1.28
0.84
0.44
0.16
0.06
0.11
0.23
0.34
0.40
0.42
0.40
0.35
0.20
-0.08
-0.49
-0.94
-1.28
-1.37
-1.15
-0.73
-0.30
-0.07
-0.15
-0.51
-1.03
-1.56
-2.01
-2.35
-2.57
-2.65
-2.52
-2.13
-1.46
-0.59
0.39
1.36
2.23
2.94
3.44
3.68
3.61
3.22
2.59
1.83
1.08
0.45
-0.01
-0.28
-0.35
-0.22
0.08
0.47
0.84
1.05
1.03
0.79
0.46
0.17
0.04
0.07
0.21
0.32
0.35
0.27
0.14
0.02
-0.08
-0.18
-0.37
-0.68
-1.10
-1.57
-1.97
-2.23
-2.32
-2.23
-1.98
-1.57
-0.99
-0.27
0.55
1.32
1.89
2.15
2.06
1.71
1.23
0.79
0.50
0.37
0.34
0.35
0.37
0.44
0.60
0.88
1.23
1.56
1.73
1.67
1.36
0.89
0.34
-0.19
-0.64
-1.01
-1.27
-1.41
-1.36
-1.14
-0.79
-0.49
-0.38
-0.58
-1.04
-1.63
-2.13
-2.41
-2.42
-2.21
-1.86
-1.41
-0.84
-0.18
0.54
1.19
1.67
1.90
1.93
1.86
1.77
1.64
1.42
1.07
0.61
0.18
-0.07
-0.03
0.25
0.62
0.88
0.91
0.72
0.40
0.05
-0.22
-0.42
-0.59
-0.77
-0.95
-1.11
-1.21
-1.27
-1.31
-1.37
-1.46
-1.55
-1.63
-1.70
-1.79
-1.95
-2.18
-2.43
-2.65
-2.74
-2.66
-2.36
-1.84
-1.12
-0.24
0.69
1.55
2.20
2.52
2.52
2.21
1.70
1.10
0.55
0.16
0.04
0.20
0.59
1.06
1.43
1.56
1.45
1.19
0.92
0.72
0.60
0.50
0.35
0.10
-0.23
-0.62
-0.99
-1.28
-1.44
-1.49
-1.42
-1.28
-1.11
-0.95
-0.81
-0.73
-0.71
-0.81
-1.03
-1.37
-1.73
-1.95
-1.86
-1.37
-0.51
0.54
1.55
2.34
2.84
3.07
3.14
3.06
2.81
2.35
1.71
1.01
0.42
0.09
0.06
0.25
0.52
0.76
0.87
0.87
0.78
0.62
0.43
0.25
0.18
0.26
0.47
0.72
0.87
0.85
0.65
0.33
-0.00
-0.29
-0.53
-0.75
-1.02
-1.38
-1.84
-2.41
-3.05
-3.68
-4.16
-4.28
-3.91
-3.01
-1.70
-0.22
1.13
2.18
2.85
3.15
3.20
3.07
2.82
2.50
2.14
1.81
1.55
1.38
1.28
1.21
1.11
0.96
0.76
0.52
0.30
0.11
-0.01
-0.11
-0.23
-0.39
-0.63
-0.93
-1.25
-1.56
-1.84
-2.07
-2.26
-2.38
-2.44
-2.45
-2.42
-2.36
-2.29
-2.19
-2.06
-1.89
-1.66
-1.34
-0.90
-0.32
0.36
1.02
1.50
1.67
1.48
0.98
0.33
-0.31
-0.82
-1.15
-1.30
-1.32
-1.23
-1.09
-0.95
-0.87
-0.92
-1.15
-1.55
-2.06
-2.58
-2.99
-3.26
-3.41
-3.53
-3.72
-4.03
-4.44
-4.83
-5.13
-5.31
-5.41
-5.48
-5.54
-5.51
-5.24
-4.61
-3.58
-2.18
-0.56
1.12
2.69
4.03
5.06
5.70
5.93
5.73
5.19
4.49
3.81
3.35
3.21
3.36
3.73
4.20
4.67
5.06
5.31
5.35
5.11
4.56
3.74
2.79
1.87
1.13
0.62
0.32
0.17
0.07
-0.04
-0.20
-0.47
-0.84
-1.29
-1.69
-1.92
-1.85
-1.47
-0.85
-0.16
0.47
0.93
1.23
1.39
1.44
1.39
1.22
0.94
0.60
0.31
0.19
0.27
0.55
0.88
1.14
1.22
1.13
0.95
0.80
0.74
0.74
0.69
0.51
0.19
-0.16
-0.40
-0.40
-0.16
0.20
0.49
0.54
0.30
-0.21
-0.83
-1.41
-1.78
-1.85
-1.59
-1.07
-0.39
0.27
0.81
1.13
1.23
1.12
0.84
0.45
0.02
-0.36
-0.60
-0.64
-0.46
-0.12
0.27
0.59
0.81
0.93
1.00
1.04
1.04
0.95
0.74
0.46
0.18
0.02
0.04
0.22
0.46
0.64
0.65
0.44
0.06
-0.42
-0.89
-1.26
-1.43
-1.33
-0.91
-0.15
0.88
2.07
3.29
4.39
5.25
5.77
5.85
5.45
4.55
3.21
1.57
-0.18
-1.82
-3.18
-4.10
-4.55
-4.55
-4.21
-3.64
-3.00
-2.39
-1.93
-1.69
-1.74
-2.10
-2.72
-3.51
-4.30
-4.92
-5.24
-5.18
-4.73
-3.93
-2.82
-1.51
-0.12
1.21
2.32
3.09
3.48
3.51
3.25
2.78
2.15
1.43
0.72
0.08
-0.39
-0.66
-0.71
-0.57
-0.24
0.24
0.85
1.47
1.92
2.04
1.77
1.17
0.45
-0.14
-0.45
-0.45
-0.27
-0.12
-0.18
-0.52
-1.07
-1.71
-2.28
-2.66
-2.83
-2.84
-2.73
-2.50
-2.11
-1.52
-0.75
0.14
1.01
1.72
2.20
2.43
2.46
2.36
2.18
1.98
1.76
1.54
1.32
1.11
0.95
0.82
0.73
0.62
0.45
0.19
-0.16
-0.51
-0.76
-0.81
-0.67
-0.40
-0.14
0.03
0.06
-0.00
-0.10
-0.20
-0.26
-0.28
-0.26
-0.19
-0.07
0.11
0.32
0.53
0.73
0.88
0.96
0.99
0.97
0.95
0.94
0.93
0.89
0.77
0.59
0.41
0.34
0.46
0.75
1.05
1.20
1.04
0.58
-0.06
-0.70
-1.20
-1.51
-1.66
-1.75
-1.81
-1.86
-1.85
-1.76
-1.58
-1.38
-1.21
-1.10
-1.03
-0.97
-0.88
-0.75
-0.56
-0.30
0.04
0.45
0.86
1.20
1.35
1.25
0.93
0.51
0.12
-0.09
-0.09
0.09
0.38
0.69
0.90
0.95
0.78
0.41
-0.11
-0.65
-1.09
-1.37
-1.48
-1.48
-1.43
-1.43
-1.50
-1.68
-2.00
-2.43
-2.94
-3.41
-3.66
-3.53
-2.95
-1.94
-0.66
0.65
1.79
2.61
3.11
3.33
3.37
3.29
3.09
2.79
2.39
1.95
1.54
1.24
1.11
1.12
1.22
1.35
1.43
1.44
1.33
1.08
0.72
0.32
-0.03
-0.29
-0.45
-0.60
-0.80
-1.09
-1.42
-1.66
-1.75
-1.69
-1.59
-1.61
-1.82
-2.18
-2.49
-2.52
-2.13
-1.35
-0.38
0.53
1.19
1.53
1.62
1.62
1.61
1.62
1.59
1.45
1.24
1.02
0.93
1.03
1.29
1.59
1.82
1.88
1.76
1.51
1.22
0.97
0.80
0.75
0.76
0.77
0.69
0.42
-0.02
-0.58
-1.09
-1.41
-1.46
-1.26
-0.91
-0.56
-0.32
-0.29
-0.49
-0.87
-1.32
-1.72
-1.92
-1.86
-1.54
-1.00
-0.32
0.43
1.18
1.83
2.23
2.31
2.03
1.48
0.84
0.31
0.04
0.04
0.23
0.48
0.72
0.92
1.14
1.40
1.67
1.88
1.94
1.81
1.55
1.25
1.00
0.81
0.64
0.44
0.18
-0.10
-0.32
-0.44
-0.48
-0.54
-0.73
-1.06
-1.49
-1.88
-2.12
-2.18
-2.12
-2.03
-1.97
-1.89
-1.68
-1.28
-0.67
0.04
0.70
1.15
1.32
1.23
1.01
0.79
0.69
0.72
0.82
0.88
0.83
0.64
0.40
0.24
0.26
0.50
0.86
1.17
1.27
1.09
0.71
0.28
-0.02
-0.12
-0.02
0.16
0.30
0.31
0.18
-0.01
-0.21
-0.39
-0.61
-0.92
-1.38
-1.94
-2.49
-2.84
-2.87
-2.58
-2.05
-1.48
-1.02
-0.78
-0.76
-0.86
-0.94
-0.88
-0.60
-0.12
0.49
1.14
1.71
2.10
2.25
2.17
1.91
1.54
1.17
0.89
0.79
0.87
1.10
1.38
1.56
1.49
1.09
0.38
-0.53
-1.45
-2.19
-2.61
-2.69
-2.49
-2.12
-1.67
-1.17
-0.68
-0.29
-0.10
-0.23
-0.66
-1.29
-1.91
-2.33
-2.46
-2.32
-2.06
-1.78
-1.49
-1.14
-0.64
0.01
0.73
1.38
1.88
2.20
2.42
2.56
2.63
2.52
2.15
1.53
0.80
0.19
-0.10
0.01
0.42
0.91
1.30
1.51
1.56
1.54
1.50
1.42
1.25
0.98
0.64
0.33
0.14
0.10
0.14
0.15
-0.01
-0.38
-0.88
-1.34
-1.61
-1.61
-1.42
-1.19
-1.08
-1.17
-1.40
-1.67
-1.87
-1.98
-2.01
-1.99
-1.89
-1.63
-1.14
-0.43
0.39
1.11
1.57
1.69
1.54
1.27
1.02
0.87
0.79
0.72
0.58
0.41
0.28
0.30
0.50
0.82
1.09
1.16
0.97
0.61
0.22
-0.03
-0.09
-0.02
0.07
0.09
-0.01
-0.18
-0.38
-0.57
-0.75
-0.97
-1.21
-1.47
-1.69
-1.83
-1.87
-1.86
-1.86
-1.94
-2.10
-2.30
-2.45
-2.44
-2.19
-1.71
-1.05
-0.33
0.37
0.94
1.34
1.54
1.54
1.37
1.09
0.78
0.51
0.33
0.25
0.26
0.36
0.55
0.83
1.15
1.46
1.64
1.64
1.43
1.04
0.55
0.06
-0.34
-0.58
-0.66
-0.62
-0.56
-0.55
-0.64
-0.81
-1.00
-1.13
-1.19
-1.18
-1.19
-1.26
-1.42
-1.63
-1.83
-1.97
-2.05
-2.10
-2.12
-2.10
-1.95
-1.60
-1.01
-0.28
0.49
1.15
1.65
2.02
2.34
2.64
2.86
2.90
2.65
2.11
1.43
0.81
0.41
0.33
0.53
0.88
1.24
1.52
1.66
1.68
1.62
1.53
1.44
1.35
1.22
1.04
0.80
0.55
0.35
0.20
0.11
0.00
-0.17
-0.40
-0.66
-0.93
-1.20
-1.51
-1.92
-2.41
-2.91
-3.32
-3.55
-3.55
-3.34
-2.94
-2.34
-1.55
-0.61
0.38
1.24
1.85
2.15
2.18
2.07
1.94
1.87
1.89
1.97
2.08
2.17
2.20
2.16
2.05
1.90
1.74
1.62
1.52
1.43
1.30
1.11
0.87
0.62
0.39
0.17
-0.04
-0.27
-0.50
-0.71
-0.85
-0.93
-0.93
-0.87
-0.77
-0.63
-0.49
-0.45
-0.58
-0.93
-1.48
-2.10
-2.59
-2.80
-2.65
-2.19
-1.55
-0.87
-0.25
0.27
0.70
1.08
1.42
1.75
2.05
2.30
2.47
2.51
2.37
2.06
1.59
1.03
0.47
-0.02
-0.37
-0.56
-0.59
-0.50
-0.37
-0.25
-0.16
-0.11
-0.09
-0.07
-0.05
-0.03
-0.06
-0.15
-0.33
-0.57
-0.85
-1.09
-1.25
-1.33
-1.33
-1.32
-1.34
-1.45
-1.67
-1.99
-2.33
-2.57
-2.61
-2.35
-1.78
-0.96
-0.00
0.96
1.83
2.52
2.98
3.18
3.08
2.69
2.06
1.32
0.61
0.08
-0.21
-0.23
-0.07
0.20
0.50
0.74
0.88
0.88
0.77
0.58
0.37
0.20
0.06
-0.07
-0.21
-0.35
-0.45
-0.43
-0.28
-0.05
0.16
0.23
0.07
-0.31
-0.85
-1.41
-1.88
-2.18
-2.30
-2.30
-2.22
-2.13
-1.99
-1.76
-1.37
-0.78
-0.04
0.77
1.51
2.07
2.39
2.45
2.26
1.86
1.30
0.70
0.20
-0.04
0.08
0.57
1.32
2.13
2.77
3.06
2.95
2.53
1.96
1.41
0.96
0.64
0.39
0.17
-0.05
-0.26
-0.41
-0.50
-0.54
-0.59
-0.67
-0.81
-0.99
-1.18
-1.38
-1.56
-1.75
-1.92
-2.06
-2.13
-2.06
-1.84
-1.48
-1.01
-0.52
-0.06
0.34
0.67
0.90
1.01
0.96
0.70
0.27
-0.24
-0.67
-0.89
-0.81
-0.43
0.18
0.93
1.67
2.31
2.75
2.90
2.72
2.22
1.51
0.76
0.17
-0.09
0.06
0.54
1.18
1.70
1.89
1.64
1.00
0.20
-0.49
-0.83
-0.71
-0.17
0.62
1.45
2.13
2.48
2.41
1.86
0.86
-0.52
-2.09
-3.62
-4.83
-5.53
-5.63
-5.17
-4.33
-3.32
-2.37
-1.60
-1.07
-0.70
-0.45
-0.26
-0.16
-0.21
-0.46
-0.92
-1.52
-2.10
-2.54
-2.69
-2.49
-1.95
-1.16
-0.27
0.59
1.28
1.71
1.86
1.77
1.52
1.22
0.95
0.77
0.70
0.72
0.78
0.83
0.85
0.84
0.88
1.01
1.24
1.57
1.90
2.17
2.32
2.32
2.21
2.01
1.80
1.57
1.33
1.05
0.71
0.34
-0.00
-0.23
-0.29
-0.18
-0.00
0.12
0.09
-0.10
-0.36
-0.56
-0.61
-0.49
-0.28
-0.10
-0.05
-0.16
-0.40
-0.67
-0.91
-1.04
-1.04
-0.96
-0.87
-0.84
-0.95
-1.20
-1.57
-1.96
-2.26
-2.40
-2.34
-2.11
-1.76
-1.31
-0.80
-0.24
0.32
0.85
1.29
1.59
1.75
1.76
1.62
1.34
0.94
0.47
0.04
-0.23
-0.25
-0.05
0.30
0.68
0.98
1.15
1.19
1.14
1.05
0.95
0.84
0.72
0.58
0.39
0.14
-0.14
-0.40
-0.58
-0.66
-0.66
-0.66
-0.71
-0.87
-1.12
-1.44
-1.81
-2.20
-2.54
-2.76
-2.75
-2.47
-1.95
-1.33
-0.77
-0.39
-0.19
-0.11
-0.03
0.12
0.34
0.55
0.67
0.65
0.49
0.25
0.02
-0.10
-0.02
0.29
0.76
1.26
1.65
1.83
1.82
1.67
1.49
1.33
1.15
0.87
0.42
-0.20
-0.87
-1.45
-1.82
-1.92
-1.81
-1.59
-1.37
-1.23
-1.22
-1.35
-1.56
-1.81
-2.01
-2.10
-2.04
-1.89
-1.74
-1.66
-1.65
-1.62
-1.44
-1.04
-0.43
0.27
0.94
1.45
1.80
2.06
2.28
2.48
2.60
2.58
2.40
2.11
1.82
1.63
1.56
1.56
1.57
1.53
1.44
1.34
1.31
1.38
1.52
1.65
1.65
1.45
1.01
0.37
-0.35
-1.02
-1.49
-1.70
-1.65
-1.37
-0.97
-0.55
-0.20
0.04
0.16
0.15
0.01
-0.25
-0.64
-1.14
-1.70
-2.21
-2.54
-2.56
-2.23
-1.57
-0.71
0.16
0.88
1.33
1.48
1.40
1.20
1.00
0.90
0.90
0.99
1.11
1.20
1.27
1.30
1.32
1.33
1.33
1.30
1.22
1.09
0.87
0.54
0.11
-0.36
-0.78
-1.04
-1.08
-0.93
-0.69
-0.49
-0.40
-0.43
-0.53
-0.61
-0.59
-0.48
-0.33
-0.21
-0.21
-0.35
-0.63
-1.01
-1.45
-1.84
-2.12
-2.19
-1.98
-1.49
-0.79
-0.05
0.53
0.81
0.77
0.52
0.29
0.27
0.53
0.98
1.44
1.72
1.73
1.53
1.24
0.97
0.78
0.67
0.62
0.59
0.60
0.64
0.70
0.70
0.58
0.29
-0.16
-0.68
-1.15
-1.46
-1.54
-1.44
-1.26
-1.12
-1.09
-1.16
-1.28
-1.34
-1.33
-1.27
-1.24
-1.26
-1.33
-1.42
-1.48
-1.52
-1.55
-1.60
-1.63
-1.58
-1.37
-0.98
-0.44
0.15
0.72
1.22
1.63
1.97
2.22
2.33
2.25
1.96
1.53
1.06
0.64
0.35
0.20
0.18
0.24
0.35
0.53
0.76
1.03
1.27
1.38
1.31
1.00
0.52
-0.03
-0.49
-0.74
-0.73
-0.49
-0.16
0.06
0.08
-0.13
-0.47
-0.80
-1.02
-1.11
-1.12
-1.14
-1.21
-1.30
-1.36
-1.34
-1.25
-1.12
-1.01
-0.86
-0.60
-0.20
0.34
0.90
1.30
1.46
1.37
1.16
0.96
0.86
0.87
0.91
0.94
0.96
1.01
1.08
1.14
1.15
1.06
0.88
0.70
0.60
0.65
0.85
1.12
1.37
1.49
1.39
1.05
0.52
-0.10
-0.69
-1.10
-1.26
-1.16
-0.89
-0.61
-0.44
-0.46
-0.66
-0.93
-1.17
-1.33
-1.40
-1.44
-1.49
-1.58
-1.69
-1.74
-1.71
-1.54
-1.24
-0.83
-0.32
0.26
0.86
1.42
1.84
2.04
1.98
1.69
1.26
0.80
0.42
0.24
0.25
0.40
0.62
0.81
0.91
0.93
0.89
0.84
0.79
0.72
0.61
0.43
0.17
-0.16
-0.52
-0.83
-1.06
-1.16
-1.14
-1.03
-0.87
-0.67
-0.48
-0.33
-0.29
-0.41
-0.72
-1.16
-1.65
-2.08
-2.37
-2.50
-2.47
-2.27
-1.90
-1.34
-0.62
0.19
0.93
1.47
1.73
1.69
1.41
1.03
0.69
0.50
0.48
0.60
0.77
0.89
0.95
0.95
0.95
0.97
0.97
0.91
0.74
0.45
0.13
-0.11
-0.22
-0.22
-0.20
-0.24
-0.38
-0.54
-0.62
-0.51
-0.20
0.20
0.54
0.67
0.54
0.18
-0.30
-0.79
-1.21
-1.55
-1.81
-1.99
-2.10
-2.10
-1.98
-1.74
-1.36
-0.83
-0.19
0.50
1.14
1.68
2.07
2.31
2.39
2.30
1.99
1.44
0.73
-0.00
-0.53
-0.70
-0.47
0.02
0.55
0.92
1.06
1.05
1.03
1.14
1.38
1.62
1.68
1.45
0.92
0.26
-0.35
-0.76
-0.95
-0.97
-0.91
-0.82
-0.70
-0.51
-0.24
0.04
0.23
0.21
-0.04
-0.48
-0.97
-1.39
-1.66
-1.73
-1.62
-1.32
-0.84
-0.21
0.53
1.27
1.88
2.25
2.32
2.09
1.63
1.03
0.40
-0.19
-0.66
-0.97
-1.09
-1.01
-0.75
-0.36
0.09
0.53
0.89
1.13
1.18
1.05
0.76
0.39
0.02
-0.27
-0.47
-0.59
-0.68
-0.76
-0.85
-0.95
-1.05
-1.17
-1.31
-1.48
-1.63
-1.73
-1.74
-1.68
-1.57
-1.44
-1.31
-1.16
-0.94
-0.63
-0.20
0.33
0.89
1.44
1.89
2.20
2.35
2.37
2.27
2.10
1.87
1.59
1.27
0.94
0.62
0.35
0.14
0.00
-0.05
-0.03
0.03
0.05
-0.02
-0.23
-0.51
-0.78
-0.89
-0.79
-0.54
-0.26
-0.10
-0.14
-0.36
-0.66
-0.92
-1.04
-1.00
-0.85
-0.66
-0.56
-0.61
-0.83
-1.16
-1.47
-1.64
-1.61
-1.40
-1.06
-0.70
-0.36
-0.02
0.38
0.87
1.41
1.91
2.21
2.19
1.85
1.23
0.51
-0.12
-0.48
-0.48
-0.13
0.43
0.99
1.36
1.42
1.19
0.79
0.36
0.07
-0.02
0.09
0.31
0.53
0.66
0.66
0.52
0.29
0.05
-0.14
-0.24
-0.25
-0.20
-0.14
-0.11
-0.12
-0.17
-0.25
-0.38
-0.55
-0.74
-0.89
-0.94
-0.81
-0.46
0.03
0.58
1.03
1.29
1.36
1.30
1.19
1.09
1.00
0.88
0.70
0.49
0.27
0.12
0.06
0.07
0.10
0.13
0.13
0.13
0.13
0.15
0.15
0.13
0.08
-0.01
-0.12
-0.24
-0.35
-0.44
-0.52
-0.62
-0.76
-0.99
-1.31
-1.69
-2.07
-2.37
-2.56
-2.65
-2.68
-2.65
-2.51
-2.16
-1.53
-0.68
0.22
0.92
1.24
1.15
0.80
0.40
0.14
0.04
0.05
0.08
0.08
0.10
0.23
0.48
0.80
1.06
1.15
1.06
0.87
0.70
0.65
0.67
0.65
0.45
0.01
-0.57
-1.12
-1.44
-1.45
-1.22
-0.93
-0.75
-0.78
-1.00
-1.30
-1.56
-1.70
-1.69
-1.48
-1.06
-0.43
0.36
1.16
1.80
2.13
2.13
1.88
1.55
1.23
0.97
0.76
0.60
0.52
0.56
0.72
0.93
1.07
1.03
0.80
0.47
0.18
0.06
0.15
0.40
0.64
0.74
0.62
0.28
-0.20
-0.69
-1.10
-1.33
-1.36
-1.21
-0.95
-0.68
-0.48
-0.46
-0.65
-1.04
-1.54
-1.98
-2.21
-2.08
-1.58
-0.77
0.19
1.13
1.92
2.45
2.69
2.63
2.30
1.75
1.06
0.36
-0.24
-0.59
-0.63
-0.38
0.08
0.63
1.12
1.48
1.65
1.62
1.38
0.94
0.38
-0.18
-0.62
-0.85
-0.87
-0.79
-0.74
-0.78
-0.89
-0.95
-0.87
-0.64
-0.36
-0.19
-0.25
-0.55
-0.99
-1.43
-1.70
-1.72
-1.45
-0.90
-0.15
0.67
1.42
1.99
2.28
2.29
2.04
1.63
1.16
0.73
0.43
0.34
0.46
0.77
1.18
1.56
1.78
1.72
1.35
0.75
0.10
-0.39
-0.58
-0.45
-0.14
0.18
0.32
0.26
0.05
-0.20
-0.40
-0.58
-0.79
-1.08
-1.42
-1.70
-1.82
-1.75
-1.56
-1.37
-1.28
-1.28
-1.28
-1.15
-0.81
-0.26
0.41
1.06
1.57
1.87
1.96
1.86
1.64
1.38
1.18
1.08
1.11
1.23
1.36
1.46
1.46
1.35
1.15
0.91
0.65
0.41
0.20
0.04
-0.07
-0.18
-0.31
-0.49
-0.75
-1.05
-1.37
-1.68
-1.93
-2.11
-2.20
-2.22
-2.18
-2.13
-2.07
-2.00
-1.87
-1.63
-1.23
-0.72
-0.16
0.34
0.72
0.96
1.09
1.15
1.16
1.11
1.00
0.79
0.53
0.26
0.07
0.04
0.17
0.41
0.65
0.78
0.73
0.51
0.21
-0.06
-0.25
-0.35
-0.43
-0.55
-0.75
-0.99
-1.22
-1.40
-1.50
-1.58
-1.68
-1.83
-2.02
-2.19
-2.27
-2.18
-1.91
-1.47
-0.90
-0.26
0.40
1.03
1.56
1.95
2.18
2.24
2.20
2.12
2.01
1.89
1.72
1.53
1.37
1.29
1.29
1.34
1.32
1.18
0.93
0.64
0.40
0.24
0.12
-0.05
-0.31
-0.64
-0.96
-1.20
-1.37
-1.51
-1.65
-1.81
-1.92
-1.95
-1.88
-1.76
-1.64
-1.55
-1.49
-1.45
-1.43
-1.44
-1.44
-1.39
-1.20
-0.81
-0.22
0.49
1.19
1.76
2.09
2.16
1.99
1.64
1.20
0.74
0.37
0.13
0.04
0.08
0.24
0.46
0.70
0.92
1.04
1.04
0.88
0.59
0.22
-0.14
-0.41
-0.53
-0.53
-0.51
-0.61
-0.92
-1.45
-2.09
-2.63
-2.94
-2.98
-2.85
-2.76
-2.88
-3.27
-3.85
-4.46
-4.94
-5.17
-5.12
-4.83
-4.36
-3.80
-3.20
-2.60
-1.99
-1.33
-0.56
0.35
1.40
2.52
3.57
4.40
4.90
5.08
5.02
4.88
4.78
4.80
4.93
5.05
5.07
4.92
4.60
4.18
3.76
3.43
3.17
2.96
2.74
2.50
2.23
1.95
1.69
1.42
1.14
0.85
0.60
0.44
0.40
0.42
0.42
0.31
0.04
-0.34
-0.74
-1.05
-1.22
-1.25
-1.14
-0.90
-0.49
0.11
0.87
1.63
2.22
2.47
2.30
1.80
1.15
0.56
0.15
-0.04
-0.07
-0.04
0.01
0.07
0.19
0.34
0.45
0.43
0.19
-0.27
-0.85
-1.39
-1.76
-1.91
-1.88
-1.78
-1.70
-1.66
-1.64
-1.62
-1.56
-1.49
-1.43
-1.43
-1.52
-1.70
-1.92
-2.15
-2.32
-2.37
-2.30
-2.10
-1.76
-1.31
-0.71
-0.00
0.78
1.52
2.13
2.52
2.69
2.69
2.58
2.41
2.17
1.85
1.52
1.25
1.14
1.21
1.42
1.64
1.76
1.73
1.59
1.42
1.31
1.29
1.31
1.30
1.21
1.06
0.90
0.83
0.91
1.15
1.50
1.85
2.11
2.21
2.14
1.93
1.62
1.23
0.74
0.16
-0.50
-1.17
-1.76
-2.14
-2.23
-1.98
-1.42
-0.65
0.17
0.89
1.36
1.47
1.19
0.53
-0.47
-1.71
-3.01
-4.13
-4.85
-5.05
-4.77
-4.24
-3.73
-3.48
-3.54
-3.78
-3.99
-3.99
-3.76
-3.41
-3.14
-3.07
-3.18
-3.37
-3.47
-3.42
-3.24
-3.04
-2.88
-2.75
-2.54
-2.14
-1.49
-0.68
0.07
0.54
0.59
0.26
-0.29
-0.86
-1.30
-1.56
-1.67
-1.66
-1.50
-1.10
-0.44
0.45
1.39
2.18
2.64
2.76
2.65
2.48
2.36
2.27
2.16
1.94
1.66
1.46
1.54
2.01
2.83
3.80
4.67
5.17
5.22
4.82
4.13
3.32
2.51
1.79
1.19
0.77
0.54
0.50
0.57
0.64
0.58
0.33
-0.08
-0.56
-1.00
-1.36
-1.68
-1.99
-2.30
-2.50
-2.43
-2.00
-1.23
-0.30
0.57
1.23
1.59
1.73
1.76
1.75
1.76
1.75
1.72
1.64
1.56
1.52
1.52
1.55
1.52
1.40
1.15
0.83
0.52
0.31
0.23
0.23
0.20
0.06
-0.27
-0.73
-1.24
-1.68
-1.94
-2.00
-1.87
-1.65
-1.45
-1.35
-1.39
-1.56
-1.79
-2.05
-2.31
-2.55
-2.74
-2.84
-2.78
-2.47
-1.91
-1.12
-0.19
0.75
1.58
2.17
2.46
2.41
2.11
1.67
1.26
0.98
0.87
0.87
0.88
0.81
0.65
0.43
0.24
0.13
0.14
0.24
0.39
0.50
0.56
0.56
0.53
0.48
0.39
0.23
-0.02
-0.37
-0.76
-1.13
-1.44
-1.68
-1.86
-2.02
-2.11
-2.11
-2.00
-1.82
-1.62
-1.40
-1.14
-0.74
-0.14
0.66
1.51
2.23
2.63
2.61
2.23
1.59
0.90
0.30
-0.09
-0.24
-0.14
0.13
0.50
0.86
1.14
1.29
1.30
1.20
1.05
0.90
0.79
0.72
0.65
0.54
0.37
0.15
-0.11
-0.37
-0.63
-0.88
-1.12
-1.32
-1.46
-1.55
-1.62
-1.76
-2.00
-2.32
-2.61
-2.75
-2.66
-2.29
-1.67
-0.85
0.08
1.06
1.97
2.71
3.17
3.28
3.04
2.50
1.81
1.12
0.60
0.35
0.37
0.61
0.92
1.20
1.39
1.52
1.65
1.83
1.99
2.03
1.86
1.46
0.91
0.35
-0.11
-0.47
-0.76
-1.03
-1.28
-1.46
-1.50
-1.38
-1.18
-1.03
-1.05
-1.29
-1.69
-2.12
-2.43
-2.49
-2.25
-1.69
-0.89
0.01
0.89
1.61
2.11
2.40
2.50
2.44
2.20
1.82
1.33
0.83
0.49
0.40
0.59
0.97
1.39
1.68
1.76
1.62
1.34
1.03
0.77
0.61
0.50
0.39
0.19
-0.10
-0.45
-0.79
-1.05
-1.24
-1.40
-1.56
-1.76
-1.96
-2.13
-2.24
-2.34
-2.49
-2.71
-2.92
-2.96
-2.63
-1.84
-0.71
0.52
1.53
2.10
2.20
1.99
1.70
1.50
1.45
1.47
1.42
1.24
0.93
0.58
0.28
0.07
-0.06
-0.19
-0.33
-0.48
-0.62
-0.72
-0.77
-0.79
-0.83
-0.95
-1.17
-1.46
-1.78
-2.01
-2.09
-1.96
-1.68
-1.36
-1.14
-1.14
-1.35
-1.69
-2.02
-2.19
-2.15
-1.88
-1.41
-0.77
-0.00
0.84
1.63
2.21
2.43
2.25
1.74
1.13
0.65
0.47
0.61
0.97
1.41
1.80
2.06
2.15
2.07
1.81
1.42
0.95
0.50
0.16
-0.05
-0.15
-0.24
-0.39
-0.60
-0.86
-1.14
-1.42
-1.69
-1.92
-2.06
-2.03
-1.82
-1.50
-1.23
-1.16
-1.35
-1.74
-2.15
-2.38
-2.28
-1.81
-1.05
-0.12
0.83
1.67
2.29
2.66
2.77
2.68
2.46
2.20
1.93
1.64
1.32
1.00
0.73
0.57
0.56
0.70
0.90
1.04
1.02
0.81
0.46
0.09
-0.19
-0.30
-0.24
-0.10
0.01
0.01
-0.11
-0.32
-0.56
-0.79
-1.01
-1.24
-1.46
-1.68
-1.86
-1.97
-1.97
-1.85
-1.64
-1.39
-1.17
-1.05
-1.03
-1.03
-0.92
-0.56
0.12
1.06
2.12
3.12
3.85
4.21
4.18
3.79
3.14
2.37
1.62
1.06
0.78
0.78
0.96
1.15
1.20
1.01
0.62
0.18
-0.14
-0.20
0.01
0.39
0.75
0.91
0.77
0.37
-0.16
-0.63
-0.93
-1.05
-1.06
-1.11
-1.27
-1.50
-1.70
-1.80
-1.79
-1.77
-1.86
-2.12
-2.45
-2.67
-2.55
-2.00
-1.05
0.12
1.26
2.16
2.72
2.91
2.76
2.36
1.78
1.12
0.47
-0.03
-0.30
-0.30
-0.09
0.22
0.48
0.58
0.51
0.29
-0.00
-0.32
-0.63
-0.93
-1.16
-1.27
-1.20
-0.95
-0.60
-0.27
-0.10
-0.16
-0.43
-0.86
-1.32
-1.76
-2.12
-2.39
-2.56
-2.62
-2.54
-2.35
-2.11
-1.85
-1.57
-1.23
-0.74
-0.03
0.84
1.73
2.39
2.64
2.43
1.89
1.26
0.77
0.53
0.52
0.64
0.75
0.78
0.72
0.60
0.45
0.30
0.17
0.07
0.00
-0.05
-0.12
-0.23
-0.44
-0.76
-1.18
-1.66
-2.16
-2.63
-3.00
-3.18
-3.15
-2.93
-2.62
-2.40
-2.44
-2.80
-3.42
-4.14
-4.75
-5.06
-4.97
-4.50
-3.73
-2.80
-1.88
-1.15
-0.73
-0.67
-0.93
-1.36
-1.76
-2.01
-2.04
-1.87
-1.55
-1.07
-0.40
0.51
1.63
2.84
3.94
4.77
5.26
5.45
5.46
5.38
5.22
4.95
4.54
4.03
3.53
3.20
3.08
3.12
3.15
3.04
2.70
2.21
1.67
1.20
0.85
0.57
0.30
-0.01
-0.32
-0.56
-0.67
-0.59
-0.31
0.17
0.79
1.48
2.14
2.68
2.98
3.00
2.75
2.32
1.82
1.40
1.13
1.05
1.13
1.31
1.51
1.68
1.79
1.81
1.70
1.46
1.08
0.60
0.06
-0.48
-0.94
-1.30
-1.52
-1.61
-1.60
-1.55
-1.52
-1.60
-1.81
-2.16
-2.58
-2.97
-3.25
-3.33
-3.20
-2.86
-2.33
-1.70
-1.07
-0.50
-0.03
0.33
0.64
0.91
1.13
1.23
1.11
0.78
0.30
-0.18
-0.53
-0.63
-0.47
-0.11
0.34
0.76
1.06
1.17
1.06
0.78
0.39
0.02
-0.25
-0.38
-0.39
-0.35
-0.31
-0.31
-0.39
-0.55
-0.82
-1.19
-1.61
-2.01
-2.33
-2.54
-2.64
-2.64
-2.55
-2.32
-1.90
-1.26
-0.44
0.47
1.33
2.06
2.59
2.91
3.01
2.92
2.68
2.35
2.00
1.69
1.39
1.10
0.81
0.58
0.48
0.58
0.84
1.13
1.27
1.14
0.74
0.20
-0.28
-0.57
-0.64
-0.58
-0.57
-0.74
-1.12
-1.66
-2.20
-2.60
-2.75
-2.67
-2.45
-2.21
-2.06
-2.01
-2.00
-1.92
-1.68
-1.25
-0.63
0.11
0.87
1.57
2.15
2.57
2.82
2.90
2.84
2.70
2.49
2.26
2.02
1.78
1.55
1.34
1.18
1.09
1.08
1.11
1.13
1.10
1.00
0.82
0.62
0.43
0.28
0.14
-0.01
-0.24
-0.56
-0.94
-1.32
-1.61
-1.77
-1.82
-1.82
-1.83
-1.89
-1.94
-1.89
-1.61
-1.05
-0.19
0.86
1.95
2.91
3.59
3.91
3.85
3.47
2.87
2.17
1.51
0.99
0.64
0.46
0.37
0.33
0.28
0.23
0.20
0.22
0.26
0.27
0.20
0.00
-0.30
-0.64
-0.93
-1.12
-1.27
-1.47
-1.78
-2.19
-2.60
-2.83
-2.81
-2.60
-2.37
-2.31
-2.49
-2.78
-2.90
-2.60
-1.80
-0.66
0.50
1.37
1.82
1.91
1.81
1.64
1.44
1.14
0.70
0.19
-0.21
-0.32
-0.07
0.44
0.93
1.15
1.01
0.56
0.05
-0.31
-0.39
-0.22
0.05
0.25
0.24
-0.00
-0.43
-0.91
-1.35
-1.63
-1.76
-1.74
-1.66
-1.62
-1.68
-1.87
-2.15
-2.43
-2.61
-2.55
-2.19
-1.49
-0.52
0.57
1.62
2.49
3.03
3.20
2.98
2.47
1.79
1.13
0.67
0.53
0.70
1.07
1.45
1.67
1.66
1.42
1.04
0.62
0.23
-0.08
-0.30
-0.46
-0.55
-0.63
-0.73
-0.90
-1.15
-1.48
-1.83
-2.11
-2.26
-2.23
-2.05
-1.83
-1.69
-1.69
-1.83
-1.94
-1.85
-1.43
-0.67
0.26
1.14
1.81
2.20
2.37
2.46
2.55
2.66
2.74
2.71
2.51
2.16
1.72
1.28
0.90
0.64
0.52
0.55
0.70
0.94
1.18
1.35
1.32
1.04
0.49
-0.25
-1.02
-1.65
-2.02
-2.06
-1.82
-1.39
-0.94
-0.62
-0.51
-0.64
-0.95
-1.32
-1.61
-1.69
-1.48
-0.97
-0.23
0.60
1.37
1.97
2.36
2.57
2.62
2.57
2.42
2.14
1.73
1.27
0.86
0.63
0.64
0.84
1.08
1.19
1.11
0.88
0.62
0.47
0.46
0.47
0.35
0.01
-0.50
-0.99
-1.24
-1.16
-0.82
-0.47
-0.35
-0.55
-0.99
-1.47
-1.81
-2.00
-2.15
-2.41
-2.81
-3.21
-3.38
-3.13
-2.44
-1.43
-0.36
0.54
1.16
1.46
1.48
1.28
0.93
0.51
0.16
-0.03
-0.01
0.15
0.33
0.40
0.30
0.08
-0.15
-0.30
-0.30
-0.19
-0.03
0.09
0.11
0.03
-0.14
-0.36
-0.61
-0.89
-1.19
-1.51
-1.83
-2.11
-2.30
-2.37
-2.31
-2.14
-1.90
-1.69
-1.53
-1.44
-1.35
-1.19
-0.87
-0.38
0.26
1.00
1.78
2.54
3.17
3.54
3.55
3.19
2.56
1.88
1.39
1.22
1.34
1.59
1.76
1.76
1.58
1.33
1.08
0.85
0.59
0.23
-0.28
-0.88
-1.47
-1.91
-2.11
-2.04
-1.80
-1.51
-1.30
-1.22
-1.20
-1.18
-1.11
-1.06
-1.17
-1.57
-2.25
-3.02
-3.56
-3.60
-3.05
-2.05
-0.90
0.11
0.86
1.40
1.88
2.42
2.99
3.45
3.63
3.47
3.02
2.47
2.02
1.77
1.70
1.70
1.68
1.59
1.46
1.37
1.36
1.39
1.37
1.20
0.81
0.23
-0.42
-1.02
-1.44
-1.61
-1.52
-1.24
-0.85
-0.47
-0.17
-0.01
0.01
-0.10
-0.34
-0.66
-1.02
-1.38
-1.71
-1.94
-2.02
-1.88
-1.49
-0.83
0.02
0.93
1.74
2.32
2.58
2.56
2.30
1.90
1.42
0.94
0.54
0.31
0.30
0.51
0.82
1.11
1.23
1.14
0.89
0.57
0.30
0.11
-0.02
-0.14
-0.28
-0.45
-0.63
-0.81
-0.98
-1.17
-1.38
-1.62
-1.86
-2.09
-2.28
-2.43
-2.55
-2.63
-2.71
-2.78
-2.83
-2.81
-2.63
-2.22
-1.56
-0.70
0.22
1.04
1.58
1.78
1.66
1.34
0.92
0.53
0.21
0.01
-0.08
-0.06
0.02
0.09
0.10
-0.00
-0.21
-0.46
-0.71
-0.93
-1.15
-1.43
-1.80
-2.24
-2.65
-2.94
-3.05
-3.02
-2.99
-3.07
-3.35
-3.80
-4.34
-4.87
-5.33
-5.73
-6.06
-6.33
-6.47
-6.36
-5.92
-5.06
-3.81
-2.22
-0.43
1.43
3.17
4.60
5.56
6.01
6.01
5.73
5.40
5.17
5.12
5.18
5.26
5.25
5.13
4.91
4.65
4.40
4.15
3.88
3.54
3.13
2.68
2.23
1.85
1.56
1.37
1.23
1.08
0.88
0.63
0.39
0.20
0.10
0.04
-0.06
-0.31
-0.75
-1.31
-1.83
-2.09
-1.96
-1.42
-0.61
0.29
1.09
1.69
2.10
2.40
2.63
2.76
2.75
2.55
2.20
1.79
1.42
1.17
1.06
1.02
1.04
1.10
1.22
1.40
1.59
1.68
1.58
1.29
0.85
0.34
-0.15
-0.58
-0.94
-1.21
-1.35
-1.35
-1.25
-1.09
-0.98
-0.98
-1.12
-1.35
-1.64
-1.92
-2.14
-2.23
-2.16
-1.89
-1.42
-0.78
-0.02
0.78
1.56
2.17
2.51
2.49
2.13
1.53
0.86
0.25
-0.20
-0.51
-0.69
-0.73
-0.61
-0.33
0.02
0.31
0.39
0.18
-0.26
-0.76
-1.14
-1.33
-1.40
-1.47
-1.65
-1.96
-2.31
-2.54
-2.59
-2.47
-2.30
-2.19
-2.24
-2.41
-2.59
-2.66
-2.54
-2.21
-1.74
-1.19
-0.55
0.16
0.96
1.81
2.62
3.21
3.46
3.32
2.84
2.19
1.52
0.96
0.59
0.43
0.43
0.58
0.81
1.06
1.28
1.41
1.40
1.21
0.83
0.27
-0.40
-1.02
-1.46
-1.66
-1.63
-1.50
-1.42
-1.47
-1.61
-1.79
-1.92
-2.01
-2.10
-2.23
-2.37
-2.39
-2.15
-1.60
-0.80
0.12
0.95
1.58
2.02
2.31
2.55
2.77
2.91
2.90
2.65
2.16
1.54
0.94
0.53
0.39
0.52
0.80
1.12
1.35
1.43
1.38
1.23
1.04
0.84
0.62
0.37
0.08
-0.21
-0.46
-0.58
-0.57
-0.44
-0.26
-0.12
-0.11
-0.28
-0.65
-1.16
-1.76
-2.33
-2.74
-2.86
-2.60
-1.96
-1.06
-0.06
0.84
1.51
1.90
2.07
2.05
1.91
1.66
1.33
0.95
0.63
0.44
0.49
0.76
1.21
1.72
2.14
2.37
2.34
2.07
1.64
1.16
0.72
0.36
0.07
-0.18
-0.40
-0.58
-0.71
-0.82
-0.95
-1.18
-1.51
-1.88
-2.21
-2.40
-2.45
-2.39
-2.28
-2.13
-1.88
-1.45
-0.82
-0.04
0.77
1.50
2.05
2.39
2.53
2.44
2.11
1.56
0.87
0.14
-0.46
-0.86
-1.03
-1.03
-0.94
-0.82
-0.71
-0.61
-0.55
-0.54
-0.62
-0.79
-1.02
-1.27
-1.48
-1.61
-1.67
-1.69
-1.70
-1.76
-1.90
-2.14
-2.45
-2.79
-3.08
-3.22
-3.15
-2.80
-2.17
-1.29
-0.25
0.86
1.91
2.77
3.33
3.55
3.44
3.06
2.53
1.96
1.46
1.09
0.91
0.94
1.14
1.45
1.73
1.87
1.75
1.35
0.72
0.03
-0.58
-0.97
-1.13
-1.14
-1.12
-1.20
-1.36
-1.54
-1.65
-1.64
-1.57
-1.56
-1.72
-2.06
-2.52
-2.92
-3.11
-2.95
-2.42
-1.58
-0.56
0.46
1.39
2.13
2.69
3.08
3.30
3.34
3.19
2.82
2.29
1.67
1.12
0.75
0.63
0.76
1.05
1.36
1.54
1.50
1.23
0.79
0.31
-0.09
-0.35
-0.49
-0.54
-0.55
-0.56
-0.57
-0.60
-0.67
-0.79
-0.97
-1.19
-1.43
-1.67
-1.90
-2.12
-2.28
-2.29
-2.08
-1.59
-0.85
0.01
0.83
1.49
1.92
2.15
2.25
2.24
2.16
2.03
1.85
1.66
1.45
1.25
1.05
0.86
0.72
0.65
0.67
0.76
0.87
0.96
0.96
0.88
0.71
0.43
0.02
-0.48
-1.00
-1.36
-1.43
-1.17
-0.69
-0.22
-0.03
-0.25
-0.84
-1.57
-2.18
-2.42
-2.20
-1.59
-0.75
0.16
1.00
1.70
2.25
2.66
2.90
2.92
2.67
2.12
1.34
0.50
-0.23
-0.70
-0.86
-0.81
-0.65
-0.51
-0.42
-0.37
-0.35
-0.40
-0.53
-0.80
-1.16
-1.57
-1.92
-2.16
-2.28
-2.29
-2.23
-2.14
-2.05
-2.02
-2.08
-2.25
-2.48
-2.69
-2.75
-2.54
-2.00
-1.15
-0.09
1.00
1.92
2.52
2.77
2.70
2.47
2.18
1.91
1.63
1.29
0.85
0.38
-0.04
-0.29
-0.29
-0.08
0.25
0.54
0.66
0.53
0.18
-0.30
-0.76
-1.06
-1.12
-0.96
-0.70
-0.50
-0.50
-0.72
-1.12
-1.60
-2.03
-2.37
-2.61
-2.76
-2.80
-2.70
-2.38
-1.79
-0.98
-0.06
0.80
1.47
1.90
2.14
2.30
2.47
2.63
2.70
2.59
2.23
1.68
1.08
0.60
0.39
0.47
0.80
1.22
1.56
1.68
1.55
1.22
0.84
0.53
0.32
0.15
-0.09
-0.43
-0.82
-1.12
-1.26
-1.23
-1.14
-1.10
-1.19
-1.37
-1.53
-1.58
-1.51
-1.36
-1.21
-1.07
-0.86
-0.45
0.24
1.18
2.21
3.09
3.61
3.66
3.31
2.76
2.23
1.87
1.70
1.61
1.52
1.40
1.29
1.30
1.45
1.67
1.83
1.80
1.54
1.11
0.62
0.19
-0.15
-0.43
-0.69
-0.94
-1.13
-1.24
-1.28
-1.30
-1.37
-1.53
-1.75
-1.97
-2.11
-2.18
-2.20
-2.18
-2.13
-1.94
-1.51
-0.79
0.18
1.24
2.15
2.69
2.72
2.24
1.40
0.45
-0.37
-0.91
-1.14
-1.12
-0.94
-0.71
-0.52
-0.43
-0.49
-0.73
-1.15
-1.69
-2.28
-2.88
-3.43
-3.94
-4.41
-4.83
-5.17
-5.41
-5.58
-5.74
-5.92
-6.15
-6.38
-6.55
-6.55
-6.31
-5.75
-4.84
-3.58
-2.04
-0.33
1.38
2.93
4.19
5.09
5.62
5.86
5.91
5.86
5.73
5.54
5.25
4.89
4.53
4.24
4.10
4.11
4.22
4.31
4.31
4.17
3.91
3.56
3.13
2.64
2.06
1.42
0.78
0.21
-0.27
-0.65
-0.99
-1.33
-1.67
-1.96
-2.15
-2.19
-2.10
-1.94
-1.76
-1.56
-1.29
-0.91
-0.41
0.15
0.69
1.14
1.52
1.84
2.13
2.36
2.47
2.39
2.11
1.73
1.41
1.28
1.37
1.61
1.84
1.94
1.86
1.60
1.23
0.83
0.43
0.06
-0.27
-0.54
-0.73
-0.83
-0.86
-0.87
-0.92
-1.04
-1.26
-1.53
-1.78
-1.95
-1.97
-1.84
-1.62
-1.39
-1.22
-1.11
-0.97
-0.68
-0.15
0.62
1.49
2.29
2.84
3.06
2.97
2.71
2.41
2.12
1.84
1.52
1.11
0.66
0.26
0.03
0.04
0.24
0.51
0.72
0.79
0.73
0.58
0.40
0.19
-0.10
-0.52
-1.05
-1.59
-1.97
-2.04
-1.81
-1.39
-0.99
-0.80
-0.92
-1.28
-1.73
-2.09
-2.25
-2.13
-1.74
-1.11
-0.32
0.52
1.24
1.72
1.86
1.66
1.19
0.58
-0.06
-0.60
-0.98
-1.12
-1.03
-0.75
-0.36
0.04
0.35
0.54
0.60
0.57
0.46
0.30
0.10
-0.14
-0.41
-0.73
-1.08
-1.44
-1.77
-2.05
-2.23
-2.33
-2.32
-2.20
-2.01
-1.83
-1.74
-1.85
-2.14
-2.45
-2.57
-2.26
-1.48
-0.33
0.92
2.01
2.79
3.27
3.50
3.53
3.34
2.90
2.21
1.39
0.66
0.20
0.10
0.29
0.58
0.80
0.85
0.75
0.60
0.48
0.40
0.27
0.02
-0.37
-0.83
-1.20
-1.36
-1.29
-1.11
-0.99
-1.08
-1.42
-1.92
-2.44
-2.84
-3.01
-2.95
-2.66
-2.21
-1.65
-1.03
-0.37
0.34
1.10
1.86
2.52
2.97
3.11
2.93
2.50
1.98
1.51
1.21
1.07
1.05
1.06
1.06
1.05
1.06
1.09
1.12
1.14
1.11
1.03
0.90
0.71
0.47
0.18
-0.14
-0.45
-0.68
-0.84
-0.95
-1.09
-1.32
-1.61
-1.90
-2.07
-2.07
-1.87
-1.55
-1.17
-0.78
-0.38
0.04
0.50
0.98
1.44
1.85
2.14
2.31
2.35
2.25
2.04
1.76
1.44
1.14
0.91
0.78
0.73
0.74
0.76
0.74
0.65
0.50
0.31
0.13
-0.04
-0.22
-0.45
-0.74
-1.09
-1.41
-1.66
-1.82
-1.90
-1.97
-2.05
-2.16
-2.21
-2.18
-2.02
-1.75
-1.41
-1.01
-0.54
0.02
0.61
1.16
1.52
1.64
1.55
1.36
1.19
1.11
1.09
1.00
0.75
0.35
-0.09
-0.40
-0.44
-0.24
0.07
0.29
0.26
-0.03
-0.50
-0.99
-1.38
-1.59
-1.65
-1.63
-1.58
-1.54
-1.50
-1.50
-1.59
-1.81
-2.18
-2.65
-3.09
-3.35
-3.30
-2.90
-2.20
-1.28
-0.24
0.80
1.77
2.55
3.04
3.15
2.88
2.34
1.69
1.11
0.70
0.46
0.34
0.25
0.19
0.19
0.32
0.61
1.03
1.46
1.75
1.82
1.68
1.39
1.06
0.74
0.42
0.07
-0.35
-0.83
-1.31
-1.73
-2.02
-2.19
-2.27
-2.33
-2.38
-2.43
-2.41
-2.28
-1.99
-1.54
-0.96
-0.32
0.34
0.94
1.47
1.92
2.27
2.49
2.53
2.35
1.95
1.41
0.93
0.67
0.72
1.04
1.47
1.81
1.94
1.86
1.69
1.52
1.39
1.22
0.92
0.47
-0.04
-0.44
-0.63
-0.63
-0.57
-0.65
-0.96
-1.43
-1.92
-2.23
-2.28
-2.12
-1.84
-1.54
-1.28
-1.03
-0.74
-0.36
0.15
0.77
1.45
2.12
2.67
3.02
3.08
2.83
2.29
1.61
0.95
0.48
0.29
0.38
0.67
1.04
1.37
1.59
1.66
1.57
1.32
0.94
0.47
-0.03
-0.46
-0.73
-0.83
-0.78
-0.64
-0.48
-0.34
-0.26
-0.28
-0.45
-0.80
-1.33
-1.95
-2.54
-2.93
-3.03
-2.79
-2.28
-1.59
-0.86
-0.18
0.39
0.80
1.02
1.07
0.98
0.79
0.57
0.34
0.15
0.01
-0.06
-0.05
0.05
0.24
0.51
0.79
0.99
1.02
0.80
0.33
-0.31
-0.98
-1.49
-1.73
-1.69
-1.49
-1.28
-1.19
-1.22
-1.28
-1.31
-1.28
-1.27
-1.39
-1.68
-2.08
-2.41
-2.46
-2.09
-1.32
-0.32
0.68
1.47
1.92
2.05
1.93
1.70
1.46
1.27
1.12
1.00
0.93
0.92
1.04
1.28
1.59
1.84
1.91
1.72
1.29
0.70
0.10
-0.41
-0.78
-1.05
-1.27
-1.48
-1.68
-1.82
-1.88
-1.87
-1.83
-1.80
-1.82
-1.85
-1.86
-1.82
-1.77
-1.71
-1.66
-1.54
-1.29
-0.82
-0.15
0.62
1.34
1.89
2.24
2.43
2.49
2.45
2.27
1.93
1.44
0.95
0.60
0.55
0.82
1.29
1.74
1.98
1.93
1.61
1.15
0.71
0.36
0.15
0.04
-0.03
-0.13
-0.26
-0.43
-0.59
-0.73
-0.81
-0.86
-0.88
-0.91
-0.95
-1.01
-1.08
-1.13
-1.13
-1.05
-0.89
-0.63
-0.27
0.19
0.73
1.30
1.80
2.14
2.25
2.13
1.84
1.50
1.24
1.14
1.20
1.35
1.48
1.50
1.35
1.07
0.73
0.43
0.21
0.06
-0.08
-0.31
-0.67
-1.11
-1.50
-1.71
-1.71
-1.54
-1.35
-1.28
-1.40
-1.65
-1.93
-2.12
-2.20
-2.19
-2.16
-2.15
-2.10
-1.91
-1.50
-0.86
-0.09
0.64
1.21
1.54
1.68
1.69
1.64
1.53
1.33
1.04
0.68
0.34
0.12
0.06
0.18
0.42
0.72
1.01
1.21
1.24
1.05
0.66
0.12
-0.42
-0.85
-1.10
-1.19
-1.20
-1.21
-1.26
-1.36
-1.46
-1.58
-1.73
-1.94
-2.20
-2.44
-2.55
-2.42
-2.02
-1.39
-0.65
0.12
0.83
1.48
2.04
2.45
2.60
2.42
1.89
1.12
0.31
-0.31
-0.57
-0.43
0.04
0.67
1.28
1.72
1.92
1.89
1.71
1.45
1.18
0.90
0.57
0.16
-0.31
-0.76
-1.09
-1.24
-1.25
-1.21
-1.23
-1.37
-1.60
-1.80
-1.90
-1.85
-1.68
-1.46
-1.24
-1.03
-0.79
-0.45
0.04
0.64
1.31
1.93
2.40
2.66
2.71
2.57
2.26
1.82
1.33
0.87
0.58
0.58
0.90
1.43
1.97
2.30
2.32
2.05
1.64
1.25
0.93
0.67
0.34
-0.08
-0.55
-0.96
-1.18
-1.20
-1.10
-1.02
-1.06
-1.24
-1.46
-1.62
-1.64
-1.51
-1.30
-1.09
-0.91
-0.76
-0.59
-0.32
0.07
0.60
1.18
1.72
2.04
2.04
1.66
0.96
0.12
-0.63
-1.08
-1.13
-0.82
-0.28
0.28
0.71
0.94
0.98
0.89
0.71
0.44
0.07
-0.40
-0.95
-1.49
-1.93
-2.18
-2.22
-2.11
-1.91
-1.71
-1.56
-1.47
-1.45
-1.53
-1.74
-2.09
-2.55
-2.99
-3.25
-3.15
-2.60
-1.63
-0.39
0.90
1.99
2.71
2.98
2.87
2.52
2.09
1.71
1.45
1.33
1.32
1.40
1.53
1.69
1.81
1.84
1.71
1.39
0.90
0.35
-0.17
-0.57
-0.86
-1.10
-1.40
-1.82
-2.34
-2.80
-3.04
-2.91
-2.43
-1.74
-1.09
-0.73
-0.78
-1.21
-1.85
-2.47
-2.84
-2.88
-2.56
-1.98
-1.25
-0.50
0.17
0.72
1.10
1.32
1.38
1.30
1.08
0.75
0.34
-0.10
-0.55
-0.97
-1.34
-1.66
-1.95
-2.23
-2.52
-2.80
-3.04
-3.21
-3.29
-3.29
-3.22
-3.07
-2.79
-2.35
-1.71
-0.90
0.00
0.90
1.69
2.30
2.71
2.91
2.91
2.74
2.44
2.06
1.71
1.44
1.34
1.50
1.94
2.64
3.50
4.35
5.00
5.29
5.18
4.77
4.18
3.54
2.93
2.36
1.85
1.45
1.22
1.20
1.34
1.54
1.66
1.64
1.47
1.27
1.16
1.17
1.29
1.41
1.43
1.30
1.03
0.66
0.25
-0.17
-0.59
-0.99
-1.37
-1.69
-1.94
-2.06
-2.07
-1.97
-1.79
-1.56
-1.28
-0.92
-0.44
0.18
0.90
1.63
2.23
2.60
2.63
2.34
1.78
1.09
0.38
-0.21
-0.59
-0.72
-0.65
-0.44
-0.20
-0.03
0.05
0.00
-0.15
-0.40
-0.74
-1.14
-1.55
-1.90
-2.13
-2.19
-2.11
-1.94
-1.79
-1.72
-1.76
-1.90
-2.09
-2.28
-2.43
-2.54
-2.58
-2.53
-2.35
-1.97
-1.39
-0.62
0.25
1.08
1.74
2.17
2.37
2.39
2.28
2.08
1.78
1.40
0.98
0.61
0.43
0.48
0.72
1.03
1.25
1.29
1.18
1.01
0.91
0.88
0.83
0.64
0.20
-0.45
-1.14
-1.67
-1.92
-1.86
-1.61
-1.32
-1.11
-1.04
-1.10
-1.23
-1.39
-1.51
-1.51
-1.34
-0.98
-0.44
0.19
0.79
1.29
1.66
1.93
2.12
2.23
2.23
2.09
1.79
1.39
0.93
0.50
0.16
-0.04
-0.07
0.07
0.33
0.64
0.87
0.94
0.83
0.59
0.30
0.02
-0.22
-0.45
-0.73
-1.03
-1.30
-1.44
-1.39
-1.18
-0.92
-0.76
-0.81
-1.08
-1.48
-1.89
-2.19
-2.35
-2.37
-2.28
-2.04
-1.58
-0.82
0.21
1.41
2.57
3.43
3.83
3.74
3.24
2.53
1.85
1.37
1.17
1.24
1.47
1.71
1.85
1.83
1.67
1.46
1.25
1.09
0.95
0.75
0.47
0.11
-0.24
-0.52
-0.68
-0.75
-0.80
-0.90
-1.07
-1.25
-1.36
-1.36
-1.28
-1.21
-1.25
-1.44
-1.73
-1.95
-1.96
-1.68
-1.10
-0.37
0.36
0.92
1.22
1.24
1.07
0.82
0.56
0.31
0.06
-0.19
-0.39
-0.45
-0.33
-0.04
0.32
0.59
0.64
0.47
0.17
-0.11
-0.27
-0.27
-0.21
-0.22
-0.39
-0.73
-1.19
-1.61
-1.91
-2.05
-2.10
-2.21
-2.47
-2.85
-3.19
-3.25
-2.88
-2.07
-1.02
0.02
0.80
1.25
1.43
1.48
1.50
1.52
1.54
1.50
1.38
1.21
1.02
0.85
0.74
0.71
0.73
0.74
0.68
0.52
0.26
-0.03
-0.28
-0.46
-0.60
-0.73
-0.88
-1.00
-1.01
-0.87
-0.61
-0.36
-0.25
-0.34
-0.60
-0.97
-1.35
-1.70
-2.02
-2.30
-2.48
-2.48
-2.24
-1.76
-1.08
-0.29
0.54
1.34
2.03
2.55
2.80
2.77
2.47
2.02
1.57
1.26
1.17
1.27
1.50
1.71
1.79
1.68
1.38
0.98
0.61
0.41
0.41
0.56
0.73
0.78
0.64
0.34
-0.06
-0.47
-0.82
-1.10
-1.28
-1.38
-1.41
-1.42
-1.45
-1.58
-1.84
-2.20
-2.53
-2.70
-2.55
-2.00
-1.08
0.08
1.26
2.23
2.83
2.98
2.74
2.29
1.81
1.44
1.23
1.13
1.06
0.95
0.81
0.73
0.78
1.02
1.39
1.78
2.02
2.00
1.72
1.28
0.80
0.40
0.12
-0.09
-0.28
-0.50
-0.71
-0.85
-0.87
-0.77
-0.67
-0.70
-0.98
-1.47
-1.99
-2.27
-2.11
-1.48
-0.53
0.46
1.24
1.67
1.79
1.74
1.67
1.62
1.57
1.43
1.15
0.77
0.39
0.14
0.08
0.15
0.26
0.27
0.09
-0.27
-0.73
-1.13
-1.34
-1.26
-0.93
-0.48
-0.15
-0.16
-0.61
-1.45
-2.40
-3.15
-3.44
-3.23
-2.69
-2.14
-1.84
-1.92
-2.27
-2.66
-2.87
-2.77
-2.36
-1.70
-0.89
0.02
1.00
2.01
2.91
3.53
3.67
3.27
2.42
1.40
0.53
0.08
0.14
0.61
1.21
1.70
1.89
1.77
1.44
1.04
0.66
0.34
0.07
-0.17
-0.37
-0.55
-0.70
-0.85
-1.00
-1.15
-1.31
-1.49
-1.70
-1.93
-2.13
-2.24
-2.21
-2.04
-1.78
-1.51
-1.30
-1.11
-0.86
-0.44
0.17
0.93
1.67
2.25
2.58
2.65
2.50
2.19
1.78
1.34
0.92
0.59
0.44
0.47
0.67
0.96
1.25
1.44
1.46
1.31
1.03
0.71
0.41
0.21
0.09
0.02
-0.04
-0.16
-0.32
-0.51
-0.69
-0.86
-1.04
-1.29
-1.60
-1.93
-2.19
-2.31
-2.20
-1.87
-1.37
-0.77
-0.17
0.38
0.85
1.25
1.59
1.88
2.10
2.22
2.20
2.02
1.71
1.32
0.94
0.63
0.44
0.38
0.40
0.48
0.60
0.75
0.92
1.12
1.30
1.39
1.36
1.14
0.76
0.25
-0.30
-0.77
-1.04
-1.05
-0.85
-0.52
-0.23
-0.06
-0.03
-0.11
-0.21
-0.32
-0.49
-0.77
-1.21
-1.70
-2.06
-2.12
-1.76
-1.05
-0.18
0.63
1.23
1.58
1.70
1.66
1.47
1.15
0.71
0.22
-0.18
-0.36
-0.27
0.03
0.41
0.72
0.87
0.83
0.65
0.38
0.04
-0.35
-0.77
-1.16
-1.45
-1.57
-1.54
-1.41
-1.28
-1.24
-1.36
-1.62
-1.94
-2.23
-2.40
-2.42
-2.30
-2.12
-1.95
-1.81
-1.67
-1.48
-1.19
-0.76
-0.23
0.38
0.99
1.57
2.06
2.39
2.51
2.39
2.05
1.59
1.13
0.83
0.74
0.87
1.14
1.44
1.68
1.79
1.74
1.50
1.09
0.52
-0.15
-0.82
-1.38
-1.72
-1.79
-1.67
-1.46
-1.32
-1.34
-1.53
-1.80
-2.04
-2.19
-2.28
-2.35
-2.44
-2.55
-2.65
-2.69
-2.69
-2.65
-2.55
-2.32
-1.83
-1.04
-0.07
0.89
1.58
1.87
1.77
1.45
1.11
0.88
0.71
0.51
0.18
-0.28
-0.79
-1.19
-1.41
-1.45
-1.42
-1.43
-1.56
-1.83
-2.18
-2.55
-2.86
-3.09
-3.20
-3.14
-2.87
-2.33
-1.56
-0.62
0.35
1.23
1.92
2.41
2.70
2.80
2.75
2.56
2.28
1.99
1.78
1.73
1.89
2.27
2.80
3.41
4.00
4.49
4.81
4.93
4.81
4.46
3.91
3.22
2.47
1.79
1.27
1.00
0.99
1.17
1.43
1.61
1.60
1.38
1.04
0.69
0.44
0.32
0.27
0.19
-0.03
-0.42
-0.95
-1.47
-1.88
-2.05
-1.97
-1.69
-1.32
-1.00
-0.86
-0.97
-1.37
-2.00
-2.71
-3.30
-3.56
-3.33
-2.59
-1.45
-0.14
1.05
1.88
2.22
2.06
1.54
0.83
0.15
-0.32
-0.48
-0.30
0.16
0.79
1.42
1.89
2.10
1.97
1.57
1.04
0.51
0.11
-0.11
-0.19
-0.23
-0.30
-0.47
-0.74
-1.11
-1.53
-1.92
-2.18
-2.25
-2.10
-1.84
-1.61
-1.57
-1.75
-2.06
-2.28
-2.24
-1.88
-1.30
-0.65
-0.04
0.49
1.02
1.59
2.21
2.75
3.09
3.11
2.78
2.15
1.33
0.44
-0.35
-0.93
-1.18
-1.09
-0.68
-0.09
0.52
1.00
1.24
1.22
1.00
0.68
0.40
0.23
0.19
0.20
0.18
0.05
-0.19
-0.51
-0.86
-1.17
-1.43
-1.64
-1.80
-1.88
-1.88
-1.81
-1.70
-1.56
-1.40
-1.16
-0.79
-0.26
0.42
1.13
1.77
2.19
2.35
2.25
1.98
1.68
1.46
1.39
1.48
1.68
1.94
2.19
2.41
2.57
2.60
2.46
2.13
1.63
1.07
0.57
0.22
0.02
-0.10
-0.19
-0.31
-0.45
-0.56
-0.60
-0.59
-0.54
-0.53
-0.57
-0.71
-0.94
-1.29
-1.69
-2.09
-2.37
-2.42
-2.24
-1.88
-1.45
-1.02
-0.57
-0.05
0.56
1.18
1.69
1.95
1.93
1.73
1.51
1.41
1.48
1.63
1.74
1.71
1.55
1.31
1.07
0.83
0.55
0.18
-0.31
-0.85
-1.33
-1.65
-1.76
-1.67
-1.47
-1.26
-1.10
-0.99
-0.93
-0.86
-0.75
-0.64
-0.58
-0.64
-0.87
-1.28
-1.78
-2.26
-2.58
-2.62
-2.35
-1.79
-1.05
-0.25
0.47
1.04
1.40
1.57
1.58
1.48
1.33
1.18
1.06
0.98
0.97
1.02
1.15
1.34
1.58
1.80
1.91
1.82
1.51
1.00
0.42
-0.11
-0.52
-0.80
-0.99
-1.17
-1.37
-1.54
-1.65
-1.68
-1.65
-1.62
-1.65
-1.75
-1.92
-2.13
-2.34
-2.50
-2.51
-2.30
-1.82
-1.08
-0.21
0.62
1.25
1.62
1.78
1.85
1.93
2.03
2.09
2.03
1.81
1.48
1.19
1.08
1.20
1.49
1.75
1.82
1.58
1.12
0.60
0.23
0.11
0.19
0.34
0.39
0.26
-0.01
-0.32
-0.58
-0.74
-0.82
-0.88
-0.95
-1.04
-1.15
-1.29
-1.48
-1.70
-1.91
-2.03
-1.98
-1.69
-1.19
-0.50
0.26
1.00
1.60
1.95
2.00
1.79
1.45
1.17
1.09
1.26
1.57
1.82
1.81
1.51
1.01
0.55
0.29
0.29
0.42
0.54
0.50
0.31
0.06
-0.14
-0.27
-0.41
-0.66
-1.10
-1.66
-2.19
-2.56
-2.72
-2.76
-2.78
-2.87
-3.00
-3.05
-2.85
-2.32
-1.50
-0.54
0.33
0.92
1.17
1.16
1.02
0.90
0.84
0.81
0.75
0.64
0.51
0.44
0.48
0.62
0.77
0.84
0.75
0.52
0.25
-0.00
-0.17
-0.26
-0.32
-0.38
-0.44
-0.48
-0.51
-0.56
-0.65
-0.82
-1.04
-1.25
-1.36
-1.33
-1.22
-1.12
-1.12
-1.23
-1.34
-1.28
-0.93
-0.28
0.53
1.30
1.86
2.14
2.16
2.03
1.84
1.68
1.59
1.54
1.50
1.41
1.26
1.03
0.77
0.53
0.35
0.20
0.04
-0.17
-0.46
-0.79
-1.06
-1.23
-1.25
-1.17
-1.07
-0.99
-0.99
-1.05
-1.14
-1.22
-1.29
-1.37
-1.44
-1.51
-1.52
-1.46
-1.30
-1.04
-0.69
-0.23
0.30
0.85
1.32
1.60
1.64
1.47
1.24
1.10
1.12
1.26
1.37
1.31
1.04
0.67
0.38
0.31
0.48
0.80
1.07
1.15
1.00
0.67
0.31
0.05
-0.03
0.06
0.26
0.49
0.67
0.76
0.70
0.46
0.04
-0.55
-1.24
-1.88
-2.36
-2.55
-2.39
-1.94
-1.31
-0.63
-0.02
0.49
0.90
1.23
1.50
1.69
1.74
1.62
1.34
0.98
0.67
0.47
0.43
0.48
0.52
0.44
0.20
-0.18
-0.60
-0.92
-1.07
-1.06
-0.99
-0.96
-1.09
-1.41
-1.89
-2.46
-3.02
-3.50
-3.81
-3.95
-3.93
-3.83
-3.78
-3.91
-4.29
-4.86
-5.47
-5.87
-5.87
-5.39
-4.48
-3.34
-2.16
-1.08
-0.14
0.68
1.39
1.99
2.43
2.71
2.87
3.03
3.28
3.69
4.19
4.66
4.95
4.97
4.74
4.34
3.86
3.35
2.86
2.42
2.04
1.72
1.43
1.12
0.73
0.30
-0.13
-0.46
-0.64
-0.71
-0.74
-0.79
-0.87
-0.89
-0.77
-0.48
-0.06
0.39
0.78
1.07
1.30
1.55
1.85
2.18
2.44
2.56
2.48
2.20
1.80
1.38
1.05
0.86
0.81
0.81
0.80
0.70
0.50
0.24
0.00
-0.18
-0.28
-0.34
-0.39
-0.43
-0.46
-0.43
-0.36
-0.30
-0.36
-0.61
-1.03
-1.51
-1.90
-2.11
-2.13
-2.05
-1.99
-2.03
-2.12
-2.13
-1.96
-1.54
-0.94
-0.27
0.35
0.88
1.31
1.69
1.99
2.20
2.25
2.14
1.92
1.69
1.51
1.42
1.36
1.29
1.15
0.97
0.78
0.62
0.50
0.38
0.25
0.09
-0.06
-0.16
-0.18
-0.14
-0.13
-0.19
-0.33
-0.50
-0.62
-0.64
-0.59
-0.53
-0.51
-0.56
-0.65
-0.70
-0.72
-0.72
-0.79
-0.93
-1.10
-1.16
-0.94
-0.40
0.39
1.23
1.90
2.24
2.23
1.98
1.63
1.30
1.06
0.94
0.93
1.05
1.28
1.55
1.76
1.80
1.61
1.20
0.66
0.09
-0.41
-0.77
-0.98
-1.03
-0.95
-0.79
-0.65
-0.61
-0.73
-1.01
-1.38
-1.76
-2.07
-2.28
-2.42
-2.53
-2.62
-2.68
-2.67
-2.53
-2.26
-1.87
-1.39
-0.85
-0.27
0.34
0.99
1.62
2.16
2.49
2.54
2.29
1.81
1.25
0.77
0.47
0.41
0.54
0.77
1.01
1.16
1.17
1.06
0.84
0.57
0.26
-0.08
-0.46
-0.85
-1.23
-1.55
-1.75
-1.81
-1.74
-1.57
-1.33
-1.08
-0.87
-0.75
-0.79
-1.00
-1.36
-1.79
-2.16
-2.36
-2.34
-2.10
-1.67
-1.11
-0.46
0.22
0.83
1.28
1.54
1.65
1.72
1.87
2.12
2.38
2.51
2.39
2.02
1.51
1.06
0.80
0.78
0.89
0.99
0.98
0.86
0.69
0.58
0.56
0.58
0.54
0.36
0.03
-0.35
-0.65
-0.78
-0.70
-0.51
-0.32
-0.24
-0.33
-0.56
-0.88
-1.21
-1.49
-1.69
-1.80
-1.81
-1.70
-1.44
-1.02
-0.44
0.26
1.01
1.72
2.27
2.61
2.66
2.44
2.01
1.46
0.98
0.72
0.73
0.95
1.24
1.39
1.30
0.98
0.59
0.27
0.12
0.09
0.09
0.02
-0.13
-0.28
-0.35
-0.33
-0.28
-0.32
-0.52
-0.84
-1.16
-1.35
-1.36
-1.23
-1.08
-1.01
-1.06
-1.21
-1.41
-1.63
-1.83
-1.96
-1.95
-1.69
-1.13
-0.29
0.69
1.60
2.27
2.59
2.59
2.38
2.06
1.71
1.35
0.95
0.50
0.07
-0.25
-0.35
-0.19
0.15
0.53
0.77
0.75
0.48
0.07
-0.37
-0.75
-1.05
-1.30
-1.51
-1.65
-1.68
-1.58
-1.39
-1.19
-1.12
-1.27
-1.65
-2.16
-2.67
-3.02
-3.12
-2.98
-2.70
-2.39
-2.12
-1.86
-1.48
-0.86
0.04
1.12
2.19
3.00
3.39
3.35
2.98
2.46
1.94
1.51
1.18
0.93
0.76
0.68
0.71
0.86
1.09
1.31
1.45
1.45
1.32
1.11
0.87
0.61
0.29
-0.13
-0.65
-1.16
-1.53
-1.67
-1.57
-1.33
-1.10
-1.04
-1.19
-1.54
-1.99
-2.43
-2.76
-2.89
-2.74
-2.26
-1.48
-0.53
0.41
1.14
1.52
1.59
1.49
1.40
1.47
1.68
1.91
2.00
1.84
1.46
1.01
0.67
0.56
0.68
0.96
1.25
1.44
1.49
1.37
1.11
0.75
0.37
0.05
-0.14
-0.21
-0.20
-0.19
-0.19
-0.20
-0.17
-0.08
0.04
0.09
-0.01
-0.27
-0.62
-0.97
-1.24
-1.44
-1.58
-1.71
-1.81
-1.81
-1.65
-1.32
-0.86
-0.36
0.15
0.67
1.23
1.79
2.24
2.42
2.20
1.59
0.74
-0.08
-0.59
-0.65
-0.30
0.30
0.94
1.45
1.78
1.91
1.87
1.66
1.31
0.83
0.31
-0.15
-0.46
-0.58
-0.55
-0.51
-0.56
-0.76
-1.07
-1.39
-1.65
-1.85
-2.06
-2.35
-2.70
-2.99
-3.03
-2.71
-2.06
-1.19
-0.29
0.51
1.17
1.73
2.18
2.49
2.59
2.42
2.01
1.46
0.90
0.44
0.12
-0.05
-0.08
-0.01
0.12
0.24
0.28
0.18
-0.04
-0.32
-0.56
-0.72
-0.79
-0.86
-1.00
-1.24
-1.52
-1.76
-1.87
-1.84
-1.72
-1.59
-1.55
-1.62
-1.79
-1.95
-2.04
-1.99
-1.78
-1.44
-0.98
-0.43
0.22
0.96
1.75
2.48
3.02
3.24
3.07
2.55
1.80
1.02
0.39
0.03
-0.04
0.13
0.39
0.66
0.87
0.99
1.02
0.93
0.67
0.21
-0.44
-1.16
-1.78
-2.15
-2.17
-1.89
-1.42
-0.92
-0.52
-0.30
-0.30
-0.48
-0.77
-1.09
-1.40
-1.66
-1.88
-2.04
-2.06
-1.81
-1.19
-0.21
1.01
2.22
3.17
3.69
3.75
3.45
2.90
2.26
1.60
1.01
0.55
0.27
0.19
0.28
0.46
0.66
0.85
1.01
1.13
1.21
1.20
1.12
0.97
0.76
0.53
0.27
0.00
-0.27
-0.48
-0.59
-0.56
-0.41
-0.26
-0.22
-0.37
-0.70
-1.10
-1.44
-1.61
-1.59
-1.40
-1.08
-0.68
-0.20
0.37
1.01
1.66
2.18
2.42
2.31
1.85
1.18
0.53
0.09
-0.03
0.11
0.35
0.51
0.53
0.44
0.36
0.38
0.50
0.61
0.61
0.42
0.10
-0.26
-0.57
-0.76
-0.84
-0.87
-0.88
-0.90
-0.95
-1.02
-1.12
-1.27
-1.46
-1.69
-1.89
-1.99
-1.90
-1.53
-0.89
-0.07
0.79
1.51
1.99
2.21
2.24
2.15
1.97
1.67
1.19
0.54
-0.19
-0.83
-1.23
-1.28
-1.01
-0.48
0.13
0.69
1.06
1.16
0.99
0.63
0.17
-0.30
-0.69
-0.99
-1.20
-1.33
-1.39
-1.35
-1.26
-1.17
-1.16
-1.33
-1.69
-2.19
-2.68
-2.99
-2.96
-2.50
-1.66
-0.60
0.49
1.43
2.10
2.48
2.61
2.59
2.47
2.32
2.13
1.88
1.54
1.08
0.57
0.08
-0.28
-0.45
-0.46
-0.38
-0.27
-0.17
-0.10
-0.06
-0.06
-0.16
-0.40
-0.75
-1.12
-1.43
-1.61
-1.66
-1.66
-1.70
-1.79
-1.94
-2.10
-2.23
-2.32
-2.37
-2.33
-2.16
-1.84
-1.35
-0.72
-0.02
0.69
1.37
1.99
2.50
2.85
2.99
2.90
2.61
2.24
1.90
1.64
1.46
1.30
1.11
0.89
0.70
0.62
0.69
0.89
1.10
1.17
0.99
0.49
-0.24
-1.09
-1.90
-2.56
-3.02
-3.32
-3.50
-3.63
-3.72
-3.80
-3.88
-4.03
-4.31
-4.75
-5.29
-5.75
-5.90
-5.57
-4.72
-3.48
-2.08
-0.71
0.53
1.62
2.60
3.45
4.07
4.37
4.34
4.08
3.80
3.68
3.81
4.14
4.49
4.70
4.71
4.54
4.30
4.08
3.95
3.94
4.00
4.07
4.05
3.85
3.41
2.80
2.14
1.65
1.43
1.49
1.67
1.70
1.38
0.68
-0.21
-0.98
-1.33
-1.14
-0.49
0.40
1.32
2.11
2.81
3.53
4.40
5.51
6.81
8.17
9.35
10.15
10.43
10.26
9.94
9.94
10.72
12.53
15.23
18.32
21.11
23.07
24.04
24.30
24.54
25.63
28.45
33.59
41.10
50.11
58.66
63.94
63.09
54.21
37.24
14.29
-11.08
-35.03
-54.74
-69.06
-78.43
-84.03
-86.99
-87.86
-86.64
-83.26
-77.91
-71.12
-63.59
-55.82
-47.90
-39.59
-30.59
-20.88
-10.88
-1.37
6.82
13.12
17.47
20.30
22.27
23.97
25.67
27.24
28.29
28.35
27.17
24.78
21.55
18.05
14.83
12.26
10.43
9.18
8.23
7.30
6.25
5.07
3.84
2.66
1.53
0.41
-0.74
-1.95
-3.16
-4.26
-5.16
-5.81
-6.25
-6.53
-6.71
-6.82
-6.82
-6.65
-6.28
-5.75
-5.18
-4.67
-4.31
-4.08
-3.89
-3.67
-3.38
-3.05
-2.74
-2.47
-2.22
-1.94
-1.59
-1.22
-0.95
-0.89
-1.14
-1.73
-2.63
-3.76
-5.01
-6.21
-7.13
-7.60
-7.45
-6.68
-5.39
-3.82
-2.23
-0.89
0.02
0.45
0.46
0.18
-0.19
-0.50
-0.70
-0.79
-0.83
-0.86
-0.88
-0.84
-0.73
-0.59
-0.50
-0.51
-0.59
-0.64
-0.51
-0.14
0.39
0.88
1.12
0.98
0.54
0.00
-0.39
-0.51
-0.34
-0.02
0.30
0.52
0.63
0.61
0.43
0.04
-0.60
-1.48
-2.44
-3.27
-3.80
-3.95
-3.80
-3.51
-3.24
-3.05
-2.88
-2.64
-2.23
-1.68
-1.07
-0.54
-0.19
-0.02
0.03
0.04
0.08
0.14
0.21
0.25
0.26
0.31
0.46
0.77
1.22
1.74
2.19
2.45
2.47
2.27
1.96
1.66
1.48
1.44
1.49
1.54
1.49
1.27
0.85
0.31
-0.21
-0.54
-0.58
-0.29
0.30
1.12
2.08
3.09
4.26
5.70
7.44
9.38
11.27
12.89
14.04
14.59
14.51
14.04
13.50
13.10
12.85
12.62
12.28
11.77
11.06
10.31
10.07
11.03
13.71
18.28
24.50
31.86
39.78
47.54
52.99
54.12
49.92
41.09
29.44
16.85
4.79
-5.63
-13.98
-20.10
-23.50
-23.74
-20.78
-15.10
-7.57
0.69
9.04
16.23
21.00
22.72
21.36
17.50
12.00
5.76
-0.55
-6.59
-12.33
-17.71
-22.35
-25.80
-27.73
-28.14
-27.38
-26.01
-24.52
-23.26
-22.23
-21.19
-19.87
-18.20
-16.30
-14.43
-12.77
-11.25
-9.69
-7.76
-5.18
-1.91
1.87
5.87
9.90
13.96
18.28
23.20
29.06
35.96
43.68
51.62
58.86
64.40
67.40
67.41
64.46
59.15
52.45
45.53
39.54
35.36
33.40
33.48
34.84
36.34
36.84
35.57
32.32
27.43
21.49
15.04
8.42
1.82
-4.54
-10.33
-15.09
-18.48
-20.40
-21.16
-21.24
-21.16
-21.20
-21.31
-21.14
-20.16
-17.91
-14.30
-9.80
-5.48
-2.80
-3.12
-7.18
-14.77
-24.77
-35.54
-45.54
-53.80
-60.11
-64.79
-68.33
-71.10
-73.11
-74.16
-74.07
-72.83
-70.68
-68.14
-65.96
-65.00
-66.29
-70.82
-79.32
-91.75
-106.78
-121.62
-132.40
-135.14
-127.14
-108.02
-80.10
-47.71
-15.79
11.57
32.23
46.17
54.90
60.55
64.87
68.84
72.56
75.62
77.45
77.69
76.30
73.60
70.16
66.61
63.54
61.36
60.26
60.18
60.64
60.75
59.10
54.09
44.40
29.59
10.57
-10.36
-30.10
-45.69
-55.21
-58.29
-55.86
-49.44
-40.25
-28.68
-14.37
3.24
24.21
47.64
71.70
93.90
111.64
122.66
125.41
119.35
105.19
84.90
61.48
38.35
18.65
4.59
-2.89
-4.10
-0.40
6.04
12.52
16.19
14.55
6.20
-8.64
-27.96
-48.60
-67.17
-81.16
-89.52
-92.76
-92.35
-90.07
-87.32
-84.95
-83.16
-81.75
-80.28
-78.29
-75.41
-71.54
-66.82
-61.58
-56.18
-50.80
-45.45
-39.97
-34.23
-28.23
-22.18
-16.39
-11.17
-6.76
-3.28
-0.76
0.82
1.52
1.43
0.66
-0.67
-2.42
-4.39
-6.36
-8.10
-9.43
-10.31
-10.84
-11.18
-11.50
-11.87
-12.23
-12.53
-12.77
-13.09
-13.74
-14.93
-16.71
-18.91
-21.11
-22.80
-23.50
-22.97
-21.28
-18.79
-16.08
-13.73
-12.17
-11.59
-11.88
-12.64
-13.32
-13.35
-12.29
-10.02
-6.76
-3.02
0.64
3.79
6.24
8.08
9.49
10.57
11.30
11.48
10.94
9.65
7.88
6.12
5.04
5.31
7.40
11.53
17.55
24.98
32.98
40.54
46.69
50.72
52.37
51.89
49.86
46.95
43.76
40.68
37.94
35.69
33.99
32.86
32.22
31.97
32.08
32.64
33.82
35.66
37.92
40.02
41.18
40.75
38.47
34.62
29.84
24.83
20.04
15.50
10.91
5.91
0.35
-5.59
-11.44
-16.72
-21.10
-24.56
-27.31
-29.53
-31.25
-32.31
-32.50
-31.82
-30.63
-29.61
-29.45
-30.50
-32.59
-35.02
-36.92
-37.49
-36.34
-33.47
-29.16
-23.84
-17.97
-12.03
-6.56
-2.02
1.31
3.50
5.00
6.44
8.33
10.86
13.79
16.62
18.80
19.94
19.91
18.80
16.89
14.60
12.43
10.89
10.37
11.03
12.65
14.72
16.57
17.61
17.48
16.19
14.04
11.46
8.93
6.83
5.40
4.74
4.85
5.60
6.78
8.08
9.21
9.95
10.23
10.15
9.92
9.83
10.04
10.58
11.28
11.87
12.06
11.66
10.63
9.10
7.24
5.27
3.31
1.47
-0.16
-1.46
-2.24
-2.38
-1.87
-0.90
0.22
1.16
1.75
2.03
2.27
2.80
3.83
5.36
7.15
8.84
10.08
10.69
10.70
10.29
9.73
9.23
8.89
8.72
8.67
8.64
8.56
8.35
8.00
7.48
6.79
5.89
4.74
3.28
1.47
-0.69
-3.15
-5.85
-8.74
-11.74
-14.81
-17.87
-20.85
-23.68
-26.35
-28.88
-31.32
-33.64
-35.71
-37.27
-37.95
-37.45
-35.63
-32.55
-28.56
-24.07
-19.50
-15.10
-11.00
-7.19
-3.62
-0.31
2.69
5.33
7.57
9.43
11.00
12.33
13.45
14.41
15.26
16.09
17.04
18.22
19.68
21.39
23.16
24.73
25.79
26.09
25.53
24.17
22.26
20.14
18.09
16.25
14.55
12.78
10.70
8.21
5.34
2.27
-0.77
-3.61
-6.19
-8.52
-10.62
-12.44
-13.89
-14.87
-15.33
-15.35
-15.07
-14.60
-13.96
-13.03
-11.68
-9.88
-7.78
-5.68
-3.96
-2.90
-2.54
-2.73
-3.14
-3.42
-3.38
-2.96
-2.26
-1.41
-0.42
0.79
2.42
4.63
7.47
10.92
14.89
19.37
24.45
30.19
36.52
43.06
49.09
53.82
56.55
56.89
54.72
50.06
42.91
33.29
21.51
8.44
-4.42
-15.34
-22.89
-26.51
-26.71
-24.69
-21.73
-18.62
-15.46
-11.97
-7.97
-3.80
-0.27
1.62
1.19
-1.51
-5.67
-10.00
-13.29
-14.80
