1528677329.00
64.000000
-0.00
-0.00
-0.00
-0.00
-0.00
-0.00
-0.00
-0.00
-0.00
-0.00
0.00
0.01
0.01
-0.00
-0.03
-0.05
-0.05
0.00
0.13
0.36
0.66
1.01
1.37
1.72
2.06
2.40
2.79
3.24
3.80
4.42
5.06
5.66
6.20
6.68
7.15
7.68
8.31
9.14
10.09
11.04
11.89
12.57
13.13
13.75
14.64
15.96
17.94
20.36
22.96
25.42
27.54
29.40
31.33
33.77
37.10
41.71
47.25
53.18
58.87
63.95
68.44
72.83
77.87
84.10
92.10
101.35
111.00
120.10
127.99
134.68
140.83
147.85
154.55
163.27
174.59
188.49
203.56
216.73
223.58
219.55
201.52
168.88
124.23
71.38
14.43
-43.80
-102.15
-160.52
-218.86
-276.41
-331.79
-383.12
-429.45
-470.51
-506.37
-536.80
-560.71
-576.08
-580.50
-572.06
-549.95
-515.25
-470.45
-418.87
-363.93
-308.64
-255.30
-205.29
-158.88
-114.94
-71.38
-25.74
23.52
76.05
129.27
179.12
221.54
253.86
275.56
287.77
292.41
291.13
285.00
274.73
261.19
245.65
229.58
214.17
199.93
186.62
173.60
160.21
146.24
132.04
118.32
105.86
95.09
85.89
77.73
69.84
61.63
52.95
44.14
35.84
28.68
23.07
18.84
15.48
12.37
9.10
5.55
1.91
-1.41
-4.04
-5.72
-6.50
-6.67
-6.79
-7.49
-9.35
-12.60
-16.93
-21.41
-24.71
-25.49
-22.89
-16.92
-8.53
0.68
8.93
14.81
17.61
17.47
15.15
11.76
8.32
5.56
3.77
2.87
2.58
2.60
2.69
2.73
2.61
2.21
1.35
-0.05
-1.92
-3.92
-5.59
-6.51
-6.58
-6.08
-5.57
-5.60
-6.41
-7.77
-9.09
-9.77
-9.49
-8.38
-6.99
-5.91
-5.50
-5.70
-6.14
-6.41
-6.26
-5.70
-4.98
-4.38
-4.06
-4.03
-4.14
-4.22
-4.09
-3.69
-3.00
-2.11
-1.16
-0.26
0.48
1.04
1.47
1.85
2.29
2.85
3.50
4.19
4.88
5.55
6.18
6.80
7.34
7.72
7.78
7.40
6.53
5.24
3.63
1.88
0.14
-1.49
-2.98
-4.38
-5.69
-6.89
-7.88
-8.52
-8.71
-8.44
-7.86
-7.15
-6.46
-5.86
-5.29
-4.71
-4.08
-3.46
-2.93
-2.57
-2.36
-2.23
-2.10
-1.91
-1.62
-1.26
-0.90
-0.64
-0.61
-0.86
-1.37
-1.97
-2.40
-2.42
-1.97
-1.19
-0.38
0.12
0.12
-0.37
-1.15
-1.95
-2.53
-2.78
-2.70
-2.38
-1.99
-1.69
-1.58
-1.70
-1.99
-2.31
-2.55
-2.62
-2.55
-2.40
-2.25
-2.12
-1.96
-1.69
-1.28
-0.77
-0.29
0.07
0.26
0.36
0.52
0.89
1.51
2.26
2.96
3.39
3.45
3.15
2.59
1.89
1.16
0.43
-0.25
-0.84
-1.26
-1.49
-1.52
-1.40
-1.16
-0.82
-0.32
0.39
1.31
2.36
3.37
4.15
4.58
4.60
4.19
3.40
2.26
0.83
-0.79
-2.45
-3.93
-5.06
-5.69
-5.80
-5.47
-4.84
-4.07
-3.21
-2.24
-1.06
0.42
2.17
3.97
5.49
6.37
6.33
5.33
3.50
1.05
-1.85
-5.10
-8.60
-12.13
-15.29
-17.53
-18.28
-17.22
-14.35
-10.12
-5.24
-0.51
3.37
5.95
7.05
6.71
5.14
2.66
-0.35
-3.46
-6.26
-8.39
-9.63
-9.86
-9.09
-7.43
-5.06
-2.23
0.75
3.47
5.54
6.63
6.61
5.58
3.87
1.91
0.10
-1.27
-2.13
-2.59
-2.83
-3.04
-3.30
-3.58
-3.75
-3.66
-3.15
-2.18
-0.77
0.95
2.81
4.67
6.44
8.09
9.65
11.12
12.47
13.61
14.45
14.94
15.08
14.91
14.43
13.56
12.19
10.22
7.66
4.71
1.74
-0.86
-2.80
-3.97
-4.49
-4.59
-4.50
-4.31
-3.97
-3.34
-2.33
-0.97
0.51
1.79
2.60
2.82
2.55
2.05
1.61
1.45
1.66
2.16
2.78
3.32
3.64
3.65
3.36
2.84
2.18
1.46
0.74
0.07
-0.54
-1.08
-1.56
-1.96
-2.28
-2.45
-2.38
-1.99
-1.27
-0.26
0.90
2.04
2.97
3.55
3.69
3.34
2.54
1.42
0.18
-0.98
-1.89
-2.50
-2.85
-3.01
-3.05
-2.97
-2.72
-2.22
-1.43
-0.43
0.67
1.71
2.51
2.98
3.05
2.72
2.05
1.13
0.10
-0.88
-1.63
-2.00
-1.92
-1.48
-0.84
-0.25
0.06
-0.03
-0.51
-1.26
-2.09
-2.84
-3.39
-3.72
-3.89
-3.94
-3.89
-3.68
-3.24
-2.51
-1.48
-0.27
0.94
1.97
2.70
3.11
3.29
3.39
3.52
3.68
3.80
3.70
3.27
2.50
1.55
0.68
0.14
0.03
0.24
0.54
0.67
0.48
0.01
-0.57
-1.06
-1.33
-1.39
-1.35
-1.32
-1.41
-1.64
-1.98
-2.38
-2.76
-3.06
-3.22
-3.20
-3.01
-2.65
-2.13
-1.46
-0.63
0.32
1.30
2.19
2.83
3.15
3.16
2.97
2.72
2.50
2.32
2.12
1.84
1.46
1.04
0.69
0.50
0.47
0.53
0.55
0.40
0.08
-0.31
-0.63
-0.74
-0.62
-0.33
-0.03
0.18
0.23
0.18
0.12
0.14
0.29
0.56
0.87
1.16
1.38
1.49
1.49
1.40
1.22
0.97
0.69
0.40
0.12
-0.13
-0.40
-0.72
-1.14
-1.64
-2.13
-2.47
-2.51
-2.16
-1.46
-0.55
0.37
1.07
1.45
1.50
1.32
1.04
0.71
0.35
-0.11
-0.65
-1.19
-1.56
-1.56
-1.13
-0.34
0.59
1.43
2.00
2.23
2.15
1.84
1.39
0.89
0.45
0.17
0.14
0.34
0.68
1.05
1.33
1.49
1.51
1.42
1.27
1.08
0.89
0.70
0.52
0.31
0.04
-0.30
-0.70
-1.09
-1.38
-1.49
-1.38
-1.12
-0.82
-0.65
-0.78
-1.29
-2.16
-3.25
-4.31
-5.09
-5.38
-5.08
-4.20
-2.86
-1.26
0.39
1.84
2.90
3.42
3.35
2.79
1.91
0.96
0.19
-0.21
-0.13
0.37
1.13
1.92
2.57
2.98
3.16
3.20
3.17
3.06
2.79
2.29
1.58
0.77
0.07
-0.35
-0.41
-0.18
0.19
0.52
0.69
0.65
0.43
0.08
-0.31
-0.69
-0.98
-1.13
-1.10
-0.88
-0.54
-0.16
0.11
0.17
-0.05
-0.54
-1.17
-1.77
-2.19
-2.37
-2.34
-2.19
-2.03
-1.93
-1.85
-1.72
-1.46
-1.01
-0.38
0.37
1.13
1.82
2.36
2.70
2.84
2.79
2.61
2.37
2.12
1.92
1.78
1.67
1.56
1.37
1.06
0.66
0.24
-0.12
-0.34
-0.38
-0.25
-0.02
0.26
0.53
0.70
0.67
0.37
-0.23
-1.04
-1.90
-2.58
-2.92
-2.87
-2.49
-1.90
-1.19
-0.43
0.35
1.06
1.59
1.81
1.65
1.15
0.47
-0.18
-0.65
-0.88
-0.97
-1.08
-1.32
-1.74
-2.27
-2.77
-3.05
-3.00
-2.61
-1.95
-1.19
-0.47
0.13
0.57
0.88
1.05
1.06
0.91
0.59
0.15
-0.31
-0.71
-1.00
-1.12
-1.06
-0.82
-0.40
0.14
0.73
1.25
1.66
1.94
2.15
2.34
2.56
2.80
3.04
3.29
3.57
3.88
4.17
4.26
3.95
3.08
1.60
-0.40
-2.67
-4.93
-6.87
-8.16
-8.54
-7.84
-6.02
-3.32
-0.19
2.82
5.19
6.64
7.18
6.97
6.21
5.00
3.24
0.84
-2.19
-5.57
-8.79
-11.24
-12.44
-12.16
-10.50
-7.81
-4.51
-1.03
2.28
5.10
7.21
8.41
8.65
8.09
7.07
5.99
5.24
4.96
5.04
5.13
4.85
3.96
2.46
0.63
-1.09
-2.34
-2.89
-2.74
-2.10
-1.26
-0.53
-0.11
-0.11
-0.49
-1.13
-1.84
-2.43
-2.74
-2.72
-2.37
-1.81
-1.14
-0.51
-0.02
0.25
0.26
0.02
-0.39
-0.88
-1.36
-1.74
-2.03
-2.24
-2.47
-2.77
-3.17
-3.60
-3.90
-3.90
-3.51
-2.76
-1.78
-0.79
0.05
0.64
1.01
1.22
1.30
1.25
1.06
0.75
0.42
0.19
0.14
0.28
0.54
0.87
1.22
1.58
1.93
2.11
1.96
1.35
0.32
-0.92
-2.04
-2.80
-3.11
-3.09
-2.94
-2.83
-2.78
-2.69
-2.41
-1.86
-1.02
0.08
1.42
2.94
4.51
5.94
6.96
7.34
7.00
6.08
4.83
3.58
2.51
1.63
0.81
-0.09
-1.15
-2.26
-3.24
-3.90
-4.22
-4.30
-4.37
-4.56
-4.85
-4.99
-4.75
-4.02
-2.98
-2.09
-1.92
-2.87
-5.01
-8.03
-11.33
-14.18
-15.93
-16.08
-14.49
-11.31
-7.06
-2.45
1.78
5.06
7.16
8.14
8.26
7.81
6.98
5.86
4.55
3.18
2.00
1.28
1.18
1.71
2.71
3.88
4.90
5.53
5.63
5.16
4.12
2.55
0.62
-1.34
-2.73
-2.81
-1.03
2.76
8.01
13.56
18.05
20.32
19.83
16.81
12.03
6.44
0.86
-4.21
-8.50
-11.90
-14.33
-15.71
-16.05
-15.47
-14.31
-12.95
-11.76
-10.91
-10.39
-9.99
-9.45
-8.62
-7.50
-6.30
-5.27
-4.65
-4.56
-4.98
-5.84
-7.04
-8.49
-10.02
-11.36
-12.16
-12.06
-10.79
-8.31
-4.87
-0.88
3.19
6.95
10.23
13.01
15.32
17.18
18.51
19.13
18.86
17.58
15.37
12.55
9.61
7.15
5.70
5.47
6.36
7.91
9.54
10.72
11.15
10.81
9.85
8.50
6.96
5.37
3.84
2.50
1.52
0.99
0.93
1.18
1.49
1.58
1.25
0.48
-0.57
-1.65
-2.49
-2.93
-3.01
-2.90
-2.77
-2.71
-2.60
-2.17
-1.14
0.59
2.80
5.00
6.54
6.91
5.93
3.84
1.22
-1.25
-3.06
-3.97
-4.15
-4.03
-4.15
-4.98
-6.81
-9.58
-12.83
-15.76
-17.38
-16.79
-13.55
-7.86
-0.63
6.82
13.09
17.18
18.67
17.78
15.17
11.65
7.96
4.58
1.81
-0.24
-1.46
-1.76
-1.08
0.49
2.57
4.54
5.72
5.60
4.06
1.42
-1.66
-4.49
-6.59
-7.80
-8.32
-8.46
-8.46
-8.37
-8.04
-7.19
-5.64
-3.41
-0.78
1.81
3.93
5.33
6.02
6.23
6.27
6.39
6.66
6.99
7.20
7.11
6.63
5.75
4.51
2.96
1.10
-1.06
-3.47
-5.98
-8.36
-10.34
-11.68
-12.27
-12.14
-11.40
-10.22
-8.76
-7.15
-5.51
-3.98
-2.68
-1.71
-1.07
-0.67
-0.38
-0.07
0.32
0.77
1.24
1.68
2.10
2.57
3.14
3.77
4.35
4.68
4.61
4.11
3.31
2.48
1.90
1.79
2.22
3.10
4.24
5.44
6.44
7.02
7.00
6.26
4.83
2.90
0.79
-1.22
-2.93
-4.32
-5.48
-6.50
-7.44
-8.27
-8.96
-9.44
-9.67
-9.62
-9.24
-8.51
-7.41
-5.99
-4.35
-2.59
-0.84
0.80
2.21
3.29
3.90
3.98
3.52
2.67
1.62
0.58
-0.24
-0.68
-0.65
-0.16
0.72
1.88
3.18
4.54
5.88
7.14
8.20
8.91
9.09
8.66
7.66
6.26
4.71
3.27
2.08
1.15
0.36
-0.46
-1.44
-2.63
-3.96
-5.26
-6.29
-6.85
-6.83
-6.24
-5.21
-3.93
-2.56
-1.21
0.11
1.37
2.52
3.48
4.16
4.51
4.55
4.36
4.00
3.48
2.80
1.93
0.93
-0.10
-1.08
-1.96
-2.79
-3.63
-4.48
-5.25
-5.77
-5.90
-5.65
-5.14
-4.55
-4.04
-3.59
-3.12
-2.47
-1.59
-0.55
0.49
1.30
1.74
1.78
1.49
1.04
0.61
0.33
0.29
0.46
0.76
1.07
1.25
1.25
1.05
0.69
0.25
-0.20
-0.59
-0.90
-1.18
-1.45
-1.78
-2.17
-2.62
-3.04
-3.36
-3.53
-3.57
-3.51
-3.40
-3.24
-2.99
-2.61
-2.09
-1.44
-0.71
0.06
0.80
1.44
1.92
2.19
2.23
2.10
1.92
1.81
1.84
1.98
2.14
2.21
2.15
1.97
1.71
1.42
1.17
1.03
1.08
1.35
1.79
2.25
2.56
2.58
2.34
1.95
1.58
1.34
1.24
1.24
1.27
1.33
1.43
1.54
1.55
1.36
0.90
0.27
-0.33
-0.66
-0.59
-0.19
0.37
0.88
1.17
1.23
1.10
0.85
0.55
0.19
-0.19
-0.52
-0.74
-0.78
-0.64
-0.43
-0.27
-0.24
-0.38
-0.62
-0.89
-1.14
-1.35
-1.52
-1.63
-1.58
-1.33
-0.88
-0.33
0.13
0.36
0.31
0.11
-0.08
-0.09
0.10
0.39
0.58
0.53
0.23
-0.21
-0.60
-0.77
-0.67
-0.38
-0.04
0.25
0.43
0.54
0.64
0.74
0.81
0.77
0.57
0.22
-0.19
-0.55
-0.79
-0.89
-0.90
-0.88
-0.89
-0.93
-1.02
-1.14
-1.32
-1.54
-1.81
-2.07
-2.29
-2.39
-2.35
-2.11
-1.69
-1.12
-0.47
0.18
0.75
1.20
1.53
1.75
1.86
1.87
1.76
1.56
1.32
1.06
0.80
0.52
0.23
-0.04
-0.20
-0.19
-0.03
0.20
0.36
0.34
0.17
-0.02
-0.11
-0.01
0.18
0.30
0.17
-0.27
-0.91
-1.53
-1.93
-2.01
-1.80
-1.43
-1.06
-0.78
-0.60
-0.53
-0.56
-0.71
-0.96
-1.25
-1.47
-1.51
-1.31
-0.92
-0.42
0.10
0.64
1.22
1.85
2.47
2.96
3.19
3.09
2.68
2.08
1.42
0.82
0.32
-0.05
-0.29
-0.42
-0.48
-0.48
-0.48
-0.50
-0.60
-0.80
-1.11
-1.49
-1.84
-2.04
-2.00
-1.70
-1.25
-0.80
-0.48
-0.33
-0.30
-0.31
-0.28
-0.23
-0.22
-0.30
-0.44
-0.62
-0.75
-0.82
-0.89
-1.01
-1.24
-1.54
-1.83
-2.06
-2.21
-2.34
-2.54
-2.81
-3.13
-3.42
-3.60
-3.67
-3.70
-3.77
-3.90
-4.05
-4.11
-3.95
-3.50
-2.76
-1.81
-0.74
0.33
1.31
2.17
2.88
3.41
3.78
4.02
4.18
4.31
4.48
4.71
5.00
5.29
5.48
5.49
5.27
4.84
4.31
3.82
3.48
3.30
3.20
3.00
2.53
1.70
0.54
-0.78
-2.03
-3.02
-3.63
-3.83
-3.65
-3.15
-2.40
-1.50
-0.56
0.32
1.05
1.64
2.12
2.57
3.03
3.51
3.96
4.34
4.61
4.78
4.84
4.73
4.41
3.86
3.14
2.37
1.64
1.02
0.45
-0.14
-0.85
-1.66
-2.49
-3.18
-3.63
-3.76
-3.62
-3.33
-3.02
-2.76
-2.59
-2.46
-2.32
-2.10
-1.80
-1.47
-1.17
-0.96
-0.86
-0.88
-1.01
-1.21
-1.41
-1.49
-1.33
-0.86
-0.15
0.67
1.44
2.08
2.61
3.08
3.49
3.72
3.62
3.09
2.18
1.11
0.14
-0.53
-0.88
-1.00
-1.02
-1.01
-0.99
-0.94
-0.90
-0.92
-0.99
-1.05
-0.99
-0.72
-0.24
0.36
0.92
1.32
1.52
1.54
1.40
1.14
0.78
0.31
-0.22
-0.71
-1.04
-1.11
-0.86
-0.35
0.28
0.84
1.12
0.98
0.41
-0.45
-1.41
-2.24
-2.77
-2.95
-2.82
-2.50
-2.08
-1.63
-1.15
-0.62
-0.04
0.52
0.96
1.15
1.03
0.68
0.23
-0.13
-0.28
-0.23
-0.05
0.16
0.34
0.48
0.64
0.85
1.10
1.32
1.43
1.38
1.24
1.09
1.02
1.06
1.13
1.09
0.83
0.35
-0.27
-0.88
-1.35
-1.64
-1.75
-1.73
-1.61
-1.44
-1.20
-0.93
-0.67
-0.52
-0.55
-0.82
-1.31
-1.90
-2.43
-2.70
-2.58
-2.06
-1.26
-0.38
0.35
0.83
1.06
1.13
1.13
1.11
1.05
0.91
0.70
0.47
0.26
0.12
0.04
-0.02
-0.08
-0.13
-0.17
-0.18
-0.16
-0.13
-0.11
-0.14
-0.23
-0.36
-0.50
-0.60
-0.64
-0.66
-0.67
-0.70
-0.71
-0.63
-0.43
-0.13
0.14
0.26
0.12
-0.22
-0.62
-0.90
-1.03
-1.07
-1.17
-1.41
-1.73
-1.94
-1.82
-1.28
-0.42
0.54
1.36
1.87
2.03
1.90
1.57
1.13
0.64
0.15
-0.29
-0.62
-0.78
-0.73
-0.51
-0.20
0.05
0.13
-0.03
-0.42
-0.93
-1.43
-1.77
-1.85
-1.65
-1.23
-0.74
-0.34
-0.17
-0.25
-0.53
-0.88
-1.21
-1.47
-1.68
-1.91
-2.21
-2.55
-2.87
-3.06
-3.11
-3.05
-3.02
-3.16
-3.59
-4.28
-5.09
-5.76
-6.05
-5.84
-5.13
-4.10
-2.95
-1.83
-0.79
0.19
1.15
2.05
2.86
3.49
3.94
4.23
4.46
4.70
4.94
5.16
5.27
5.22
4.97
4.55
4.04
3.50
2.98
2.53
2.18
1.98
1.96
2.09
2.29
2.46
2.47
2.25
1.83
1.28
0.78
0.44
0.32
0.39
0.56
0.69
0.69
0.54
0.28
-0.00
-0.25
-0.42
-0.55
-0.68
-0.82
-0.92
-0.93
-0.80
-0.51
-0.11
0.36
0.81
1.21
1.54
1.80
1.97
1.99
1.84
1.54
1.16
0.80
0.59
0.56
0.70
0.94
1.18
1.38
1.50
1.54
1.52
1.46
1.34
1.19
0.99
0.75
0.47
0.18
-0.05
-0.16
-0.11
0.06
0.26
0.36
0.27
0.01
-0.35
-0.71
-0.96
-1.02
-0.90
-0.66
-0.39
-0.28
-0.43
-0.86
-1.46
-1.98
-2.16
-1.85
-1.07
-0.02
1.04
1.89
2.44
2.72
2.80
2.71
2.41
1.88
1.11
0.23
-0.55
-1.01
-1.04
-0.64
0.01
0.72
1.29
1.61
1.64
1.43
1.00
0.41
-0.25
-0.88
-1.36
-1.60
-1.59
-1.37
-1.01
-0.53
0.05
0.73
1.43
2.00
2.29
2.15
1.61
0.82
-0.00
-0.67
-1.11
-1.38
-1.61
-1.86
-2.11
-2.24
-2.10
-1.66
-0.98
-0.23
0.40
0.78
0.88
0.75
0.48
0.17
-0.12
-0.33
-0.45
-0.47
-0.42
-0.36
-0.34
-0.38
-0.45
-0.45
-0.28
0.05
0.46
0.80
0.89
0.65
0.14
-0.54
-1.21
-1.75
-2.09
-2.18
-2.04
-1.66
-1.13
-0.55
-0.09
0.12
0.01
-0.39
-0.91
-1.39
-1.68
-1.69
-1.44
-1.01
-0.48
0.06
0.54
0.91
1.16
1.31
1.40
1.45
1.51
1.57
1.65
1.71
1.73
1.71
1.61
1.44
1.17
0.80
0.32
-0.22
-0.78
-1.28
-1.65
-1.82
-1.78
-1.55
-1.20
-0.84
-0.56
-0.42
-0.43
-0.53
-0.63
-0.69
-0.69
-0.67
-0.71
-0.85
-1.10
-1.39
-1.64
-1.77
-1.71
-1.44
-0.98
-0.38
0.25
0.78
1.10
1.17
1.00
0.70
0.37
0.10
-0.09
-0.21
-0.30
-0.38
-0.50
-0.68
-0.95
-1.33
-1.78
-2.23
-2.56
-2.69
-2.60
-2.36
-2.10
-1.98
-2.09
-2.40
-2.80
-3.17
-3.40
-3.50
-3.50
-3.41
-3.22
-2.86
-2.25
-1.41
-0.39
0.65
1.60
2.33
2.79
2.98
2.91
2.64
2.21
1.73
1.30
1.02
0.98
1.22
1.72
2.38
3.04
3.51
3.68
3.55
3.28
3.05
2.99
3.08
3.17
3.12
2.87
2.53
2.23
2.10
2.15
2.29
2.38
2.32
2.10
1.77
1.39
1.03
0.70
0.41
0.17
0.00
-0.10
-0.14
-0.15
-0.16
-0.19
-0.25
-0.33
-0.39
-0.41
-0.39
-0.37
-0.40
-0.49
-0.62
-0.71
-0.68
-0.49
-0.17
0.17
0.41
0.42
0.13
-0.43
-1.16
-1.87
-2.39
-2.59
-2.39
-1.84
-1.06
-0.22
0.55
1.13
1.46
1.54
1.39
1.09
0.76
0.48
0.35
0.38
0.55
0.77
0.96
1.08
1.14
1.13
1.08
0.96
0.77
0.50
0.23
0.08
0.16
0.49
0.97
1.40
1.55
1.30
0.76
0.16
-0.20
-0.16
0.26
0.83
1.24
1.32
1.05
0.59
0.15
-0.16
-0.32
-0.44
-0.63
-0.88
-1.09
-1.10
-0.87
-0.47
-0.14
-0.08
-0.42
-1.08
-1.84
-2.43
-2.66
-2.48
-1.97
-1.30
-0.65
-0.13
0.21
0.43
0.57
0.72
0.87
1.01
1.09
1.04
0.85
0.57
0.28
0.10
0.09
0.22
0.44
0.66
0.78
0.81
0.76
0.67
0.57
0.46
0.32
0.16
0.02
-0.02
0.08
0.29
0.50
0.59
0.49
0.24
-0.02
-0.14
-0.08
0.11
0.27
0.28
0.12
-0.14
-0.39
-0.57
-0.70
-0.83
-1.01
-1.22
-1.36
-1.35
-1.23
-1.10
-1.14
-1.43
-1.92
-2.42
-2.71
-2.60
-2.08
-1.29
-0.43
0.32
0.89
1.31
1.67
2.02
2.36
2.64
2.73
2.59
2.23
1.75
1.29
0.96
0.77
0.66
0.50
0.19
-0.26
-0.77
-1.21
-1.48
-1.56
-1.49
-1.36
-1.23
-1.14
-1.10
-1.10
-1.10
-1.10
-1.07
-1.00
-0.90
-0.81
-0.74
-0.73
-0.77
-0.85
-0.95
-1.05
-1.14
-1.22
-1.30
-1.39
-1.50
-1.67
-1.92
-2.26
-2.67
-3.09
-3.48
-3.82
-4.14
-4.48
-4.86
-5.21
-5.40
-5.30
-4.81
-3.94
-2.78
-1.52
-0.30
0.79
1.76
2.63
3.43
4.11
4.60
4.85
4.85
4.66
4.40
4.17
4.06
4.06
4.10
4.08
3.94
3.65
3.24
2.81
2.41
2.10
1.86
1.68
1.50
1.31
1.14
1.01
0.96
0.97
0.99
0.93
0.76
0.47
0.14
-0.15
-0.36
-0.49
-0.58
-0.66
-0.76
-0.87
-1.00
-1.12
-1.24
-1.31
-1.29
-1.17
-0.99
-0.86
-0.90
-1.14
-1.52
-1.86
-1.95
-1.68
-1.07
-0.30
0.40
0.87
1.03
0.94
0.71
0.45
0.24
0.09
0.00
-0.03
-0.01
0.04
0.07
0.07
0.02
-0.04
-0.08
-0.05
0.06
0.20
0.31
0.34
0.26
0.09
-0.13
-0.37
-0.58
-0.74
-0.81
-0.77
-0.59
-0.29
0.07
0.42
0.67
0.76
0.68
0.47
0.20
-0.05
-0.24
-0.35
-0.38
-0.38
-0.37
-0.40
-0.50
-0.70
-0.98
-1.31
-1.59
-1.74
-1.69
-1.45
-1.03
-0.51
0.05
0.62
1.16
1.62
1.90
1.94
1.71
1.30
0.85
0.51
0.35
0.36
0.49
0.66
0.80
0.88
0.88
0.80
0.65
0.45
0.21
-0.04
-0.30
-0.52
-0.66
-0.64
-0.45
-0.16
0.10
0.14
-0.11
-0.61
-1.16
-1.52
-1.52
-1.17
-0.61
-0.07
0.28
0.39
0.33
0.21
0.17
0.23
0.37
0.48
0.48
0.32
0.03
-0.32
-0.66
-0.90
-0.99
-0.89
-0.61
-0.18
0.30
0.72
1.01
1.14
1.11
0.97
0.76
0.47
0.11
-0.28
-0.65
-0.88
-0.87
-0.59
-0.12
0.38
0.75
0.87
0.72
0.39
-0.00
-0.31
-0.47
-0.48
-0.43
-0.36
-0.32
-0.29
-0.24
-0.13
-0.03
0.02
-0.04
-0.24
-0.57
-0.98
-1.42
-1.82
-2.12
-2.24
-2.16
-1.93
-1.66
-1.50
-1.59
-1.94
-2.50
-3.11
-3.64
-3.99
-4.13
-4.03
-3.73
-3.27
-2.73
-2.23
-1.88
-1.72
-1.70
-1.70
-1.60
-1.37
-0.99
-0.51
0.08
0.79
1.63
2.55
3.42
4.04
4.31
4.18
3.80
3.33
2.94
2.69
2.56
2.51
2.49
2.51
2.54
2.58
2.57
2.48
2.34
2.21
2.19
2.32
2.56
2.79
2.85
2.68
2.30
1.83
1.35
0.88
0.37
-0.24
-0.95
-1.64
-2.13
-2.22
-1.84
-1.09
-0.19
0.62
1.12
1.24
1.01
0.58
0.11
-0.27
-0.48
-0.52
-0.41
-0.20
0.07
0.37
0.66
0.89
1.01
1.03
0.98
0.90
0.84
0.81
0.79
0.77
0.75
0.72
0.67
0.54
0.30
-0.06
-0.45
-0.78
-0.95
-0.92
-0.73
-0.46
-0.20
-0.01
0.06
-0.01
-0.24
-0.65
-1.19
-1.81
-2.38
-2.80
-2.96
-2.81
-2.34
-1.64
-0.81
0.03
0.77
1.34
1.68
1.79
1.66
1.34
0.90
0.46
0.13
-0.03
-0.01
0.11
0.26
0.36
0.39
0.41
0.45
0.53
0.62
0.65
0.58
0.42
0.23
0.09
0.06
0.12
0.24
0.35
0.42
0.45
0.39
0.22
-0.11
-0.58
-1.09
-1.47
-1.58
-1.42
-1.12
-0.88
-0.84
-1.02
-1.30
-1.56
-1.69
-1.67
-1.51
-1.26
-0.90
-0.41
0.21
0.87
1.46
1.82
1.90
1.69
1.28
0.76
0.23
-0.26
-0.65
-0.94
-1.10
-1.15
-1.09
-0.94
-0.75
-0.57
-0.45
-0.43
-0.50
-0.62
-0.73
-0.79
-0.78
-0.73
-0.62
-0.44
-0.15
0.28
0.80
1.29
1.62
1.67
1.41
0.90
0.26
-0.34
-0.76
-0.89
-0.73
-0.33
0.12
0.45
0.49
0.23
-0.25
-0.75
-1.09
-1.17
-1.03
-0.78
-0.55
-0.43
-0.38
-0.34
-0.22
0.01
0.29
0.53
0.64
0.57
0.38
0.15
-0.01
-0.07
-0.07
-0.07
-0.13
-0.26
-0.40
-0.50
-0.53
-0.52
-0.51
-0.57
-0.73
-0.98
-1.28
-1.58
-1.81
-1.94
-1.94
-1.88
-1.82
-1.83
-1.96
-2.18
-2.45
-2.73
-2.97
-3.18
-3.38
-3.62
-3.93
-4.31
-4.69
-4.97
-5.03
-4.71
-3.91
-2.64
-1.02
0.74
2.37
3.66
4.53
4.99
5.16
5.13
5.01
4.81
4.57
4.36
4.22
4.17
4.16
4.07
3.78
3.24
2.55
1.86
1.36
1.12
1.09
1.14
1.16
1.09
1.01
1.01
1.15
1.39
1.57
1.55
1.29
0.84
0.35
-0.01
-0.16
-0.12
-0.02
0.07
0.11
0.15
0.28
0.48
0.70
0.77
0.56
0.07
-0.62
-1.27
-1.69
-1.74
-1.44
-0.91
-0.31
0.23
0.66
0.94
1.10
1.13
1.03
0.83
0.56
0.26
0.00
-0.18
-0.26
-0.26
-0.18
-0.08
0.02
0.09
0.12
0.10
0.07
0.01
-0.07
-0.16
-0.27
-0.34
-0.32
-0.18
0.06
0.32
0.50
0.55
0.45
0.26
0.06
-0.09
-0.19
-0.25
-0.30
-0.34
-0.34
-0.28
-0.17
-0.04
0.04
0.02
-0.15
-0.48
-0.95
-1.50
-2.00
-2.33
-2.34
-1.98
-1.30
-0.46
0.32
0.88
1.15
1.17
1.04
0.85
0.66
0.49
0.34
0.24
0.18
0.17
0.20
0.27
0.37
0.50
0.66
0.83
0.95
1.00
0.96
0.82
0.65
0.48
0.35
0.25
0.19
0.14
0.12
0.14
0.19
0.26
0.28
0.21
0.01
-0.29
-0.62
-0.90
-1.05
-1.04
-0.91
-0.75
-0.67
-0.74
-0.97
-1.32
-1.68
-1.93
-1.98
-1.78
-1.38
-0.86
-0.35
0.10
0.47
0.76
0.99
1.15
1.22
1.20
1.13
1.07
1.08
1.15
1.21
1.16
0.94
0.55
0.10
-0.26
-0.41
-0.31
-0.04
0.24
0.41
0.38
0.23
0.08
0.04
0.13
0.26
0.29
0.13
-0.17
-0.45
-0.57
-0.46
-0.22
-0.02
-0.00
-0.22
-0.60
-1.00
-1.29
-1.42
-1.44
-1.41
-1.43
-1.55
-1.78
-2.10
-2.45
-2.82
-3.17
-3.52
-3.86
-4.12
-4.22
-4.06
-3.66
-3.14
-2.67
-2.43
-2.43
-2.56
-2.59
-2.38
-1.87
-1.14
-0.35
0.41
1.14
1.86
2.62
3.37
4.03
4.49
4.66
4.55
4.20
3.68
3.10
2.58
2.23
2.13
2.27
2.58
2.89
3.06
3.02
2.83
2.59
2.42
2.34
2.27
2.09
1.74
1.25
0.72
0.28
-0.00
-0.16
-0.24
-0.30
-0.35
-0.35
-0.31
-0.24
-0.24
-0.38
-0.70
-1.16
-1.64
-1.99
-2.07
-1.82
-1.27
-0.56
0.15
0.70
1.01
1.10
1.06
0.99
0.97
1.00
1.08
1.16
1.23
1.27
1.23
1.10
0.88
0.61
0.36
0.20
0.15
0.18
0.22
0.23
0.21
0.17
0.15
0.18
0.20
0.17
0.06
-0.09
-0.23
-0.28
-0.20
-0.02
0.19
0.36
0.41
0.33
0.13
-0.11
-0.34
-0.52
-0.61
-0.64
-0.62
-0.59
-0.59
-0.66
-0.81
-1.03
-1.26
-1.41
-1.41
-1.21
-0.82
-0.31
0.20
0.61
0.85
0.89
0.77
0.53
0.24
-0.01
-0.14
-0.11
0.09
0.39
0.68
0.87
0.90
0.81
0.65
0.50
0.42
0.38
0.34
0.23
0.01
-0.33
-0.71
-1.05
-1.24
-1.25
-1.10
-0.85
-0.58
-0.33
-0.09
0.16
0.41
0.60
0.69
0.62
0.43
0.19
-0.00
-0.12
-0.17
-0.24
-0.37
-0.58
-0.83
-1.09
-1.36
-1.66
-1.97
-2.26
-2.43
-2.38
-2.09
-1.60
-1.01
-0.44
0.02
0.33
0.47
0.41
0.15
-0.27
-0.78
-1.24
-1.56
-1.64
-1.52
-1.30
-1.12
-1.09
-1.26
-1.58
-1.96
-2.33
-2.64
-2.95
-3.28
-3.62
-3.88
-3.88
-3.47
-2.62
-1.47
-0.26
0.75
1.44
1.84
2.10
2.37
2.73
3.15
3.50
3.69
3.67
3.50
3.27
3.05
2.87
2.72
2.57
2.40
2.21
2.02
1.80
1.51
1.13
0.67
0.19
-0.22
-0.44
-0.43
-0.18
0.26
0.78
1.28
1.66
1.87
1.90
1.76
1.51
1.21
0.91
0.65
0.48
0.44
0.50
0.64
0.78
0.85
0.82
0.68
0.48
0.29
0.14
0.02
-0.09
-0.20
-0.29
-0.30
-0.21
-0.02
0.21
0.39
0.47
0.40
0.21
-0.06
-0.38
-0.67
-0.91
-1.04
-1.03
-0.89
-0.66
-0.42
-0.26
-0.23
-0.34
-0.56
-0.86
-1.20
-1.55
-1.86
-2.05
-2.03
-1.72
-1.14
-0.40
0.31
0.82
1.06
1.06
0.96
0.86
0.81
0.78
0.72
0.62
0.55
0.58
0.73
0.94
1.09
1.09
0.91
0.63
0.39
0.30
0.38
0.57
0.75
0.79
0.65
0.37
0.04
-0.24
-0.39
-0.45
-0.47
-0.57
-0.78
-1.09
-1.40
-1.63
-1.72
-1.68
-1.58
-1.45
-1.30
-1.08
-0.76
-0.35
0.04
0.24
0.11
-0.35
-1.02
-1.66
-2.02
-1.97
-1.56
-0.95
-0.37
0.03
0.23
0.30
0.36
0.48
0.67
0.85
0.92
0.83
0.61
0.36
0.22
0.27
0.48
0.72
0.82
0.69
0.31
-0.19
-0.63
-0.85
-0.81
-0.56
-0.24
0.01
0.13
0.11
0.05
0.04
0.14
0.37
0.66
0.89
0.98
0.88
0.66
0.41
0.24
0.18
0.18
0.19
0.14
0.05
-0.03
-0.04
-0.02
-0.07
-0.35
-0.91
-1.71
-2.52
-3.08
-3.23
-2.92
-2.27
-1.46
-0.64
0.10
0.76
1.34
1.78
1.98
1.84
1.38
0.71
0.04
-0.43
-0.60
-0.52
-0.31
-0.10
-0.01
-0.05
-0.16
-0.26
-0.32
-0.35
-0.37
-0.44
-0.57
-0.70
-0.78
-0.73
-0.51
-0.16
0.24
0.58
0.74
0.68
0.41
-0.01
-0.48
-0.90
-1.19
-1.30
-1.26
-1.09
-0.92
-0.84
-0.94
-1.29
-1.87
-2.61
-3.43
-4.23
-4.91
-5.41
-5.67
-5.64
-5.29
-4.64
-3.75
-2.71
-1.63
-0.61
0.30
1.06
1.66
2.08
2.34
2.50
2.65
2.91
3.30
3.80
4.29
4.65
4.80
4.74
4.57
4.36
4.19
4.02
3.79
3.42
2.92
2.35
1.82
1.43
1.19
1.03
0.88
0.65
0.35
0.01
-0.30
-0.52
-0.61
-0.59
-0.47
-0.28
-0.05
0.19
0.39
0.48
0.41
0.18
-0.18
-0.63
-1.05
-1.31
-1.30
-0.96
-0.32
0.44
1.08
1.44
1.48
1.29
1.07
0.93
0.88
0.86
0.75
0.58
0.42
0.37
0.41
0.45
0.32
-0.04
-0.57
-1.04
-1.26
-1.11
-0.71
-0.23
0.14
0.30
0.32
0.32
0.41
0.61
0.86
1.01
0.95
0.67
0.25
-0.20
-0.55
-0.75
-0.84
-0.85
-0.82
-0.78
-0.69
-0.57
-0.47
-0.44
-0.55
-0.80
-1.12
-1.42
-1.59
-1.59
-1.41
-1.08
-0.62
-0.09
0.47
0.97
1.32
1.48
1.43
1.20
0.86
0.50
0.18
-0.03
-0.09
0.01
0.21
0.38
0.36
0.10
-0.35
-0.81
-1.08
-1.05
-0.76
-0.36
-0.04
0.09
0.00
-0.20
-0.42
-0.59
-0.70
-0.75
-0.76
-0.68
-0.54
-0.35
-0.17
-0.06
-0.03
-0.06
-0.09
-0.06
0.02
0.12
0.17
0.08
-0.17
-0.55
-0.98
-1.36
-1.60
-1.64
-1.45
-1.06
-0.54
0.00
0.44
0.69
0.74
0.63
0.50
0.43
0.46
0.56
0.63
0.63
0.53
0.37
0.23
0.13
0.10
0.12
0.18
0.25
0.31
0.32
0.27
0.13
-0.07
-0.30
-0.53
-0.73
-0.89
-0.97
-0.95
-0.79
-0.48
-0.07
0.31
0.54
0.52
0.25
-0.16
-0.53
-0.72
-0.68
-0.48
-0.28
-0.23
-0.41
-0.77
-1.17
-1.42
-1.40
-1.10
-0.61
-0.06
0.43
0.82
1.11
1.32
1.42
1.38
1.17
0.83
0.44
0.13
-0.02
-0.00
0.10
0.19
0.15
-0.01
-0.25
-0.48
-0.63
-0.73
-0.81
-0.93
-1.09
-1.23
-1.29
-1.22
-1.06
-0.93
-0.94
-1.15
-1.54
-2.01
-2.45
-2.83
-3.14
-3.42
-3.67
-3.85
-3.90
-3.85
-3.78
-3.77
-3.87
-3.98
-3.91
-3.46
-2.56
-1.30
0.07
1.33
2.32
3.06
3.64
4.15
4.59
4.90
4.98
4.81
4.44
3.97
3.48
3.02
2.56
2.10
1.65
1.27
1.00
0.90
0.97
1.16
1.43
1.67
1.83
1.82
1.66
1.37
1.08
0.88
0.83
0.93
1.09
1.20
1.18
0.96
0.54
-0.02
-0.65
-1.24
-1.68
-1.94
-2.03
-2.00
-1.90
-1.74
-1.50
-1.12
-0.59
0.02
0.59
0.99
1.19
1.23
1.23
1.31
1.50
1.74
1.93
1.94
1.72
1.30
0.78
0.28
-0.12
-0.41
-0.59
-0.71
-0.76
-0.71
-0.54
-0.27
0.06
0.35
0.50
0.49
0.36
0.18
0.05
-0.00
0.02
0.05
0.04
0.01
0.01
0.06
0.16
0.25
0.25
0.14
-0.06
-0.28
-0.49
-0.66
-0.81
-0.95
-1.07
-1.11
-1.01
-0.76
-0.41
-0.02
0.38
0.75
1.10
1.37
1.49
1.38
1.02
0.50
-0.04
-0.40
-0.46
-0.23
0.21
0.69
1.08
1.27
1.24
1.01
0.64
0.22
-0.16
-0.45
-0.62
-0.65
-0.58
-0.45
-0.31
-0.22
-0.20
-0.28
-0.46
-0.69
-0.96
-1.19
-1.33
-1.33
-1.20
-0.94
-0.61
-0.27
-0.01
0.09
-0.04
-0.40
-0.89
-1.33
-1.50
-1.26
-0.63
0.20
0.97
1.46
1.60
1.48
1.25
1.04
0.87
0.72
0.54
0.37
0.27
0.29
0.41
0.53
0.52
0.35
0.06
-0.24
-0.43
-0.47
-0.40
-0.35
-0.38
-0.53
-0.69
-0.72
-0.52
-0.11
0.38
0.72
0.76
0.49
0.03
-0.38
-0.55
-0.43
-0.14
0.14
0.28
0.27
0.17
0.08
0.02
-0.09
-0.39
-0.94
-1.65
-2.31
-2.65
-2.50
-1.87
-0.97
-0.06
0.63
1.02
1.18
1.26
1.35
1.48
1.58
1.60
1.52
1.37
1.18
0.94
0.65
0.29
-0.08
-0.35
-0.41
-0.26
0.01
0.19
0.12
-0.26
-0.87
-1.49
-1.93
-2.08
-1.93
-1.57
-1.09
-0.56
-0.03
0.40
0.66
0.64
0.35
-0.12
-0.59
-0.92
-1.03
-0.98
-0.95
-1.08
-1.44
-1.99
-2.59
-3.09
-3.40
-3.48
-3.34
-3.04
-2.65
-2.21
-1.79
-1.40
-1.05
-0.76
-0.53
-0.36
-0.23
-0.07
0.18
0.59
1.15
1.81
2.46
3.01
3.42
3.67
3.76
3.72
3.53
3.20
2.79
2.37
2.03
1.85
1.81
1.86
1.91
1.88
1.71
1.43
1.08
0.74
0.45
0.23
0.05
-0.09
-0.22
-0.32
-0.40
-0.46
-0.53
-0.64
-0.84
-1.11
-1.41
-1.64
-1.68
-1.44
-0.91
-0.18
0.59
1.22
1.58
1.66
1.49
1.22
0.93
0.71
0.55
0.41
0.27
0.12
-0.03
-0.16
-0.28
-0.37
-0.42
-0.40
-0.28
-0.07
0.18
0.35
0.34
0.10
-0.30
-0.71
-0.97
-0.96
-0.70
-0.33
0.01
0.21
0.26
0.23
0.22
0.29
0.43
0.54
0.54
0.38
0.11
-0.18
-0.39
-0.45
-0.42
-0.43
-0.60
-0.95
-1.44
-1.89
-2.12
-2.04
-1.66
-1.09
-0.50
-0.02
0.32
0.54
0.68
0.74
0.71
0.57
0.31
0.02
-0.21
-0.27
-0.14
0.14
0.45
0.71
0.83
0.81
0.67
0.48
0.30
0.18
0.14
0.15
0.13
0.02
-0.20
-0.47
-0.70
-0.81
-0.77
-0.66
-0.53
-0.42
-0.31
-0.15
0.09
0.34
0.46
0.36
0.01
-0.47
-0.93
-1.21
-1.27
-1.14
-0.96
-0.80
-0.71
-0.66
-0.59
-0.46
-0.23
0.10
0.53
1.02
1.48
1.82
1.97
1.89
1.59
1.12
0.58
0.06
-0.35
-0.60
-0.71
-0.73
-0.72
-0.73
-0.78
-0.85
-0.89
-0.89
-0.84
-0.75
-0.64
-0.47
-0.24
0.04
0.35
0.61
0.77
0.79
0.69
0.51
0.32
0.20
0.22
0.36
0.56
0.69
0.65
0.40
0.01
-0.38
-0.68
-0.81
-0.86
-0.93
-1.11
-1.36
-1.58
-1.63
-1.44
-1.01
-0.46
0.08
0.48
0.68
0.67
0.47
0.18
-0.12
-0.32
-0.36
-0.20
0.13
0.56
0.99
1.33
1.54
1.60
1.51
1.29
0.94
0.48
-0.03
-0.53
-0.94
-1.23
-1.37
-1.41
-1.44
-1.54
-1.77
-2.09
-2.45
-2.76
-2.98
-3.12
-3.21
-3.29
-3.35
-3.35
-3.27
-3.11
-2.97
-2.95
-3.12
-3.45
-3.79
-3.95
-3.74
-3.10
-2.08
-0.85
0.41
1.53
2.42
3.05
3.47
3.75
3.91
3.96
3.86
3.62
3.29
2.98
2.80
2.79
2.91
3.03
3.03
2.87
2.56
2.20
1.88
1.66
1.54
1.50
1.48
1.42
1.28
1.03
0.70
0.35
0.09
0.01
0.14
0.41
0.67
0.75
0.60
0.24
-0.18
-0.47
-0.54
-0.38
-0.08
0.20
0.37
0.39
0.29
0.13
-0.06
-0.22
-0.33
-0.35
-0.26
-0.07
0.20
0.51
0.85
1.19
1.52
1.77
1.84
1.67
1.23
0.63
0.04
-0.36
-0.44
-0.23
0.18
0.62
0.95
1.08
0.96
0.64
0.19
-0.27
-0.63
-0.82
-0.82
-0.67
-0.42
-0.15
0.08
0.20
0.17
-0.02
-0.34
-0.70
-0.99
-1.11
-1.02
-0.76
-0.47
-0.29
-0.34
-0.63
-1.05
-1.44
-1.64
-1.58
-1.25
-0.72
-0.07
0.61
1.23
1.74
2.00
1.92
1.48
0.76
-0.03
-0.64
-0.91
-0.80
-0.47
-0.13
0.05
0.01
-0.16
-0.34
-0.45
-0.49
-0.51
-0.57
-0.67
-0.74
-0.68
-0.45
-0.12
0.24
0.51
0.60
0.54
0.37
0.22
0.17
0.26
0.45
0.64
0.70
0.51
0.07
-0.55
-1.17
-1.62
-1.78
-1.63
-1.23
-0.68
-0.12
0.35
0.64
0.69
0.47
0.02
-0.53
-0.99
-1.20
-1.10
-0.73
-0.24
0.22
0.56
0.75
0.82
0.79
0.66
0.42
0.10
-0.23
-0.46
-0.55
-0.50
-0.41
-0.39
-0.47
-0.60
-0.66
-0.52
-0.11
0.51
1.21
1.80
2.10
2.04
1.62
0.91
0.03
-0.90
-1.75
-2.40
-2.73
-2.65
-2.13
-1.27
-0.23
0.74
1.40
1.65
1.49
1.08
0.62
0.30
0.17
0.20
0.25
0.18
-0.09
-0.52
-0.98
-1.32
-1.44
-1.34
-1.09
-0.79
-0.48
-0.17
0.17
0.52
0.79
0.86
0.64
0.15
-0.48
-1.04
-1.40
-1.57
-1.67
-1.84
-2.14
-2.50
-2.80
-2.93
-2.91
-2.83
-2.80
-2.88
-3.03
-3.14
-3.15
-3.04
-2.84
-2.60
-2.32
-2.00
-1.63
-1.29
-1.07
-1.00
-1.03
-0.99
-0.72
-0.14
0.71
1.66
2.53
3.20
3.60
3.78
3.78
3.66
3.47
3.29
3.20
3.24
3.43
3.68
3.86
3.89
3.71
3.41
3.06
2.74
2.49
2.28
2.02
1.64
1.12
0.46
-0.26
-0.92
-1.38
-1.56
-1.45
-1.09
-0.63
-0.19
0.17
0.43
0.61
0.74
0.86
0.96
1.05
1.18
1.37
1.63
1.92
2.12
2.10
1.78
1.18
0.41
-0.37
-1.01
-1.41
-1.55
-1.46
-1.17
-0.73
-0.20
0.34
0.78
1.04
1.06
0.90
0.61
0.28
-0.08
-0.45
-0.83
-1.14
-1.29
-1.22
-0.91
-0.46
-0.05
0.23
0.33
0.36
0.49
0.82
1.33
1.88
2.24
2.27
1.94
1.35
0.70
0.10
-0.42
-0.93
-1.50
-2.16
-2.82
-3.35
-3.61
-3.55
-3.21
-2.73
-2.22
-1.78
-1.40
-1.05
-0.71
-0.36
-0.01
0.32
0.60
0.81
0.92
0.89
0.74
0.52
0.31
0.18
0.19
0.32
0.55
0.82
1.09
1.34
1.56
1.70
1.71
1.54
1.21
0.78
0.35
-0.00
-0.24
-0.38
-0.47
-0.53
-0.56
-0.57
-0.57
-0.61
-0.71
-0.86
-1.01
-1.09
-1.03
-0.83
-0.53
-0.19
0.13
0.42
0.64
0.78
0.81
0.75
0.61
0.44
0.29
0.16
0.01
-0.18
-0.44
-0.73
-0.93
-0.98
-0.81
-0.48
-0.09
0.25
0.48
0.60
0.67
0.73
0.81
0.89
0.96
1.00
1.05
1.11
1.21
1.34
1.47
1.57
1.57
1.45
1.13
0.60
-0.11
-0.90
-1.61
-2.11
-2.37
-2.38
-2.23
-1.99
-1.71
-1.42
-1.15
-0.90
-0.70
-0.56
-0.49
-0.47
-0.46
-0.41
-0.31
-0.19
-0.08
-0.01
0.02
0.09
0.24
0.48
0.76
0.98
1.06
0.98
0.78
0.53
0.28
0.02
-0.28
-0.60
-0.91
-1.15
-1.27
-1.30
-1.27
-1.22
-1.19
-1.17
-1.17
-1.21
-1.29
-1.44
-1.61
-1.78
-1.90
-1.99
-2.10
-2.32
-2.71
-3.26
-3.90
-4.49
-4.89
-5.00
-4.77
-4.22
-3.43
-2.53
-1.59
-0.68
0.17
0.96
1.69
2.37
2.95
3.40
3.70
3.84
3.84
3.75
3.63
3.54
3.52
3.60
3.74
3.92
4.01
3.93
3.57
2.92
2.08
1.19
0.45
-0.05
-0.28
-0.36
-0.45
-0.64
-0.91
-1.13
-1.14
-0.85
-0.33
0.25
0.70
0.87
0.75
0.39
-0.06
-0.47
-0.70
-0.69
-0.38
0.17
0.82
1.37
1.65
1.60
1.31
0.94
0.64
0.47
0.39
0.33
0.20
0.01
-0.20
-0.36
-0.39
-0.29
-0.09
0.14
0.28
0.26
0.09
-0.19
-0.48
-0.68
-0.78
-0.80
-0.79
-0.76
-0.68
-0.51
-0.23
0.11
0.39
0.53
0.48
0.28
0.04
-0.14
-0.21
-0.22
-0.24
-0.36
-0.62
-0.96
-1.26
-1.38
-1.25
-0.88
-0.40
0.06
0.41
0.63
0.79
0.91
0.98
0.96
0.85
0.73
0.67
0.76
0.94
1.14
1.23
1.17
1.00
0.84
0.76
0.71
0.60
0.33
-0.09
-0.55
-0.84
-0.80
-0.44
0.13
0.67
0.97
0.95
0.66
0.27
-0.04
-0.17
-0.11
0.05
0.21
0.32
0.36
0.34
0.26
0.11
-0.11
-0.42
-0.78
-1.16
-1.48
-1.64
-1.58
-1.28
-0.80
-0.25
0.23
0.52
0.56
0.41
0.14
-0.11
-0.26
-0.24
-0.08
0.18
0.43
0.62
0.72
0.75
0.79
0.86
0.94
0.96
0.86
0.65
0.41
0.27
0.27
0.35
0.38
0.28
0.05
-0.20
-0.33
-0.29
-0.13
0.03
0.06
-0.06
-0.29
-0.54
-0.75
-0.89
-0.99
-1.05
-1.11
-1.17
-1.27
-1.40
-1.51
-1.51
-1.29
-0.82
-0.16
0.53
1.09
1.40
1.48
1.38
1.18
0.92
0.61
0.27
-0.04
-0.25
-0.27
-0.10
0.19
0.50
0.70
0.73
0.57
0.28
-0.04
-0.31
-0.45
-0.45
-0.32
-0.16
-0.04
-0.03
-0.13
-0.31
-0.51
-0.65
-0.69
-0.63
-0.49
-0.32
-0.18
-0.07
0.00
0.09
0.21
0.36
0.51
0.60
0.57
0.43
0.21
-0.02
-0.21
-0.39
-0.58
-0.83
-1.13
-1.37
-1.45
-1.26
-0.82
-0.22
0.32
0.62
0.57
0.20
-0.33
-0.82
-1.11
-1.17
-1.05
-0.89
-0.78
-0.78
-0.89
-1.10
-1.37
-1.71
-2.05
-2.33
-2.44
-2.33
-2.08
-1.83
-1.74
-1.92
-2.33
-2.80
-3.10
-3.08
-2.68
-1.99
-1.20
-0.47
0.05
0.36
0.50
0.58
0.71
0.94
1.30
1.75
2.22
2.63
2.91
3.05
3.06
2.99
2.91
2.85
2.82
2.83
2.85
2.86
2.85
2.77
2.59
2.27
1.84
1.35
0.90
0.62
0.57
0.70
0.95
1.18
1.28
1.21
0.95
0.56
0.11
-0.36
-0.77
-1.06
-1.18
-1.09
-0.83
-0.46
-0.09
0.20
0.33
0.31
0.18
-0.02
-0.23
-0.40
-0.51
-0.52
-0.46
-0.38
-0.34
-0.40
-0.56
-0.79
-0.96
-0.96
-0.75
-0.38
0.02
0.33
0.46
0.41
0.26
0.13
0.09
0.11
0.15
0.15
0.08
-0.03
-0.13
-0.19
-0.19
-0.15
-0.08
0.03
0.15
0.27
0.34
0.32
0.20
0.02
-0.19
-0.37
-0.47
-0.49
-0.43
-0.29
-0.11
0.09
0.24
0.32
0.33
0.27
0.16
0.01
-0.17
-0.37
-0.57
-0.74
-0.83
-0.83
-0.75
-0.65
-0.57
-0.55
-0.60
-0.67
-0.72
-0.69
-0.52
-0.20
0.22
0.68
1.09
1.36
1.48
1.43
1.26
0.99
0.63
0.19
-0.27
-0.69
-0.98
-1.04
-0.86
-0.51
-0.13
0.10
0.05
-0.26
-0.71
-1.07
-1.15
-0.87
-0.31
0.33
0.84
1.08
1.06
0.85
0.59
0.35
0.17
0.02
-0.09
-0.14
-0.10
0.06
0.30
0.53
0.65
0.61
0.39
0.02
-0.40
-0.80
-1.11
-1.33
-1.46
-1.52
-1.47
-1.26
-0.86
-0.28
0.36
0.92
1.25
1.30
1.10
0.78
0.43
0.12
-0.12
-0.31
-0.44
-0.49
-0.44
-0.29
-0.09
0.06
0.13
0.11
0.07
0.08
0.18
0.36
0.58
0.79
0.95
1.07
1.13
1.14
1.04
0.80
0.44
-0.01
-0.44
-0.76
-0.89
-0.81
-0.58
-0.26
0.04
0.24
0.29
0.17
-0.11
-0.49
-0.88
-1.18
-1.32
-1.24
-0.97
-0.60
-0.23
0.03
0.16
0.16
0.09
-0.01
-0.11
-0.18
-0.21
-0.12
0.12
0.50
0.91
1.21
1.26
1.01
0.53
-0.03
-0.50
-0.81
-0.96
-1.01
-1.05
-1.10
-1.16
-1.16
-1.05
-0.80
-0.44
-0.05
0.30
0.52
0.60
0.57
0.49
0.39
0.25
0.06
-0.19
-0.48
-0.74
-0.89
-0.90
-0.78
-0.58
-0.38
-0.19
-0.04
0.07
0.16
0.21
0.25
0.30
0.38
0.48
0.56
0.56
0.45
0.25
0.02
-0.15
-0.25
-0.28
-0.32
-0.40
-0.53
-0.63
-0.62
-0.49
-0.26
-0.01
0.21
0.38
0.49
0.52
0.45
0.26
0.00
-0.25
-0.41
-0.45
-0.42
-0.45
-0.60
-0.86
-1.13
-1.29
-1.32
-1.28
-1.33
-1.61
-2.17
-2.90
-3.63
-4.21
-4.54
-4.60
-4.43
-4.08
-3.59
-2.97
-2.22
-1.38
-0.51
0.30
0.96
1.45
1.81
2.12
2.44
2.78
3.09
3.29
3.35
3.28
3.14
2.97
2.79
2.58
2.31
1.99
1.70
1.54
1.54
1.65
1.76
1.78
1.69
1.58
1.54
1.61
1.72
1.73
1.52
1.12
0.69
0.43
0.45
0.70
1.00
1.13
0.97
0.53
-0.08
-0.72
-1.29
-1.69
-1.87
-1.77
-1.34
-0.66
0.13
0.83
1.27
1.36
1.19
0.89
0.64
0.56
0.67
0.88
1.09
1.18
1.11
0.91
0.66
0.46
0.36
0.36
0.38
0.39
0.34
0.26
0.18
0.12
0.07
-0.00
-0.14
-0.33
-0.53
-0.69
-0.74
-0.71
-0.60
-0.49
-0.41
-0.39
-0.42
-0.47
-0.51
-0.54
-0.60
-0.73
-0.96
-1.28
-1.62
-1.86
-1.90
-1.70
-1.31
-0.84
-0.42
-0.13
0.01
0.07
0.12
0.21
0.34
0.45
0.46
0.36
0.17
-0.03
-0.13
-0.08
0.11
0.41
0.73
0.98
1.14
1.20
1.20
1.15
1.06
0.93
0.76
0.54
0.31
0.08
-0.08
-0.16
-0.18
-0.18
-0.18
-0.22
-0.25
-0.25
-0.21
-0.15
-0.10
-0.09
-0.12
-0.14
-0.10
0.00
0.14
0.25
0.28
0.20
0.05
-0.11
-0.26
-0.40
-0.54
-0.66
-0.70
-0.57
-0.25
0.23
0.77
1.24
1.51
1.53
1.30
0.91
0.44
-0.00
-0.37
-0.60
-0.68
-0.64
-0.54
-0.42
-0.32
-0.23
-0.09
0.11
0.36
0.57
0.65
0.60
0.47
0.40
0.47
0.68
0.94
1.07
0.99
0.69
0.31
-0.03
-0.21
-0.24
-0.19
-0.17
-0.27
-0.51
-0.89
-1.29
-1.58
-1.67
-1.48
-1.08
-0.61
-0.20
0.03
0.10
0.09
0.07
0.05
-0.01
-0.16
-0.43
-0.76
-1.04
-1.16
-1.07
-0.79
-0.41
-0.03
0.24
0.35
0.34
0.26
0.17
0.08
-0.03
-0.21
-0.45
-0.67
-0.77
-0.65
-0.33
0.07
0.40
0.55
0.50
0.31
0.13
0.00
-0.03
-0.02
-0.03
-0.07
-0.18
-0.34
-0.55
-0.79
-1.00
-1.13
-1.13
-0.99
-0.72
-0.39
-0.05
0.26
0.54
0.79
0.98
1.08
1.02
0.79
0.44
0.10
-0.12
-0.14
-0.01
0.14
0.17
-0.00
-0.34
-0.73
-1.05
-1.22
-1.25
-1.21
-1.17
-1.21
-1.35
-1.59
-1.89
-2.18
-2.37
-2.40
-2.30
-2.15
-2.05
-2.07
-2.19
-2.32
-2.37
-2.35
-2.35
-2.49
-2.80
-3.21
-3.56
-3.64
-3.31
-2.60
-1.62
-0.57
0.38
1.10
1.55
1.76
1.83
1.85
1.96
2.25
2.72
3.29
3.84
4.20
4.29
4.11
3.75
3.33
2.96
2.64
2.35
2.03
1.69
1.40
1.22
1.18
1.24
1.25
1.14
0.85
0.46
0.10
-0.13
-0.16
-0.00
0.27
0.57
0.81
0.95
0.96
0.82
0.51
0.08
-0.42
-0.86
-1.16
-1.21
-1.00
-0.58
-0.02
0.57
1.10
1.50
1.72
1.73
1.54
1.17
0.68
0.17
-0.28
-0.57
-0.66
-0.55
-0.31
-0.01
0.23
0.35
0.31
0.17
0.01
-0.10
-0.11
-0.07
-0.04
-0.10
-0.25
-0.45
-0.63
-0.67
-0.55
-0.27
0.07
0.35
0.45
0.35
0.06
-0.29
-0.57
-0.67
-0.57
-0.29
0.05
0.35
0.52
0.54
0.44
0.29
0.17
0.11
0.10
0.13
0.18
0.23
0.29
0.36
0.44
0.48
0.45
0.32
0.12
-0.11
-0.32
-0.46
-0.52
-0.52
-0.49
-0.43
-0.34
-0.22
-0.05
0.16
0.36
0.50
0.52
0.42
0.20
-0.11
-0.46
-0.79
-1.08
-1.26
-1.33
-1.26
-1.06
-0.76
-0.42
-0.12
0.09
0.16
0.12
0.02
-0.05
0.00
0.22
0.57
0.96
1.23
1.31
1.15
0.85
0.50
0.24
0.14
0.22
0.43
0.68
0.90
1.02
0.99
0.83
0.62
0.46
0.42
0.56
0.83
1.09
1.22
1.12
0.80
0.36
-0.09
-0.48
-0.79
-1.06
-1.28
-1.42
-1.42
-1.27
-1.02
-0.76
-0.56
-0.39
-0.17
0.19
0.67
1.15
1.45
1.43
1.07
0.49
-0.12
-0.58
-0.80
-0.75
-0.53
-0.24
0.01
0.15
0.17
0.12
0.06
0.07
0.13
0.23
0.29
0.32
0.32
0.33
0.39
0.46
0.50
0.44
0.27
0.01
-0.25
-0.43
-0.47
-0.36
-0.15
0.10
0.31
0.40
0.30
0.00
-0.50
-1.10
-1.66
-2.02
-2.04
-1.69
-1.07
-0.34
0.27
0.64
0.73
0.65
0.54
0.51
0.59
0.72
0.82
0.79
0.60
0.31
0.02
-0.16
-0.18
-0.03
0.18
0.38
0.51
0.56
0.58
0.58
0.56
0.47
0.29
0.06
-0.14
-0.27
-0.32
-0.34
-0.41
-0.56
-0.71
-0.74
-0.55
-0.15
0.31
0.57
0.49
0.06
-0.57
-1.13
-1.39
-1.29
-0.98
-0.67
-0.60
-0.84
-1.32
-1.84
-2.21
-2.34
-2.20
-1.85
-1.36
-0.79
-0.18
0.39
0.83
1.06
1.03
0.79
0.44
0.11
-0.11
-0.17
-0.14
-0.08
-0.05
-0.07
-0.10
-0.10
-0.04
0.07
0.14
0.10
-0.09
-0.43
-0.83
-1.19
-1.44
-1.58
-1.66
-1.74
-1.87
-2.05
-2.23
-2.38
-2.49
-2.57
-2.68
-2.81
-2.91
-2.91
-2.78
-2.53
-2.23
-1.92
-1.61
-1.26
-0.80
-0.21
0.43
1.03
1.49
1.78
1.97
2.14
2.36
2.63
2.90
3.07
3.12
3.07
2.97
2.89
2.83
2.78
2.67
2.43
2.05
1.60
1.18
0.91
0.83
0.91
1.06
1.16
1.17
1.08
0.94
0.80
0.67
0.55
0.44
0.39
0.48
0.72
1.12
1.55
1.91
2.08
2.02
1.77
1.41
1.00
0.62
0.28
0.02
-0.13
-0.11
0.06
0.31
0.48
0.44
0.09
-0.56
-1.36
-2.07
-2.49
-2.48
-2.09
-1.48
-0.86
-0.43
-0.23
-0.23
-0.30
-0.29
-0.12
0.21
0.60
0.93
1.13
1.19
1.14
1.07
1.01
0.97
0.94
0.88
0.80
0.70
0.58
0.44
0.28
0.11
-0.04
-0.13
-0.20
-0.25
-0.36
-0.53
-0.75
-0.93
-1.01
-0.97
-0.85
-0.74
-0.71
-0.75
-0.82
-0.83
-0.76
-0.60
-0.39
-0.21
-0.10
-0.09
-0.18
-0.37
-0.65
-0.99
-1.36
-1.71
-1.97
-2.08
-1.98
-1.66
-1.13
-0.48
0.18
0.75
1.13
1.31
1.34
1.30
1.24
1.16
1.03
0.84
0.60
0.37
0.21
0.16
0.20
0.28
0.35
0.38
0.37
0.31
0.19
0.01
-0.21
-0.42
-0.55
-0.52
-0.34
-0.07
0.23
0.45
0.56
0.57
0.50
0.38
0.21
0.03
-0.13
-0.25
-0.30
-0.29
-0.23
-0.15
-0.08
-0.04
-0.03
-0.07
-0.16
-0.28
-0.41
-0.52
-0.55
-0.49
-0.36
-0.18
0.01
0.18
0.31
0.40
0.45
0.43
0.34
0.22
0.13
0.15
0.31
0.59
0.93
1.20
1.35
1.30
1.08
0.73
0.32
-0.07
-0.38
-0.54
-0.56
-0.48
-0.36
-0.26
-0.18
-0.09
0.04
0.19
0.29
0.24
-0.03
-0.44
-0.85
-1.11
-1.14
-0.99
-0.80
-0.69
-0.70
-0.76
-0.76
-0.66
-0.50
-0.39
-0.42
-0.62
-0.91
-1.15
-1.23
-1.11
-0.79
-0.34
0.18
0.68
1.08
1.31
1.32
1.15
0.89
0.65
0.52
0.50
0.56
0.60
0.60
0.55
0.47
0.37
0.21
-0.06
-0.47
-0.95
-1.35
-1.50
-1.33
-0.90
-0.40
-0.05
0.02
-0.14
-0.39
-0.50
-0.35
0.03
0.48
0.78
0.80
0.53
0.11
-0.30
-0.57
-0.65
-0.61
-0.57
-0.65
-0.92
-1.35
-1.86
-2.36
-2.74
-2.95
-2.96
-2.81
-2.55
-2.26
-2.00
-1.79
-1.62
-1.50
-1.43
-1.45
-1.60
-1.87
-2.20
-2.47
-2.58
-2.47
-2.14
-1.69
-1.19
-0.72
-0.30
0.08
0.42
0.71
0.99
1.24
1.49
1.72
1.94
2.16
2.38
2.65
2.97
3.30
3.55
3.62
3.42
2.95
2.33
1.71
1.27
1.08
1.14
1.36
1.63
1.88
2.02
1.99
1.77
1.34
0.78
0.20
-0.25
-0.50
-0.52
-0.41
-0.27
-0.15
-0.05
0.07
0.23
0.40
0.51
0.51
0.40
0.27
0.21
0.26
0.40
0.60
0.79
0.94
1.00
0.95
0.73
0.36
-0.04
-0.30
-0.25
0.17
0.81
1.43
1.80
1.80
1.47
0.96
0.44
-0.00
-0.36
-0.64
-0.86
-0.95
-0.88
-0.64
-0.28
0.08
0.29
0.26
-0.03
-0.54
-1.14
-1.71
-2.13
-2.31
-2.23
-1.89
-1.35
-0.70
-0.05
0.48
0.81
0.93
0.86
0.68
0.47
0.27
0.11
-0.01
-0.07
-0.07
0.01
0.14
0.30
0.45
0.55
0.60
0.58
0.50
0.37
0.23
0.11
0.03
-0.04
-0.11
-0.18
-0.24
-0.21
-0.09
0.11
0.29
0.32
0.17
-0.11
-0.39
-0.54
-0.52
-0.38
-0.26
-0.27
-0.41
-0.62
-0.81
-0.92
-0.95
-0.93
-0.89
-0.85
-0.78
-0.67
-0.52
-0.35
-0.16
0.04
0.21
0.34
0.42
0.44
0.45
0.50
0.63
0.81
0.97
1.02
0.91
0.66
0.36
0.10
-0.04
-0.06
0.03
0.19
0.38
0.57
0.72
0.81
0.82
0.75
0.64
0.52
0.42
0.36
0.36
0.41
0.53
0.69
0.82
0.85
0.72
0.43
0.06
-0.31
-0.59
-0.76
-0.83
-0.85
-0.81
-0.75
-0.64
-0.50
-0.38
-0.29
-0.26
-0.25
-0.25
-0.24
-0.27
-0.35
-0.48
-0.58
-0.53
-0.25
0.22
0.71
1.03
1.06
0.82
0.48
0.23
0.17
0.28
0.43
0.49
0.42
0.26
0.10
-0.01
-0.09
-0.19
-0.35
-0.56
-0.76
-0.88
-0.87
-0.74
-0.56
-0.39
-0.28
-0.24
-0.28
-0.39
-0.56
-0.80
-1.06
-1.33
-1.55
-1.69
-1.71
-1.61
-1.36
-0.94
-0.36
0.35
1.06
1.61
1.85
1.72
1.29
0.75
0.30
0.01
-0.13
-0.24
-0.40
-0.54
-0.56
-0.30
0.24
0.89
1.43
1.63
1.43
0.92
0.31
-0.24
-0.65
-0.96
-1.23
-1.53
-1.86
-2.19
-2.47
-2.68
-2.79
-2.82
-2.78
-2.74
-2.71
-2.75
-2.86
-3.05
-3.31
-3.59
-3.83
-3.99
-4.00
-3.82
-3.44
-2.88
-2.20
-1.44
-0.64
0.16
0.95
1.70
2.41
3.03
3.52
3.84
3.96
3.86
3.59
3.23
2.85
2.56
2.39
2.38
2.50
2.68
2.86
2.96
2.91
2.70
2.34
1.89
1.46
1.11
0.87
0.75
0.72
0.75
0.83
0.96
1.11
1.26
1.33
1.27
1.05
0.66
0.16
-0.35
-0.79
-1.13
-1.33
-1.42
-1.41
-1.31
-1.11
-0.80
-0.39
0.08
0.50
0.80
0.94
0.93
0.84
0.72
0.59
0.47
0.33
0.20
0.09
0.06
0.08
0.13
0.13
0.04
-0.12
-0.29
-0.40
-0.42
-0.33
-0.17
0.03
0.26
0.48
0.66
0.76
0.78
0.73
0.67
0.64
0.63
0.58
0.42
0.15
-0.17
-0.44
-0.60
-0.72
-0.91
-1.28
-1.83
-2.41
-2.78
-2.76
-2.28
-1.46
-0.56
0.20
0.67
0.85
0.82
0.73
0.63
0.58
0.54
0.53
0.54
0.59
0.71
0.90
1.12
1.27
1.26
1.01
0.51
-0.13
-0.77
-1.22
-1.38
-1.21
-0.81
-0.33
0.07
0.26
0.24
0.08
-0.10
-0.21
-0.22
-0.18
-0.18
-0.25
-0.37
-0.49
-0.56
-0.59
-0.64
-0.75
-0.92
-1.06
-1.07
-0.88
-0.54
-0.14
0.22
0.48
0.65
0.75
0.78
0.73
0.56
0.30
0.06
-0.05
0.06
0.34
0.65
0.83
0.79
0.56
0.26
0.03
-0.02
0.13
0.38
0.60
0.67
0.54
0.26
-0.07
-0.34
-0.47
-0.43
-0.27
-0.05
0.13
0.22
0.17
0.02
-0.20
-0.42
-0.58
-0.63
-0.56
-0.44
-0.37
-0.46
-0.71
-1.07
-1.41
-1.59
-1.53
-1.23
-0.78
-0.26
0.24
0.68
1.00
1.17
1.16
0.96
0.65
0.31
0.09
0.05
0.21
0.49
0.82
1.11
1.31
1.38
1.28
1.02
0.60
0.09
-0.42
-0.82
-1.01
-0.93
-0.61
-0.15
0.34
0.69
0.82
0.69
0.40
0.06
-0.16
-0.19
-0.04
0.21
0.47
0.67
0.77
0.75
0.54
0.13
-0.46
-1.06
-1.49
-1.56
-1.23
-0.63
0.00
0.42
0.53
0.36
0.05
-0.27
-0.53
-0.71
-0.85
-0.93
-0.92
-0.82
-0.65
-0.44
-0.27
-0.15
-0.08
-0.01
0.07
0.18
0.28
0.32
0.24
0.02
-0.29
-0.63
-0.89
-0.99
-0.92
-0.73
-0.51
-0.37
-0.40
-0.63
-1.03
-1.52
-2.03
-2.49
-2.82
-3.03
-3.12
-3.14
-3.16
-3.23
-3.37
-3.59
-3.84
-4.05
-4.15
-4.04
-3.67
-3.02
-2.08
-0.92
0.39
1.71
2.88
3.75
4.26
4.43
4.38
4.22
4.05
3.86
3.58
3.15
2.59
2.02
1.58
1.36
1.38
1.54
1.73
1.86
1.91
1.90
1.84
1.73
1.55
1.33
1.16
1.13
1.29
1.56
1.79
1.82
1.57
1.09
0.58
0.22
0.09
0.15
0.24
0.21
0.02
-0.29
-0.62
-0.90
-1.17
-1.45
-1.77
-2.05
-2.16
-1.98
-1.48
-0.80
-0.13
0.33
0.50
0.47
0.38
0.38
0.52
0.73
0.90
0.94
0.83
0.59
0.33
0.17
0.18
0.43
0.85
1.31
1.64
1.67
1.34
0.73
0.01
-0.60
-0.95
-1.01
-0.81
-0.47
-0.09
0.26
0.49
0.56
0.44
0.16
-0.21
-0.55
-0.73
-0.66
-0.31
0.23
0.79
1.20
1.31
1.06
0.49
-0.27
-1.01
-1.56
-1.77
-1.60
-1.13
-0.49
0.13
0.59
0.81
0.81
0.64
0.40
0.15
-0.07
-0.25
-0.34
-0.32
-0.18
0.07
0.35
0.58
0.69
0.65
0.47
0.23
0.00
-0.20
-0.38
-0.55
-0.71
-0.81
-0.79
-0.61
-0.31
0.02
0.31
0.48
0.54
0.52
0.48
0.42
0.35
0.26
0.16
0.06
0.01
0.00
-0.02
-0.14
-0.43
-0.91
-1.51
-2.10
-2.51
-2.62
-2.40
-1.92
-1.27
-0.58
0.10
0.74
1.34
1.81
2.06
1.99
1.57
0.90
0.15
-0.47
-0.82
-0.87
-0.68
-0.35
0.00
0.33
0.58
0.71
0.68
0.47
0.14
-0.21
-0.45
-0.52
-0.41
-0.22
-0.07
-0.02
-0.05
-0.09
-0.04
0.09
0.24
0.33
0.32
0.21
0.08
-0.04
-0.13
-0.20
-0.28
-0.38
-0.48
-0.56
-0.64
-0.76
-0.95
-1.18
-1.38
-1.43
-1.28
-0.94
-0.48
-0.02
0.36
0.62
0.72
0.69
0.56
0.39
0.25
0.19
0.28
0.51
0.81
1.08
1.24
1.25
1.12
0.92
0.73
0.61
0.55
0.50
0.39
0.18
-0.11
-0.39
-0.54
-0.53
-0.40
-0.26
-0.23
-0.36
-0.59
-0.79
-0.86
-0.75
-0.54
-0.33
-0.23
-0.28
-0.47
-0.70
-0.85
-0.81
-0.54
-0.14
0.25
0.44
0.34
0.04
-0.27
-0.35
-0.10
0.40
0.93
1.23
1.20
0.87
0.45
0.13
-0.01
-0.01
-0.02
-0.12
-0.29
-0.44
-0.48
-0.39
-0.26
-0.19
-0.26
-0.43
-0.59
-0.62
-0.48
-0.24
0.00
0.13
0.09
-0.08
-0.31
-0.54
-0.74
-0.88
-0.97
-0.96
-0.87
-0.74
-0.62
-0.60
-0.77
-1.11
-1.58
-2.08
-2.51
-2.84
-3.05
-3.18
-3.29
-3.40
-3.52
-3.60
-3.58
-3.43
-3.11
-2.66
-2.10
-1.49
-0.84
-0.16
0.52
1.17
1.75
2.21
2.52
2.72
2.85
2.99
3.13
3.26
3.29
3.17
2.91
2.63
2.44
2.44
2.60
2.78
2.78
2.48
1.89
1.16
0.50
0.09
-0.03
0.05
0.21
0.37
0.51
0.66
0.82
0.94
0.94
0.78
0.50
0.20
0.01
-0.00
0.12
0.27
0.33
0.26
0.09
-0.10
-0.23
-0.29
-0.31
-0.35
-0.44
-0.53
-0.59
-0.58
-0.50
-0.41
-0.34
-0.29
-0.23
-0.11
0.08
0.31
0.52
0.64
0.68
0.68
0.70
0.82
1.02
1.24
1.39
1.40
1.24
0.94
0.59
0.28
0.09
0.02
0.02
0.01
-0.07
-0.23
-0.42
-0.57
-0.60
-0.51
-0.32
-0.10
0.09
0.20
0.18
0.06
-0.14
-0.33
-0.41
-0.31
-0.03
0.30
0.53
0.53
0.27
-0.16
-0.62
-0.99
-1.22
-1.33
-1.31
-1.15
-0.82
-0.33
0.21
0.66
0.90
0.89
0.71
0.48
0.31
0.22
0.19
0.18
0.17
0.13
0.05
-0.09
-0.29
-0.51
-0.65
-0.61
-0.39
-0.03
0.31
0.50
0.49
0.32
0.09
-0.05
-0.03
0.17
0.53
0.96
1.35
1.62
1.65
1.44
1.00
0.43
-0.15
-0.64
-0.99
-1.17
-1.18
-1.07
-0.89
-0.78
-0.84
-1.14
-1.64
-2.17
-2.52
-2.51
-2.09
-1.39
-0.61
0.03
0.43
0.61
0.72
0.88
1.11
1.36
1.49
1.41
1.11
0.64
0.12
-0.33
-0.63
-0.70
-0.52
-0.12
0.39
0.85
1.08
1.00
0.63
0.14
-0.28
-0.53
-0.58
-0.54
-0.51
-0.54
-0.61
-0.63
-0.58
-0.46
-0.35
-0.30
-0.36
-0.47
-0.57
-0.63
-0.64
-0.60
-0.56
-0.51
-0.47
-0.41
-0.34
-0.25
-0.10
0.10
0.39
0.71
1.02
1.21
1.23
1.07
0.83
0.64
0.61
0.75
0.97
1.12
1.07
0.75
0.25
-0.30
-0.74
-0.96
-0.94
-0.77
-0.56
-0.41
-0.38
-0.45
-0.57
-0.66
-0.63
-0.47
-0.22
0.05
0.26
0.38
0.43
0.45
0.49
0.58
0.71
0.84
0.95
1.00
0.98
0.85
0.61
0.28
-0.08
-0.40
-0.61
-0.68
-0.64
-0.53
-0.39
-0.25
-0.11
0.01
0.12
0.20
0.24
0.24
0.19
0.11
0.02
-0.04
-0.02
0.11
0.31
0.49
0.51
0.29
-0.12
-0.58
-0.87
-0.85
-0.54
-0.06
0.37
0.61
0.62
0.50
0.36
0.30
0.30
0.29
0.21
0.02
-0.25
-0.53
-0.73
-0.84
-0.88
-0.91
-0.97
-1.05
-1.10
-1.07
-0.92
-0.69
-0.43
-0.20
-0.04
0.05
0.10
0.17
0.28
0.45
0.65
0.84
0.98
1.04
0.99
0.83
0.58
0.27
-0.08
-0.42
-0.69
-0.84
-0.81
-0.63
-0.37
-0.12
0.03
0.06
-0.01
-0.09
-0.14
-0.13
-0.09
-0.07
-0.08
-0.13
-0.23
-0.38
-0.63
-0.99
-1.42
-1.86
-2.17
-2.27
-2.13
-1.82
-1.49
-1.28
-1.32
-1.63
-2.18
-2.84
-3.47
-3.93
-4.12
-4.00
-3.62
-3.09
-2.52
-1.99
-1.53
-1.10
-0.68
-0.23
0.28
0.83
1.42
2.05
2.70
3.29
3.74
3.97
3.98
3.84
3.68
3.61
3.66
3.74
3.71
3.47
2.97
2.30
1.60
1.03
0.70
0.65
0.81
1.09
1.37
1.56
1.61
1.49
1.25
0.94
0.61
0.30
0.06
-0.11
-0.20
-0.22
-0.20
-0.22
-0.36
-0.67
-1.12
-1.59
-1.86
-1.74
-1.16
-0.18
0.93
1.84
2.33
2.32
1.93
1.41
0.99
0.79
0.81
0.91
0.96
0.86
0.60
0.21
-0.23
-0.61
-0.88
-0.96
-0.86
-0.61
-0.30
-0.04
0.09
0.07
-0.09
-0.34
-0.59
-0.76
-0.80
-0.67
-0.42
-0.11
0.14
0.25
0.18
-0.03
-0.30
-0.52
-0.63
-0.61
-0.53
-0.46
-0.50
-0.68
-1.02
-1.43
-1.79
-1.94
-1.81
-1.40
-0.84
-0.29
0.11
0.32
0.39
0.41
0.45
0.56
0.70
0.84
0.94
1.02
1.09
1.17
1.23
1.20
1.03
0.73
0.37
0.06
-0.08
-0.03
0.15
0.31
0.32
0.14
-0.21
-0.61
-0.95
-1.18
-1.31
-1.37
-1.39
-1.37
-1.31
-1.19
-1.00
-0.73
-0.37
0.05
0.47
0.81
1.00
1.01
0.86
0.62
0.37
0.12
-0.12
-0.36
-0.57
-0.69
-0.69
-0.52
-0.25
0.05
0.30
0.46
0.52
0.53
0.53
0.56
0.64
0.72
0.77
0.71
0.51
0.17
-0.23
-0.56
-0.70
-0.58
-0.25
0.18
0.55
0.77
0.83
0.74
0.58
0.39
0.21
0.04
-0.07
-0.10
-0.01
0.13
0.23
0.19
-0.01
-0.32
-0.58
-0.68
-0.56
-0.29
0.02
0.23
0.26
0.08
-0.27
-0.68
-1.07
-1.32
-1.37
-1.22
-0.92
-0.59
-0.32
-0.14
0.01
0.21
0.50
0.84
1.14
1.30
1.26
1.10
0.93
0.84
0.83
0.85
0.82
0.70
0.52
0.35
0.22
0.14
0.06
-0.09
-0.30
-0.52
-0.67
-0.68
-0.51
-0.22
0.11
0.38
0.51
0.48
0.28
-0.03
-0.37
-0.65
-0.83
-0.84
-0.66
-0.31
0.18
0.68
1.01
0.99
0.56
-0.21
-1.10
-1.82
-2.16
-2.06
-1.65
-1.12
-0.67
-0.37
-0.21
-0.12
-0.04
0.07
0.19
0.31
0.40
0.47
0.49
0.50
0.49
0.50
0.54
0.65
0.81
1.02
1.22
1.31
1.24
0.99
0.59
0.12
-0.30
-0.62
-0.83
-0.95
-1.03
-1.08
-1.09
-1.05
-0.96
-0.88
-0.81
-0.73
-0.60
-0.37
-0.06
0.24
0.47
0.57
0.56
0.49
0.38
0.25
0.05
-0.26
-0.67
-1.10
-1.44
-1.58
-1.46
-1.12
-0.65
-0.15
0.28
0.60
0.80
0.91
0.95
0.92
0.81
0.62
0.37
0.15
0.04
0.09
0.29
0.58
0.85
1.01
1.02
0.91
0.73
0.55
0.36
0.17
-0.04
-0.25
-0.39
-0.41
-0.32
-0.16
-0.01
0.05
0.01
-0.09
-0.18
-0.21
-0.17
-0.11
-0.07
-0.09
-0.22
-0.43
-0.75
-1.13
-1.56
-1.95
-2.22
-2.28
-2.06
-1.59
-0.96
-0.33
0.14
0.37
0.35
0.20
0.04
-0.05
-0.07
-0.12
-0.27
-0.55
-0.93
-1.31
-1.62
-1.81
-1.91
-1.96
-2.00
-2.03
-2.08
-2.13
-2.20
-2.27
-2.32
-2.32
-2.25
-2.15
-2.03
-1.92
-1.81
-1.68
-1.47
-1.17
-0.79
-0.34
0.19
0.79
1.44
2.11
2.70
3.14
3.35
3.34
3.18
2.93
2.65
2.37
2.08
1.79
1.53
1.36
1.30
1.33
1.37
1.33
1.18
0.92
0.64
0.45
0.41
0.54
0.76
0.97
1.12
1.15
1.09
0.95
0.76
0.54
0.31
0.11
0.04
0.14
0.44
0.87
1.29
1.55
1.50
1.13
0.53
-0.15
-0.73
-1.06
-1.10
-0.90
-0.57
-0.25
-0.06
-0.02
-0.08
-0.16
-0.21
-0.20
-0.17
-0.16
-0.17
-0.20
-0.24
-0.32
-0.50
-0.84
-1.31
-1.78
-2.06
-2.01
-1.56
-0.79
0.12
0.99
1.65
2.04
2.13
1.96
1.60
1.14
0.67
0.30
0.10
0.10
0.25
0.47
0.66
0.75
0.73
0.64
0.54
0.48
0.46
0.44
0.35
0.16
-0.11
-0.38
-0.54
-0.55
-0.40
-0.16
0.09
0.29
0.41
0.48
0.51
0.51
0.47
0.37
0.26
0.18
0.17
0.21
0.25
0.19
-0.00
-0.31
-0.63
-0.87
-0.94
-0.83
-0.54
-0.13
0.35
0.82
1.18
1.32
1.20
0.82
0.33
-0.13
-0.41
-0.48
-0.38
-0.18
0.02
0.18
0.30
0.38
0.44
0.45
0.41
0.32
0.21
0.12
0.07
0.08
0.11
0.15
0.17
0.17
0.14
0.02
-0.20
-0.51
-0.82
-1.02
-1.00
-0.79
-0.52
-0.39
-0.53
-0.93
-1.45
-1.86
-2.00
-1.82
-1.44
-0.99
-0.61
-0.30
-0.04
0.24
0.53
0.80
0.99
1.07
1.07
1.02
0.99
0.99
0.96
0.83
0.56
0.18
-0.20
-0.44
-0.43
-0.18
0.23
0.63
0.89
0.93
0.79
0.55
0.31
0.09
-0.10
-0.27
-0.43
-0.54
-0.58
-0.53
-0.40
-0.24
-0.13
-0.13
-0.24
-0.44
-0.64
-0.76
-0.76
-0.63
-0.40
-0.17
-0.02
-0.04
-0.26
-0.65
-1.12
-1.52
-1.73
-1.68
-1.37
-0.87
-0.28
0.32
0.85
1.30
1.64
1.83
1.86
1.71
1.45
1.15
0.88
0.65
0.44
0.21
-0.03
-0.21
-0.26
-0.15
0.09
0.35
0.53
0.56
0.45
0.28
0.10
-0.08
-0.26
-0.47
-0.69
-0.87
-0.95
-0.92
-0.79
-0.63
-0.50
-0.43
-0.40
-0.35
-0.24
-0.05
0.18
0.37
0.47
0.43
0.28
0.06
-0.18
-0.41
-0.61
-0.77
-0.84
-0.78
-0.55
-0.17
0.28
0.68
0.94
0.99
0.88
0.69
0.53
0.46
0.48
0.52
0.53
0.47
0.36
0.22
0.12
0.08
0.09
0.13
0.16
0.14
0.06
-0.07
-0.23
-0.36
-0.42
-0.38
-0.22
0.01
0.26
0.45
0.54
0.51
0.38
0.16
-0.10
-0.37
-0.59
-0.71
-0.69
-0.53
-0.28
-0.03
0.14
0.16
0.03
-0.21
-0.52
-0.83
-1.11
-1.34
-1.51
-1.59
-1.58
-1.46
-1.27
-1.02
-0.73
-0.41
-0.08
0.26
0.56
0.80
0.97
1.06
1.12
1.16
1.17
1.13
1.03
0.90
0.78
0.73
0.75
0.76
0.68
0.44
0.08
-0.27
-0.47
-0.39
-0.08
0.32
0.64
0.75
0.62
0.37
0.14
-0.00
-0.05
-0.13
-0.31
-0.60
-0.88
-1.01
-0.87
-0.47
0.07
0.53
0.74
0.62
0.23
-0.31
-0.86
-1.31
-1.62
-1.77
-1.72
-1.47
-1.02
-0.44
0.17
0.68
1.02
1.14
1.08
0.93
0.80
0.76
0.83
0.96
1.07
1.03
0.80
0.38
-0.11
-0.55
-0.82
-0.90
-0.84
-0.75
-0.73
-0.77
-0.85
-0.90
-0.91
-0.88
-0.83
-0.76
-0.66
-0.51
-0.38
-0.33
-0.48
-0.83
-1.33
-1.83
-2.19
-2.32
-2.24
-2.07
-1.93
-1.97
-2.22
-2.67
-3.23
-3.77
-4.18
-4.40
-4.43
-4.29
-4.03
-3.63
-3.03
-2.17
-1.05
0.23
1.48
2.51
3.23
3.62
3.78
3.77
3.65
3.43
3.15
2.91
2.81
2.96
3.33
3.79
4.13
4.16
3.81
3.15
2.35
1.60
1.03
0.72
0.66
0.77
0.96
1.13
1.19
1.14
0.97
0.71
0.38
0.01
-0.34
-0.61
-0.70
-0.55
-0.19
0.27
0.69
0.98
1.08
1.03
0.86
0.58
0.20
-0.29
-0.82
-1.29
-1.60
-1.68
-1.54
-1.26
-0.93
-0.60
-0.27
0.09
0.50
0.90
1.18
1.23
0.99
0.56
0.08
-0.23
-0.27
-0.03
0.36
0.73
1.00
1.14
1.21
1.23
1.18
1.02
0.73
0.37
0.05
-0.18
-0.31
-0.43
-0.60
-0.82
-1.00
-1.05
-0.93
-0.71
-0.51
-0.47
-0.58
-0.75
-0.81
-0.66
-0.28
0.17
0.52
0.65
0.49
0.14
-0.30
-0.69
-0.98
-1.13
-1.14
-1.01
-0.72
-0.27
0.27
0.79
1.18
1.35
1.34
1.24
1.15
1.15
1.20
1.22
1.12
0.86
0.50
0.12
-0.16
-0.30
-0.28
-0.16
-0.01
0.09
0.11
0.04
-0.10
-0.25
-0.38
-0.48
-0.55
-0.60
-0.62
-0.59
-0.50
-0.38
-0.30
-0.31
-0.44
-0.63
-0.77
-0.76
-0.55
-0.19
0.20
0.48
0.56
0.41
0.07
-0.35
-0.75
-1.04
-1.18
-1.19
-1.11
-0.97
-0.80
-0.57
-0.30
0.02
0.34
0.62
0.79
0.82
0.68
0.41
0.07
-0.25
-0.41
-0.32
0.04
0.61
1.23
1.71
1.92
1.81
1.47
1.04
0.63
0.33
0.16
0.11
0.14
0.23
0.32
0.39
0.42
0.42
0.39
0.36
0.31
0.22
0.09
-0.08
-0.26
-0.41
-0.51
-0.55
-0.57
-0.63
-0.76
-0.97
-1.22
-1.44
-1.57
-1.54
-1.34
-1.02
-0.65
-0.36
-0.21
-0.22
-0.33
-0.44
-0.46
-0.38
-0.18
0.07
0.33
0.59
0.84
1.05
1.20
1.23
1.08
0.77
0.37
-0.03
-0.32
-0.47
-0.50
-0.48
-0.47
-0.48
-0.52
-0.54
-0.55
-0.54
-0.54
-0.53
-0.50
-0.40
-0.24
-0.06
0.04
-0.02
-0.30
-0.77
-1.35
-1.92
-2.38
-2.65
-2.71
-2.60
-2.39
-2.18
-2.08
-2.16
-2.42
-2.83
-3.28
-3.67
-3.87
-3.79
-3.37
-2.60
-1.54
-0.33
0.84
1.81
2.47
2.81
2.90
2.86
2.78
2.73
2.70
2.70
2.67
2.61
2.49
2.32
2.10
1.89
1.73
1.65
1.66
1.70
1.71
1.65
1.54
1.45
1.41
1.44
1.48
1.45
1.31
1.07
0.79
0.52
0.28
0.02
-0.25
-0.52
-0.68
-0.65
-0.45
-0.20
-0.10
-0.32
-0.84
-1.48
-2.01
-2.21
-2.05
-1.59
-1.01
-0.43
0.11
0.60
1.05
1.41
1.59
1.48
1.05
0.41
-0.24
-0.65
-0.65
-0.21
0.52
1.30
1.86
2.05
1.85
1.39
0.83
0.31
-0.11
-0.42
-0.60
-0.66
-0.57
-0.33
-0.03
0.24
0.35
0.29
0.13
-0.04
-0.12
-0.14
-0.16
-0.25
-0.41
-0.53
-0.49
-0.23
0.17
0.53
0.65
0.48
0.09
-0.39
-0.83
-1.17
-1.43
-1.63
-1.75
-1.74
-1.54
-1.14
-0.59
-0.03
0.44
0.73
0.83
0.78
0.66
0.53
0.42
0.34
0.30
0.30
0.35
0.47
0.63
0.74
0.73
0.55
0.25
-0.06
-0.23
-0.19
0.06
0.39
0.67
0.82
0.83
0.78
0.74
0.74
0.74
0.68
0.51
0.23
-0.12
-0.47
-0.76
-0.94
-1.00
-0.92
-0.72
-0.43
-0.10
0.17
0.28
0.19
-0.06
-0.35
-0.55
-0.58
-0.43
-0.20
0.04
0.22
0.37
0.57
0.87
1.24
1.55
1.67
1.48
1.03
0.44
-0.09
-0.41
-0.45
-0.27
0.00
0.25
0.38
0.36
0.22
-0.01
-0.26
-0.49
-0.65
-0.68
-0.57
-0.36
-0.13
0.02
0.05
-0.03
-0.11
-0.08
0.12
0.48
0.87
1.17
1.26
1.09
0.71
0.19
-0.37
-0.89
-1.32
-1.64
-1.85
-1.95
-1.94
-1.84
-1.67
-1.48
-1.30
-1.14
-1.00
-0.84
-0.66
-0.43
-0.20
0.01
0.15
0.21
0.21
0.15
0.06
-0.07
-0.26
-0.49
-0.76
-1.01
-1.20
-1.32
-1.41
-1.53
-1.73
-2.05
-2.44
-2.84
-3.17
-3.37
-3.43
-3.33
-3.10
-2.75
-2.30
-1.78
-1.21
-0.66
-0.14
0.32
0.76
1.21
1.69
2.19
2.66
3.01
3.17
3.12
2.89
2.56
2.21
1.91
1.68
1.56
1.54
1.59
1.67
1.68
1.55
1.25
0.82
0.37
0.03
-0.10
-0.01
0.24
0.58
0.92
1.21
1.43
1.56
1.61
1.59
1.51
1.38
1.23
1.07
0.95
0.90
0.93
1.03
1.14
1.17
1.10
0.94
0.74
0.57
0.46
0.35
0.19
-0.09
-0.44
-0.74
-0.88
-0.84
-0.65
-0.47
-0.39
-0.43
-0.53
-0.57
-0.51
-0.37
-0.26
-0.25
-0.38
-0.57
-0.74
-0.81
-0.76
-0.68
-0.63
-0.67
-0.76
-0.83
-0.79
-0.57
-0.22
0.18
0.53
0.75
0.80
0.70
0.49
0.22
-0.06
-0.28
-0.40
-0.38
-0.20
0.11
0.50
0.89
1.23
1.43
1.42
1.18
0.74
0.21
-0.25
-0.52
-0.56
-0.45
-0.30
-0.18
-0.09
0.06
0.34
0.72
1.08
1.27
1.22
0.94
0.55
0.18
-0.11
-0.32
-0.53
-0.80
-1.11
-1.38
-1.55
-1.57
-1.52
-1.52
-1.69
-2.05
-2.51
-2.88
-2.95
-2.58
-1.78
-0.73
0.33
1.16
1.64
1.76
1.62
1.35
1.08
0.84
0.63
0.44
0.26
0.14
0.13
0.25
0.47
0.65
0.67
0.44
-0.00
-0.53
-0.94
-1.10
-0.97
-0.61
-0.19
0.13
0.28
0.23
0.05
-0.18
-0.37
-0.45
-0.40
-0.24
-0.05
0.13
0.26
0.35
0.44
0.53
0.56
0.46
0.16
-0.31
-0.83
-1.23
-1.45
-1.55
-1.68
-1.95
-2.37
-2.79
-3.00
-2.88
-2.46
-1.95
-1.60
-1.56
-1.80
-2.18
-2.50
-2.64
-2.60
-2.49
-2.41
-2.42
-2.46
-2.42
-2.19
-1.69
-0.98
-0.16
0.63
1.31
1.84
2.27
2.62
2.93
3.16
3.31
3.35
3.30
3.22
3.16
3.17
3.20
3.18
2.98
2.54
1.89
1.15
0.51
0.13
0.03
0.17
0.43
0.69
0.90
1.05
1.13
1.13
1.02
0.78
0.44
0.08
-0.18
-0.21
-0.01
0.36
0.78
1.10
1.26
1.23
1.06
0.83
0.61
0.45
0.32
0.21
0.06
-0.14
-0.37
-0.56
-0.62
-0.49
-0.16
0.31
0.78
1.08
1.11
0.87
0.46
0.03
-0.25
-0.31
-0.13
0.21
0.58
0.85
0.95
0.87
0.68
0.45
0.24
0.04
-0.18
-0.45
-0.76
-1.03
-1.21
-1.27
-1.25
-1.23
-1.29
-1.42
-1.61
-1.78
-1.86
-1.84
-1.70
-1.45
-1.09
-0.61
-0.04
0.55
1.06
1.38
1.46
1.31
1.02
0.73
0.53
0.46
0.48
0.49
0.45
0.38
0.35
0.42
0.60
0.82
0.97
0.97
0.82
0.57
0.29
0.04
-0.16
-0.29
-0.33
-0.28
-0.13
0.09
0.28
0.34
0.23
-0.03
-0.31
-0.47
-0.43
-0.21
0.02
0.10
-0.05
-0.39
-0.75
-1.00
-1.06
-1.02
-1.06
-1.28
-1.66
-2.00
-2.06
-1.71
-1.04
-0.27
0.33
0.64
0.70
0.65
0.63
0.69
0.74
0.73
0.66
0.58
0.60
0.73
0.91
0.99
0.86
0.52
0.08
-0.27
-0.38
-0.20
0.23
0.73
1.14
1.32
1.23
0.92
0.49
0.06
-0.29
-0.52
-0.62
-0.62
-0.52
-0.36
-0.15
0.06
0.22
0.29
0.20
-0.06
-0.47
-0.96
-1.44
-1.80
-1.99
-1.99
-1.86
-1.67
-1.45
-1.22
-0.94
-0.61
-0.20
0.24
0.67
1.04
1.29
1.43
1.48
1.47
1.43
1.37
1.31
1.22
1.11
0.99
0.89
0.79
0.66
0.44
0.09
-0.37
-0.90
-1.38
-1.71
-1.83
-1.73
-1.47
-1.15
-0.87
-0.69
-0.66
-0.75
-0.92
-1.11
-1.24
-1.29
-1.29
-1.33
-1.47
-1.76
-2.18
-2.66
-3.11
-3.48
-3.74
-3.91
-3.95
-3.84
-3.54
-3.05
-2.41
-1.70
-0.98
-0.27
0.46
1.27
2.14
2.99
3.70
4.12
4.18
3.90
3.39
2.80
2.26
1.89
1.76
1.84
2.11
2.46
2.76
2.89
2.80
2.46
1.95
1.36
0.84
0.49
0.36
0.42
0.57
0.70
0.70
0.53
0.26
-0.04
-0.26
-0.33
-0.26
-0.09
0.13
0.35
0.56
0.75
0.88
0.88
0.66
0.18
-0.52
-1.25
-1.81
-2.02
-1.86
-1.43
-0.93
-0.50
-0.19
0.04
0.27
0.48
0.62
0.56
0.29
-0.12
-0.48
-0.64
-0.52
-0.18
0.26
0.68
0.99
1.16
1.20
1.10
0.91
0.68
0.46
0.31
0.24
0.25
0.31
0.41
0.53
0.67
0.80
0.88
0.91
0.87
0.78
0.66
0.50
0.26
-0.03
-0.35
-0.62
-0.75
-0.71
-0.56
-0.39
-0.31
-0.40
-0.66
-1.01
-1.35
-1.56
-1.61
-1.49
-1.21
-0.82
-0.34
0.19
0.68
1.07
1.27
1.27
1.14
0.96
0.85
0.82
0.85
0.90
0.93
0.94
0.93
0.88
0.76
0.53
0.20
-0.18
-0.52
-0.73
-0.77
-0.65
-0.40
-0.07
0.32
0.71
0.99
1.08
0.88
0.40
-0.26
-0.92
-1.41
-1.62
-1.56
-1.31
-0.99
-0.69
-0.49
-0.40
-0.45
-0.65
-0.99
-1.41
-1.79
-2.00
-1.95
-1.63
-1.13
-0.57
-0.07
0.30
0.55
0.71
0.79
0.79
0.74
0.67
0.62
0.65
0.73
0.80
0.75
0.55
0.25
-0.03
-0.16
-0.07
0.17
0.43
0.61
0.65
0.60
0.54
0.50
0.45
0.34
0.14
-0.12
-0.32
-0.37
-0.27
-0.12
-0.08
-0.27
-0.69
-1.21
-1.64
-1.83
-1.71
-1.34
-0.89
-0.52
-0.31
-0.28
-0.34
-0.38
-0.34
-0.24
-0.12
-0.02
0.05
0.12
0.22
0.36
0.49
0.56
0.54
0.43
0.29
0.17
0.10
0.12
0.22
0.39
0.59
0.73
0.73
0.56
0.25
-0.08
-0.31
-0.38
-0.34
-0.30
-0.38
-0.56
-0.76
-0.84
-0.74
-0.51
-0.29
-0.27
-0.52
-0.97
-1.44
-1.78
-1.91
-1.87
-1.76
-1.71
-1.74
-1.85
-2.01
-2.16
-2.32
-2.47
-2.63
-2.75
-2.77
-2.64
-2.31
-1.81
-1.18
-0.52
0.12
0.69
1.21
1.68
2.12
2.50
2.81
3.01
3.12
3.15
3.13
3.10
3.05
2.96
2.81
2.60
2.34
2.03
1.71
1.40
1.16
1.03
1.04
1.16
1.35
1.52
1.59
1.51
1.26
0.90
0.53
0.27
0.22
0.42
0.80
1.21
1.51
1.58
1.42
1.09
0.72
0.36
0.09
-0.05
-0.03
0.19
0.58
1.00
1.27
1.24
0.87
0.26
-0.36
-0.82
-1.02
-1.01
-0.94
-0.92
-1.01
-1.14
-1.23
-1.19
-0.99
-0.70
-0.40
-0.15
-0.03
-0.01
-0.08
-0.17
-0.23
-0.24
-0.20
-0.19
-0.22
-0.31
-0.42
-0.48
-0.44
-0.32
-0.20
-0.20
-0.39
-0.76
-1.16
-1.42
-1.46
-1.31
-1.09
-0.95
-0.97
-1.12
-1.32
-1.45
-1.46
-1.33
-1.11
-0.86
-0.58
-0.28
0.04
0.39
0.72
0.96
1.07
0.99
0.77
0.50
0.31
0.33
0.57
0.96
1.35
1.60
1.66
1.54
1.34
1.14
0.95
0.77
0.56
0.32
0.08
-0.09
-0.15
-0.11
-0.02
0.03
-0.01
-0.18
-0.43
-0.67
-0.79
-0.72
-0.50
-0.21
0.01
0.07
-0.05
-0.26
-0.47
-0.63
-0.71
-0.76
-0.79
-0.78
-0.71
-0.53
-0.29
-0.03
0.18
0.30
0.34
0.33
0.29
0.23
0.12
-0.02
-0.14
-0.22
-0.23
-0.15
-0.02
0.16
0.40
0.71
1.06
1.35
1.48
1.34
0.97
0.48
0.06
-0.17
-0.17
-0.01
0.18
0.33
0.39
0.37
0.27
0.07
-0.24
-0.63
-1.02
-1.29
-1.34
-1.19
-0.91
-0.68
-0.62
-0.83
-1.27
-1.84
-2.39
-2.74
-2.78
-2.48
-1.89
-1.15
-0.46
0.02
0.16
-0.04
-0.47
-0.98
-1.39
-1.61
-1.62
-1.50
-1.37
-1.34
-1.45
-1.66
-1.90
-2.10
-2.21
-2.19
-2.03
-1.72
-1.26
-0.66
0.02
0.72
1.36
1.89
2.29
2.53
2.62
2.58
2.45
2.28
2.12
2.00
1.93
1.86
1.74
1.53
1.18
0.69
0.12
-0.46
-0.93
-1.18
-1.17
-0.92
-0.55
-0.22
-0.05
-0.04
-0.08
-0.00
0.30
0.81
1.38
1.80
1.94
1.82
1.54
1.25
1.06
0.98
0.96
0.94
0.91
0.90
0.92
0.96
0.97
0.86
0.60
0.22
-0.22
-0.59
-0.80
-0.81
-0.62
-0.28
0.12
0.49
0.77
0.90
0.87
0.69
0.40
0.05
-0.31
-0.61
-0.82
-0.93
-0.99
-1.06
-1.21
-1.44
-1.65
-1.70
-1.43
-0.80
0.15
1.21
2.17
2.87
3.25
3.39
3.41
3.35
3.19
2.77
1.98
0.79
-0.63
-2.03
-3.13
-3.72
-3.78
-3.39
-2.72
-1.92
-1.07
-0.20
0.66
1.44
2.04
2.34
2.25
1.78
1.04
0.17
-0.72
-1.53
-2.19
-2.64
-2.79
-2.60
-2.09
-1.39
-0.71
-0.27
-0.17
-0.39
-0.78
-1.13
-1.28
-1.17
-0.85
-0.39
0.12
0.66
1.22
1.78
2.28
2.64
2.73
2.49
1.92
1.09
0.15
-0.76
-1.51
-2.09
-2.50
-2.76
-2.85
-2.69
-2.24
-1.50
-0.57
0.31
0.93
1.17
1.05
0.75
0.51
0.49
0.74
1.16
1.57
1.82
1.83
1.61
1.22
0.74
0.27
-0.12
-0.40
-0.53
-0.59
-0.67
-0.88
-1.28
-1.81
-2.31
-2.57
-2.46
-1.98
-1.28
-0.57
-0.04
0.23
0.26
0.15
0.02
-0.03
0.08
0.35
0.74
1.15
1.50
1.66
1.57
1.19
0.57
-0.23
-1.10
-1.93
-2.61
-3.07
-3.30
-3.33
-3.22
-3.04
-2.83
-2.63
-2.48
-2.42
-2.46
-2.61
-2.82
-2.98
-2.98
-2.70
-2.10
-1.21
-0.17
0.85
1.66
2.17
2.38
2.41
2.42
2.59
3.01
3.68
4.49
5.30
5.95
6.30
6.25
5.75
4.84
3.61
2.19
0.77
-0.45
-1.32
-1.76
-1.77
-1.44
-0.93
-0.44
-0.09
0.04
-0.03
-0.25
-0.52
-0.76
-0.93
-0.98
-0.92
-0.78
-0.59
-0.39
-0.21
-0.04
0.16
0.41
0.76
1.16
1.56
1.89
2.12
2.25
2.30
2.29
2.20
2.00
1.70
1.31
0.89
0.50
0.18
-0.05
-0.19
-0.25
-0.24
-0.18
-0.10
-0.03
0.02
0.04
0.06
0.08
0.08
0.04
-0.07
-0.26
-0.49
-0.71
-0.88
-0.98
-1.02
-1.00
-0.96
-0.91
-0.86
-0.80
-0.72
-0.60
-0.45
-0.28
-0.12
0.00
0.08
0.15
0.23
0.32
0.37
0.31
0.07
-0.30
-0.74
-1.10
-1.27
-1.22
-0.99
-0.66
-0.36
-0.13
0.01
0.10
0.19
0.30
0.42
0.55
0.66
0.73
0.77
0.78
0.77
0.71
0.60
0.44
0.28
0.17
0.13
0.16
0.18
0.14
0.01
-0.16
-0.30
-0.36
-0.35
-0.30
-0.27
-0.27
-0.29
-0.32
-0.37
-0.48
-0.65
-0.84
-0.94
-0.86
-0.59
-0.17
0.24
0.55
0.69
0.73
0.75
0.80
0.88
0.92
0.85
0.66
0.43
0.25
0.19
0.23
0.29
0.27
0.14
-0.09
-0.34
-0.51
-0.58
-0.57
-0.55
-0.58
-0.69
-0.91
-1.21
-1.55
-1.84
-1.98
-1.89
-1.56
-1.02
-0.43
0.07
0.37
0.46
0.37
0.21
0.05
-0.07
-0.11
-0.08
0.03
0.22
0.45
0.68
0.87
0.96
0.94
0.81
0.59
0.31
0.04
-0.12
-0.09
0.15
0.53
0.89
1.02
0.80
0.25
-0.43
-1.00
-1.24
-1.12
-0.76
-0.40
-0.21
-0.25
-0.45
-0.67
-0.82
-0.86
-0.82
-0.73
-0.60
-0.40
-0.11
0.25
0.58
0.77
0.72
0.44
0.03
-0.38
-0.67
-0.78
-0.71
-0.53
-0.30
-0.06
0.19
0.43
0.63
0.76
0.76
0.63
0.42
0.19
0.01
-0.10
-0.13
-0.10
-0.03
0.09
0.22
0.31
0.33
0.25
0.11
-0.03
-0.09
-0.06
0.06
0.19
0.28
0.31
0.28
0.26
0.27
0.29
0.28
0.16
-0.08
-0.44
-0.84
-1.20
-1.45
-1.59
-1.61
-1.57
-1.48
-1.35
-1.17
-0.91
-0.61
-0.31
-0.10
-0.02
-0.04
-0.11
-0.11
0.00
0.24
0.52
0.77
0.90
0.87
0.69
0.40
0.05
-0.31
-0.59
-0.72
-0.65
-0.41
-0.09
0.14
0.15
-0.11
-0.56
-1.04
-1.36
-1.45
-1.34
-1.16
-1.05
-1.11
-1.32
-1.64
-1.99
-2.29
-2.53
-2.72
-2.85
-2.93
-2.94
-2.88
-2.74
-2.50
-2.16
-1.71
-1.17
-0.58
0.00
0.53
1.00
1.44
1.88
2.30
2.64
2.82
2.82
2.66
2.46
2.32
2.29
2.37
2.45
2.45
2.29
1.97
1.56
1.13
0.74
0.44
0.24
0.15
0.19
0.37
0.68
1.05
1.37
1.49
1.30
0.81
0.15
-0.43
-0.73
-0.64
-0.26
0.21
0.56
0.65
0.52
0.30
0.11
0.04
0.08
0.20
0.33
0.46
0.55
0.58
0.49
0.26
-0.10
-0.50
-0.82
-0.96
-0.89
-0.61
-0.18
0.35
0.90
1.38
1.69
1.73
1.51
1.12
0.74
0.53
0.56
0.74
0.89
0.84
0.57
0.18
-0.14
-0.32
-0.36
-0.36
-0.40
-0.47
-0.51
-0.45
-0.32
-0.24
-0.32
-0.60
-0.98
-1.32
-1.49
-1.44
-1.21
-0.90
-0.56
-0.22
0.08
0.29
0.36
0.26
0.02
-0.25
-0.43
-0.43
-0.28
-0.04
0.20
0.40
0.57
0.76
0.95
1.10
1.13
1.04
0.89
0.80
0.86
1.12
1.48
1.78
1.87
1.66
1.21
0.65
0.10
-0.35
-0.69
-0.92
-1.11
-1.32
-1.56
-1.84
-2.14
-2.34
-2.36
-2.13
-1.68
-1.15
-0.72
-0.47
-0.40
-0.36
-0.16
0.27
0.88
1.47
1.83
1.86
1.60
1.17
0.73
0.36
0.08
-0.13
-0.27
-0.35
-0.36
-0.30
-0.19
-0.09
-0.02
-0.04
-0.14
-0.32
-0.54
-0.71
-0.77
-0.69
-0.50
-0.24
0.02
0.20
0.30
0.31
0.26
0.19
0.12
0.07
0.06
0.06
0.01
-0.14
-0.38
-0.68
-0.91
-0.99
-0.85
-0.52
-0.09
0.34
0.66
0.84
0.89
0.85
0.75
0.62
0.48
0.34
0.21
0.12
0.06
0.01
-0.06
-0.14
-0.21
-0.21
-0.12
0.05
0.26
0.43
0.53
0.57
0.62
0.70
0.81
0.89
0.86
0.66
0.33
-0.05
-0.33
-0.43
-0.31
-0.02
0.34
0.65
0.81
0.75
0.49
0.08
-0.38
-0.76
-0.97
-0.96
-0.73
-0.34
0.14
0.61
1.03
1.33
1.45
1.39
1.14
0.76
0.33
-0.11
-0.50
-0.82
-1.03
-1.12
-1.03
-0.76
-0.40
-0.06
0.11
0.03
-0.25
-0.58
-0.77
-0.72
-0.45
-0.10
0.18
0.29
0.26
0.20
0.17
0.19
0.19
0.11
-0.04
-0.24
-0.44
-0.64
-0.87
-1.15
-1.47
-1.75
-1.91
-1.90
-1.74
-1.48
-1.16
-0.80
-0.41
-0.03
0.30
0.50
0.54
0.49
0.46
0.57
0.86
1.30
1.77
2.13
2.31
2.26
2.01
1.61
1.09
0.53
-0.01
-0.47
-0.80
-1.02
-1.16
-1.26
-1.39
-1.57
-1.83
-2.11
-2.37
-2.52
-2.49
-2.25
-1.84
-1.41
-1.11
-1.08
-1.35
-1.86
-2.42
-2.87
-3.08
-3.04
-2.83
-2.51
-2.15
-1.74
-1.24
-0.64
0.00
0.61
1.12
1.51
1.84
2.17
2.54
2.90
3.15
3.20
2.99
2.63
2.25
1.95
1.79
1.72
1.68
1.62
1.53
1.46
1.44
1.45
1.44
1.36
1.22
1.05
0.89
0.76
0.62
0.44
0.16
-0.17
-0.49
-0.72
-0.81
-0.76
-0.63
-0.48
-0.34
-0.26
-0.22
-0.21
-0.23
-0.28
-0.36
-0.41
-0.37
-0.19
0.17
0.64
1.12
1.47
1.58
1.48
1.28
1.10
1.05
1.15
1.30
1.40
1.37
1.20
0.95
0.67
0.44
0.26
0.15
0.12
0.16
0.25
0.36
0.44
0.46
0.39
0.24
0.03
-0.23
-0.52
-0.81
-1.07
-1.25
-1.32
-1.32
-1.30
-1.31
-1.36
-1.40
-1.35
-1.18
-0.86
-0.45
-0.02
0.38
0.71
0.94
1.07
1.09
1.04
0.96
0.90
0.86
0.82
0.71
0.49
0.19
-0.11
-0.29
-0.31
-0.17
0.03
0.21
0.30
0.28
0.21
0.13
0.07
0.01
-0.03
-0.08
-0.10
-0.10
-0.05
0.01
0.06
0.09
0.08
0.02
-0.08
-0.23
-0.44
-0.71
-1.01
-1.32
-1.61
-1.84
-1.94
-1.85
-1.52
-0.95
-0.21
0.53
1.09
1.34
1.23
0.88
0.46
0.13
-0.00
0.04
0.20
0.40
0.55
0.65
0.67
0.62
0.48
0.27
0.05
-0.14
-0.25
-0.30
-0.29
-0.25
-0.20
-0.16
-0.14
-0.17
-0.25
-0.38
-0.49
-0.51
-0.39
-0.12
0.22
0.53
0.69
0.65
0.44
0.12
-0.20
-0.49
-0.75
-1.02
-1.34
-1.67
-1.91
-1.94
-1.65
-1.08
-0.36
0.30
0.73
0.91
0.90
0.86
0.87
0.94
1.00
0.96
0.78
0.52
0.27
0.14
0.18
0.36
0.61
0.84
0.97
0.97
0.82
0.55
0.18
-0.26
-0.72
-1.14
-1.42
-1.50
-1.32
-0.92
-0.40
0.07
0.34
0.35
0.15
-0.14
-0.37
-0.41
-0.28
-0.04
0.21
0.34
0.26
-0.05
-0.55
-1.09
-1.50
-1.59
-1.28
-0.63
0.19
0.93
1.39
1.50
1.34
1.03
0.73
0.52
0.42
0.40
0.43
0.45
0.45
0.39
0.26
0.09
-0.06
-0.13
-0.10
0.01
0.14
0.24
0.27
0.26
0.25
0.28
0.33
0.35
0.27
0.09
-0.18
-0.48
-0.74
-0.91
-0.97
-0.93
-0.80
-0.63
-0.47
-0.38
-0.42
-0.62
-0.93
-1.25
-1.45
-1.46
-1.24
-0.84
-0.34
0.20
0.71
1.14
1.44
1.54
1.43
1.13
0.77
0.47
0.35
0.43
0.66
0.92
1.09
1.08
0.87
0.49
0.00
-0.51
-0.97
-1.33
-1.56
-1.63
-1.56
-1.35
-1.05
-0.73
-0.46
-0.30
-0.28
-0.36
-0.52
-0.72
-0.95
-1.22
-1.52
-1.82
-2.03
-2.07
-1.92
-1.65
-1.36
-1.20
-1.29
-1.64
-2.20
-2.82
-3.29
-3.49
-3.35
-2.92
-2.35
-1.76
-1.23
-0.72
-0.16
0.50
1.25
2.01
2.68
3.19
3.49
3.59
3.50
3.25
2.89
2.51
2.21
2.04
1.99
2.02
2.04
2.01
1.90
1.72
1.50
1.22
0.89
0.50
0.12
-0.17
-0.32
-0.29
-0.12
0.12
0.36
0.56
0.66
0.67
0.59
0.43
0.20
-0.08
-0.38
-0.69
-0.96
-1.20
-1.36
-1.46
-1.52
-1.54
-1.51
-1.36
-1.04
-0.51
0.15
0.83
1.36
1.61
1.56
1.32
1.04
0.87
0.84
0.92
1.03
1.08
1.05
0.93
0.72
0.46
0.18
-0.05
-0.19
-0.21
-0.13
-0.05
-0.02
-0.11
-0.27
-0.37
-0.28
0.05
0.57
1.16
1.63
1.84
1.71
1.27
0.67
0.11
-0.27
-0.37
-0.25
-0.03
0.14
0.17
0.04
-0.20
-0.52
-0.87
-1.25
-1.65
-2.03
-2.31
-2.38
-2.20
-1.75
-1.10
-0.37
0.32
0.83
1.09
1.08
0.84
0.49
0.12
-0.15
-0.27
-0.25
-0.12
0.09
0.30
0.48
0.59
0.65
0.67
0.68
0.68
0.68
0.64
0.56
0.47
0.40
0.36
0.29
0.12
-0.17
-0.54
-0.85
-0.97
-0.83
-0.50
-0.12
0.16
0.26
0.18
-0.03
-0.30
-0.59
-0.90
-1.23
-1.53
-1.75
-1.78
-1.59
-1.19
-0.66
-0.10
0.37
0.69
0.83
0.83
0.75
0.62
0.49
0.39
0.35
0.36
0.40
0.40
0.32
0.13
-0.10
-0.30
-0.37
-0.27
-0.03
0.25
0.44
0.47
0.30
-0.00
-0.33
-0.54
-0.57
-0.44
-0.21
-0.03
0.01
-0.11
-0.32
-0.49
-0.48
-0.29
-0.01
0.20
0.19
-0.10
-0.60
-1.14
-1.54
-1.66
-1.51
-1.20
-0.88
-0.63
-0.42
-0.17
0.20
0.66
1.11
1.37
1.36
1.09
0.72
0.44
0.40
0.60
0.93
1.25
1.45
1.51
1.47
1.40
1.35
1.27
1.11
0.82
0.40
-0.08
-0.51
-0.81
-0.93
-0.89
-0.77
-0.62
-0.49
-0.40
-0.36
-0.36
-0.40
-0.45
-0.46
-0.43
-0.37
-0.35
-0.45
-0.68
-1.00
-1.26
-1.33
-1.11
-0.63
0.01
0.63
1.07
1.23
1.11
0.78
0.38
0.03
-0.18
-0.20
-0.04
0.28
0.71
1.19
1.62
1.93
2.01
1.85
1.46
0.94
0.40
-0.08
-0.47
-0.78
-1.04
-1.24
-1.35
-1.34
-1.20
-0.98
-0.73
-0.54
-0.45
-0.44
-0.48
-0.52
-0.53
-0.51
-0.46
-0.39
-0.31
-0.19
-0.01
0.26
0.64
1.08
1.50
1.76
1.75
1.43
0.85
0.19
-0.35
-0.65
-0.65
-0.43
-0.11
0.17
0.33
0.35
0.22
-0.06
-0.45
-0.87
-1.24
-1.42
-1.37
-1.12
-0.77
-0.48
-0.33
-0.31
-0.35
-0.32
-0.18
0.03
0.20
0.20
-0.00
-0.39
-0.83
-1.21
-1.44
-1.53
-1.50
-1.40
-1.25
-1.04
-0.78
-0.44
-0.07
0.30
0.62
0.81
0.80
0.56
0.12
-0.39
-0.80
-1.00
-0.95
-0.73
-0.48
-0.33
-0.35
-0.55
-0.89
-1.35
-1.85
-2.33
-2.65
-2.68
-2.40
-1.89
-1.35
-0.94
-0.79
-0.84
-0.99
-1.11
-1.16
-1.14
-1.10
-1.05
-0.95
-0.75
-0.41
0.05
0.56
1.00
1.31
1.45
1.46
1.44
1.46
1.57
1.77
1.99
2.10
2.02
1.75
1.36
0.97
0.70
0.60
0.68
0.90
1.22
1.58
1.95
2.31
2.65
2.96
3.22
3.39
3.40
3.22
2.84
2.33
1.80
1.38
1.10
0.92
0.73
0.43
-0.01
-0.56
-1.12
-1.59
-1.89
-2.02
-1.98
-1.83
-1.60
-1.38
-1.24
-1.20
-1.21
-1.18
-1.01
-0.66
-0.18
0.33
0.76
1.02
1.14
1.15
1.09
0.96
0.79
0.60
0.49
0.55
0.82
1.25
1.67
1.91
1.85
1.49
0.96
0.41
-0.04
-0.31
-0.41
-0.38
-0.27
-0.15
-0.08
-0.10
-0.24
-0.47
-0.74
-0.98
-1.14
-1.21
-1.17
-1.04
-0.88
-0.78
-0.80
-1.02
-1.40
-1.81
-2.07
-2.00
-1.55
-0.82
-0.01
0.67
1.08
1.19
1.07
0.79
0.47
0.15
-0.08
-0.16
-0.05
0.23
0.61
0.97
1.20
1.22
1.03
0.67
0.23
-0.21
-0.58
-0.79
-0.81
-0.61
-0.25
0.17
0.51
0.66
0.55
0.21
-0.25
-0.71
-1.04
-1.17
-1.12
-0.97
-0.83
-0.78
-0.85
-0.99
-1.11
-1.12
-0.97
-0.70
-0.38
-0.12
0.05
0.12
0.16
0.23
0.33
0.45
0.55
0.62
0.67
0.74
0.86
1.01
1.16
1.23
1.19
1.04
0.84
0.65
0.55
0.53
0.56
0.58
0.52
0.39
0.24
0.13
0.12
0.22
0.37
0.48
0.47
0.31
0.04
-0.26
-0.51
-0.66
-0.68
-0.60
-0.49
-0.43
-0.49
-0.72
-1.09
-1.54
-1.99
-2.33
-2.50
-2.45
-2.16
-1.66
-0.97
-0.17
0.63
1.32
1.77
1.92
1.78
1.45
1.11
0.93
0.97
1.21
1.49
1.64
1.56
1.29
0.96
0.75
0.71
0.78
0.84
0.72
0.41
-0.02
-0.42
-0.68
-0.74
-0.66
-0.53
-0.39
-0.27
-0.15
-0.01
0.14
0.24
0.26
0.18
0.01
-0.20
-0.42
-0.62
-0.78
-0.88
-0.91
-0.89
-0.84
-0.76
-0.66
-0.53
-0.37
-0.17
0.02
0.20
0.36
0.50
0.62
0.69
0.66
0.46
0.11
-0.31
-0.62
-0.67
-0.38
0.16
0.81
1.38
1.76
1.93
1.94
1.86
1.75
1.63
1.53
1.44
1.37
1.29
1.14
0.86
0.44
-0.05
-0.52
-0.84
-0.97
-0.98
-0.99
-1.12
-1.42
-1.86
-2.33
-2.74
-3.01
-3.13
-3.11
-2.96
-2.68
-2.26
-1.74
-1.18
-0.67
-0.22
0.16
0.52
0.90
1.30
1.69
1.98
2.13
2.13
2.02
1.89
1.80
1.78
1.80
1.79
1.69
1.46
1.16
0.83
0.57
0.40
0.29
0.17
-0.03
-0.30
-0.53
-0.65
-0.61
-0.50
-0.43
-0.52
-0.72
-0.90
-0.89
-0.59
-0.10
0.39
0.65
0.55
0.16
-0.37
-0.79
-0.96
-0.88
-0.71
-0.65
-0.85
-1.36
-2.03
-2.64
-2.94
-2.82
-2.29
-1.50
-0.62
0.21
0.91
1.44
1.76
1.84
1.68
1.32
0.92
0.64
0.60
0.84
1.26
1.70
2.01
2.10
1.94
1.62
1.20
0.80
0.46
0.22
0.09
0.01
-0.05
-0.14
-0.27
-0.43
-0.58
-0.68
-0.69
-0.59
-0.38
-0.12
0.15
0.37
0.46
0.42
0.24
-0.01
-0.25
-0.43
-0.53
-0.57
-0.60
-0.69
-0.86
-1.09
-1.35
-1.58
-1.75
-1.82
-1.74
-1.53
-1.18
-0.74
-0.28
0.14
0.49
0.74
0.86
0.87
0.78
0.64
0.54
0.52
0.65
0.91
1.24
1.54
1.70
1.65
1.41
1.07
0.73
0.48
0.38
0.37
0.41
0.40
0.31
0.13
-0.10
-0.31
-0.45
-0.45
-0.31
-0.04
0.28
0.56
0.71
0.67
0.44
0.09
-0.31
-0.71
-1.03
-1.25
-1.31
-1.21
-0.97
-0.69
-0.48
-0.47
-0.69
-1.09
-1.54
-1.88
-1.98
-1.78
-1.32
-0.68
0.02
0.67
1.17
1.48
1.56
1.45
1.20
0.89
0.59
0.37
0.29
0.33
0.48
0.65
0.78
0.81
0.73
0.55
0.33
0.10
-0.08
-0.20
-0.22
-0.15
-0.00
0.16
0.29
0.36
0.41
0.48
0.62
0.79
0.91
0.89
0.70
0.37
0.01
-0.30
-0.50
-0.65
-0.82
-1.07
-1.39
-1.73
-2.00
-2.15
-2.21
-2.20
-2.13
-1.98
-1.68
-1.19
-0.56
0.10
0.60
0.83
0.77
0.54
0.34
0.32
0.54
0.91
1.25
1.43
1.37
1.16
0.96
0.92
1.10
1.40
1.65
1.68
1.38
0.82
0.17
-0.37
-0.67
-0.70
-0.57
-0.39
-0.25
-0.19
-0.19
-0.20
-0.20
-0.16
-0.09
-0.01
0.04
0.04
-0.03
-0.16
-0.31
-0.38
-0.35
-0.22
-0.07
0.01
-0.08
-0.36
-0.75
-1.17
-1.46
-1.54
-1.39
-1.06
-0.65
-0.24
0.09
0.36
0.61
0.89
1.25
1.63
1.95
2.10
2.00
1.66
1.15
0.58
0.09
-0.23
-0.36
-0.33
-0.24
-0.20
-0.26
-0.43
-0.64
-0.79
-0.80
-0.64
-0.37
-0.05
0.23
0.42
0.52
0.57
0.59
0.60
0.59
0.54
0.43
0.29
0.17
0.14
0.22
0.37
0.51
0.52
0.33
-0.06
-0.60
-1.20
-1.75
-2.17
-2.44
-2.51
-2.40
-2.10
-1.64
-1.07
-0.43
0.18
0.69
1.02
1.14
1.08
0.90
0.71
0.58
0.54
0.58
0.63
0.63
0.54
0.37
0.19
0.04
-0.03
-0.00
0.13
0.36
0.65
0.92
1.08
1.04
0.75
0.24
-0.37
-0.91
-1.21
-1.21
-0.93
-0.50
-0.07
0.24
0.41
0.46
0.46
0.41
0.31
0.12
-0.19
-0.59
-1.02
-1.35
-1.54
-1.59
-1.58
-1.58
-1.64
-1.68
-1.63
-1.40
-0.98
-0.46
0.06
0.49
0.78
0.96
1.07
1.14
1.18
1.18
1.13
1.05
0.94
0.82
0.71
0.66
0.68
0.75
0.80
0.70
0.37
-0.14
-0.69
-1.04
-1.01
-0.62
-0.05
0.43
0.64
0.54
0.28
-0.00
-0.22
-0.41
-0.63
-0.91
-1.19
-1.33
-1.23
-0.90
-0.44
0.01
0.34
0.50
0.48
0.31
0.04
-0.28
-0.56
-0.71
-0.70
-0.54
-0.29
-0.01
0.28
0.58
0.91
1.24
1.52
1.68
1.71
1.58
1.31
0.94
0.51
0.09
-0.27
-0.49
-0.53
-0.41
-0.17
0.10
0.35
0.55
0.68
0.75
0.69
0.48
0.15
-0.25
-0.57
-0.68
-0.54
-0.17
0.26
0.59
0.67
0.48
0.09
-0.33
-0.64
-0.75
-0.64
-0.37
-0.02
0.30
0.53
0.56
0.35
-0.11
-0.76
-1.45
-2.00
-2.24
-2.10
-1.64
-1.00
-0.38
0.07
0.31
0.40
0.45
0.58
0.83
1.14
1.38
1.39
1.12
0.63
0.06
-0.37
-0.54
-0.41
-0.09
0.26
0.48
0.53
0.43
0.25
0.07
-0.08
-0.20
-0.32
-0.42
-0.47
-0.45
-0.34
-0.20
-0.14
-0.27
-0.67
-1.28
-1.92
-2.37
-2.47
-2.19
-1.72
-1.31
-1.20
-1.49
-2.11
-2.85
-3.52
-4.00
-4.26
-4.28
-4.06
-3.56
-2.81
-1.87
-0.88
0.02
0.77
1.37
1.85
2.24
2.52
2.65
2.64
2.55
2.49
2.53
2.63
2.72
2.70
2.52
2.27
2.07
2.04
2.17
2.37
2.48
2.36
1.97
1.37
0.72
0.22
0.00
0.11
0.45
0.85
1.14
1.23
1.11
0.86
0.54
0.20
-0.15
-0.50
-0.81
-1.03
-1.12
-1.09
-1.02
-0.97
-1.02
-1.15
-1.29
-1.36
-1.31
-1.15
-0.96
-0.78
-0.65
-0.52
-0.31
0.04
0.51
1.02
1.43
1.64
1.65
1.55
1.48
1.53
1.67
1.79
1.75
1.54
1.23
0.96
0.86
0.89
0.94
0.85
0.54
0.05
-0.44
-0.78
-0.87
-0.74
-0.52
-0.32
-0.21
-0.19
-0.22
-0.26
-0.28
-0.30
-0.32
-0.34
-0.35
-0.34
-0.34
-0.36
-0.43
-0.53
-0.63
-0.66
-0.60
-0.48
-0.38
-0.37
-0.49
-0.68
-0.87
-0.97
-0.91
-0.72
-0.45
-0.17
0.10
0.37
0.66
0.93
1.08
1.04
0.78
0.36
-0.05
-0.30
-0.33
-0.19
-0.01
0.09
0.09
0.05
0.07
0.21
0.43
0.66
0.82
0.86
0.79
0.61
0.31
-0.09
-0.51
-0.82
-0.90
-0.72
-0.35
0.02
0.20
0.14
-0.10
-0.34
-0.42
-0.28
-0.03
0.14
0.06
-0.29
-0.81
-1.30
-1.55
-1.48
-1.15
-0.67
-0.21
0.14
0.35
0.45
0.48
0.43
0.32
0.14
-0.06
-0.22
-0.27
-0.22
-0.10
0.03
0.10
0.13
0.12
0.12
0.17
0.26
0.37
0.45
0.44
0.30
0.01
-0.38
-0.78
-1.09
-1.24
-1.22
-1.12
-1.06
-1.13
-1.34
-1.61
-1.82
-1.86
-1.73
-1.48
-1.24
-1.12
-1.19
-1.47
-1.94
-2.55
-3.18
-3.73
-4.05
-4.02
-3.60
-2.81
-1.75
-0.57
0.57
1.52
2.17
2.47
2.47
2.26
1.97
1.74
1.63
1.65
1.73
1.82
1.90
1.98
2.05
2.11
2.10
1.97
1.70
1.36
1.06
0.94
1.03
1.27
1.52
1.62
1.46
1.05
0.52
0.04
-0.22
-0.20
0.07
0.46
0.82
1.03
1.06
0.93
0.71
0.45
0.17
-0.13
-0.47
-0.82
-1.11
-1.28
-1.32
-1.26
-1.19
-1.19
-1.25
-1.31
-1.25
-0.99
-0.54
-0.00
0.46
0.70
0.70
0.51
0.29
0.18
0.24
0.45
0.71
0.93
1.07
1.15
1.25
1.42
1.62
1.79
1.81
1.64
1.32
0.92
0.58
0.37
0.33
0.39
0.47
0.45
0.27
-0.10
-0.58
-1.04
-1.34
-1.40
-1.26
-1.04
-0.87
-0.79
-0.80
-0.85
-0.93
-1.06
-1.30
-1.63
-1.93
-2.01
-1.73
-1.09
-0.23
0.62
1.27
1.65
1.81
1.86
1.86
1.82
1.73
1.57
1.36
1.16
1.00
0.85
0.69
0.48
0.22
-0.01
-0.18
-0.25
-0.23
-0.18
-0.12
-0.08
-0.08
-0.13
-0.23
-0.39
-0.57
-0.69
-0.70
-0.58
-0.38
-0.19
-0.07
-0.04
-0.07
-0.09
-0.12
-0.21
-0.39
-0.66
-0.97
-1.19
-1.27
-1.22
-1.11
-1.02
-0.99
-0.93
-0.79
-0.49
-0.10
0.31
0.63
0.82
0.90
0.93
0.95
0.96
0.95
0.90
0.80
0.65
0.45
0.20
-0.08
-0.35
-0.56
-0.63
-0.54
-0.32
-0.06
0.14
0.20
0.10
-0.11
-0.37
-0.60
-0.80
-0.97
-1.12
-1.26
-1.36
-1.40
-1.36
-1.27
-1.21
-1.23
-1.39
-1.71
-2.17
-2.74
-3.35
-3.88
-4.19
-4.19
-3.87
-3.29
-2.57
-1.83
-1.11
-0.42
0.28
0.99
1.67
2.26
2.74
3.08
3.33
3.50
3.59
3.60
3.49
3.28
3.01
2.71
2.45
2.25
2.12
2.03
1.95
1.84
1.66
1.40
1.10
0.81
0.58
0.45
0.43
0.49
0.61
0.72
0.81
0.83
0.79
0.71
0.62
0.53
0.43
0.29
0.09
-0.18
-0.50
-0.83
-1.13
-1.34
-1.45
-1.47
-1.44
-1.39
-1.33
-1.21
-1.00
-0.68
-0.26
0.16
0.50
0.72
0.83
0.88
0.92
0.96
0.95
0.86
0.71
0.57
0.55
0.66
0.87
1.05
1.11
1.00
0.82
0.67
0.64
0.69
0.72
0.59
0.25
-0.26
-0.77
-1.13
-1.26
-1.21
-1.07
-0.98
-0.94
-0.94
-0.88
-0.76
-0.59
-0.47
-0.45
-0.53
-0.63
-0.69
-0.68
-0.62
-0.55
-0.48
-0.36
-0.14
0.20
0.60
0.92
1.04
0.93
0.63
0.29
0.04
-0.05
0.00
0.11
0.19
0.22
0.23
0.27
0.37
0.52
0.63
0.63
0.51
0.28
0.04
-0.15
-0.23
-0.21
-0.12
-0.02
0.04
0.01
-0.14
-0.39
-0.68
-0.94
-1.11
-1.15
-1.11
-1.06
-1.08
-1.20
-1.39
-1.61
-1.78
-1.88
-1.92
-1.90
-1.82
-1.66
-1.40
-1.03
-0.60
-0.13
0.35
0.85
1.37
1.87
2.30
2.55
2.56
2.33
1.94
1.53
1.21
1.03
0.96
0.94
0.90
0.82
0.73
0.65
0.58
0.48
0.29
-0.01
-0.36
-0.66
-0.79
-0.73
-0.52
-0.29
-0.16
-0.18
-0.31
-0.47
-0.57
-0.58
-0.55
-0.53
-0.54
-0.53
-0.43
-0.23
0.00
0.12
0.01
-0.32
-0.74
-1.04
-1.03
-0.65
-0.01
0.71
1.34
1.77
1.98
2.00
1.86
1.60
1.26
0.89
0.57
0.37
0.28
0.26
0.22
0.11
-0.04
-0.18
-0.24
-0.18
-0.04
0.13
0.27
0.38
0.44
0.47
0.43
0.29
0.04
-0.33
-0.73
-1.07
-1.23
-1.19
-0.97
-0.68
-0.41
-0.24
-0.18
-0.21
-0.31
-0.50
-0.78
-1.17
-1.60
-1.98
-2.18
-2.15
-1.86
-1.38
-0.83
-0.33
0.02
0.15
0.05
-0.16
-0.33
-0.29
0.07
0.68
1.39
1.99
2.35
2.45
2.37
2.17
1.90
1.54
1.09
0.59
0.15
-0.11
-0.14
0.03
0.27
0.39
0.29
-0.05
-0.57
-1.09
-1.47
-1.62
-1.53
-1.31
-1.08
-0.91
-0.83
-0.77
-0.68
-0.54
-0.41
-0.39
-0.55
-0.90
-1.36
-1.78
-2.01
-1.96
-1.60
-0.99
-0.23
0.50
1.04
1.28
1.22
0.93
0.57
0.25
0.04
-0.08
-0.15
-0.19
-0.19
-0.11
0.05
0.26
0.44
0.53
0.52
0.44
0.37
0.35
0.37
0.39
0.37
0.33
0.30
0.36
0.50
0.68
0.79
0.77
0.61
0.37
0.15
0.03
0.02
0.06
0.09
0.06
-0.04
-0.19
-0.37
-0.60
-0.88
-1.21
-1.56
-1.85
-1.99
-1.93
-1.66
-1.22
-0.70
-0.17
0.32
0.73
1.05
1.26
1.35
1.30
1.17
1.02
0.94
0.97
1.07
1.15
1.13
0.96
0.69
0.39
0.14
0.01
0.01
0.10
0.25
0.41
0.50
0.46
0.23
-0.20
-0.77
-1.36
-1.80
-1.97
-1.86
-1.52
-1.08
-0.69
-0.43
-0.32
-0.35
-0.46
-0.61
-0.77
-0.94
-1.10
-1.18
-1.14
-0.92
-0.53
-0.04
0.45
0.82
1.00
0.97
0.80
0.59
0.45
0.46
0.60
0.78
0.88
0.81
0.56
0.17
-0.23
-0.52
-0.63
-0.56
-0.38
-0.19
-0.03
0.08
0.17
0.28
0.40
0.49
0.49
0.37
0.12
-0.20
-0.50
-0.71
-0.82
-0.86
-0.88
-0.91
-0.95
-0.96
-0.99
-1.11
-1.44
-2.03
-2.85
-3.73
-4.47
-4.93
-5.02
-4.77
-4.26
-3.53
-2.58
-1.45
-0.16
1.15
2.30
3.14
3.59
3.72
3.65
3.54
3.49
3.54
3.62
3.65
3.54
3.25
2.80
2.24
1.65
1.10
0.64
0.34
0.23
0.30
0.49
0.68
0.75
0.64
0.33
-0.08
-0.50
-0.80
-0.94
-0.89
-0.68
-0.32
0.16
0.68
1.16
1.49
1.56
1.37
0.97
0.49
0.05
-0.30
-0.51
-0.62
-0.63
-0.55
-0.39
-0.18
-0.00
0.07
0.01
-0.17
-0.35
-0.44
-0.38
-0.19
-0.00
0.05
-0.07
-0.32
-0.52
-0.50
-0.18
0.36
0.96
1.40
1.58
1.50
1.26
0.96
0.66
0.36
0.08
-0.12
-0.15
0.06
0.50
1.02
1.41
1.48
1.20
0.72
0.23
-0.07
-0.15
-0.14
-0.21
-0.48
-0.93
-1.42
-1.79
-1.91
-1.78
-1.46
-1.05
-0.65
-0.28
0.02
0.24
0.36
0.40
0.39
0.41
0.47
0.60
0.76
0.91
1.00
1.03
1.00
0.92
0.81
0.65
0.46
0.25
0.04
-0.16
-0.35
-0.54
-0.75
-0.97
-1.14
-1.16
-0.96
-0.49
0.16
0.77
1.11
1.01
0.50
-0.23
-0.88
-1.20
-1.15
-0.83
-0.49
-0.29
-0.28
-0.38
-0.48
-0.51
-0.52
-0.60
-0.80
-1.07
-1.28
-1.28
-0.99
-0.48
0.10
0.56
0.79
0.77
0.58
0.32
0.09
-0.04
-0.05
0.05
0.24
0.49
0.76
0.95
1.01
0.88
0.63
0.33
0.14
0.12
0.30
0.59
0.87
1.04
1.04
0.90
0.66
0.35
0.03
-0.28
-0.54
-0.71
-0.76
-0.70
-0.60
-0.53
-0.57
-0.73
-1.01
-1.33
-1.63
-1.85
-1.95
-1.92
-1.79
-1.62
-1.44
-1.24
-0.96
-0.53
0.05
0.75
1.44
1.99
2.29
2.33
2.15
1.85
1.49
1.12
0.77
0.45
0.19
0.01
-0.10
-0.15
-0.15
-0.13
-0.12
-0.13
-0.18
-0.29
-0.43
-0.54
-0.55
-0.41
-0.13
0.19
0.47
0.61
0.59
0.45
0.28
0.14
0.07
0.06
0.08
0.10
0.13
0.15
0.14
0.06
-0.10
-0.34
-0.61
-0.82
-0.92
-0.88
-0.74
-0.57
-0.47
-0.46
-0.53
-0.61
-0.64
-0.57
-0.42
-0.22
-0.02
0.13
0.20
0.22
0.24
0.30
0.40
0.51
0.59
0.60
0.54
0.45
0.42
0.49
0.61
0.70
0.66
0.44
0.11
-0.16
-0.24
-0.11
0.14
0.35
0.36
0.16
-0.17
-0.51
-0.80
-1.06
-1.32
-1.65
-1.97
-2.15
-2.04
-1.59
-0.91
-0.25
0.20
0.34
0.26
0.17
0.26
0.55
0.96
1.26
1.28
1.00
0.58
0.23
0.13
0.28
0.52
0.65
0.52
0.19
-0.19
-0.44
-0.47
-0.34
-0.18
-0.14
-0.22
-0.37
-0.44
-0.35
-0.14
0.09
0.20
0.11
-0.15
-0.46
-0.68
-0.74
-0.64
-0.47
-0.34
-0.38
-0.65
-1.10
-1.62
-2.05
-2.22
-2.09
-1.66
-1.07
-0.45
0.09
0.50
0.81
1.03
1.16
1.23
1.21
1.15
1.06
0.98
0.92
0.90
0.92
0.97
1.05
1.12
1.17
1.15
1.06
0.87
0.61
0.28
-0.10
-0.51
-0.90
-1.21
-1.41
-1.49
-1.51
-1.49
-1.46
-1.40
-1.27
-1.09
-0.91
-0.81
-0.87
-1.11
-1.50
-1.96
-2.39
-2.68
-2.80
-2.71
-2.42
-1.96
-1.40
-0.79
-0.20
0.32
0.74
1.02
1.19
1.29
1.40
1.60
1.90
2.25
2.53
2.66
2.60
2.39
2.13
1.89
1.73
1.65
1.62
1.62
1.61
1.57
1.47
1.31
1.13
0.98
0.90
0.91
0.98
1.04
1.04
0.94
0.76
0.53
0.31
0.16
0.11
0.15
0.22
0.22
0.04
-0.38
-0.97
-1.61
-2.14
-2.43
-2.41
-2.10
-1.60
-1.00
-0.38
0.20
0.73
1.20
1.63
1.96
2.10
1.97
1.58
1.04
0.58
0.42
0.63
1.10
1.55
1.73
1.51
0.96
0.31
-0.22
-0.48
-0.49
-0.33
-0.13
0.03
0.11
0.10
-0.01
-0.19
-0.41
-0.62
-0.74
-0.72
-0.53
-0.24
0.05
0.21
0.13
-0.24
-0.86
-1.61
-2.28
-2.70
-2.73
-2.32
-1.56
-0.60
0.34
1.08
1.48
1.54
1.34
1.05
0.82
0.70
0.67
0.64
0.53
0.36
0.23
0.23
0.40
0.66
0.87
0.88
0.66
0.29
-0.07
-0.32
-0.40
-0.37
-0.29
-0.18
-0.03
0.21
0.54
0.93
1.25
1.40
1.33
1.04
0.62
0.17
-0.19
-0.42
-0.50
-0.46
-0.33
-0.20
-0.14
-0.24
-0.56
-1.07
-1.64
-2.11
-2.33
-2.29
-2.04
-1.72
-1.40
-1.10
-0.77
-0.37
0.10
0.57
0.96
1.20
1.30
1.26
1.14
0.94
0.71
0.50
0.39
0.40
0.53
0.72
0.90
1.01
1.04
1.02
0.93
0.78
0.57
0.30
0.03
-0.17
-0.28
-0.29
-0.27
-0.28
-0.34
-0.44
-0.51
-0.51
-0.44
-0.33
-0.25
-0.26
-0.34
-0.43
-0.46
-0.42
-0.36
-0.36
-0.49
-0.73
-0.97
-1.09
-0.96
-0.55
0.06
0.71
1.23
1.50
1.45
1.14
0.67
0.20
-0.15
-0.30
-0.29
-0.19
-0.09
-0.03
-0.01
0.01
0.07
0.15
0.23
0.29
0.31
0.35
0.45
0.60
0.71
0.71
0.53
0.24
-0.07
-0.26
-0.30
-0.24
-0.20
-0.25
-0.41
-0.62
-0.80
-0.89
-0.92
-0.95
-1.04
-1.21
-1.42
-1.58
-1.63
-1.58
-1.50
-1.47
-1.56
-1.71
-1.80
-1.67
-1.23
-0.49
0.40
1.22
1.80
2.03
1.91
1.55
1.05
0.55
0.17
-0.02
0.01
0.22
0.52
0.80
0.96
0.94
0.76
0.45
0.10
-0.21
-0.43
-0.48
-0.37
-0.17
0.05
0.17
0.16
0.02
-0.18
-0.35
-0.43
-0.38
-0.26
-0.13
-0.07
-0.12
-0.29
-0.53
-0.76
-0.92
-0.98
-0.94
-0.87
-0.80
-0.77
-0.83
-0.95
-1.13
-1.32
-1.46
-1.49
-1.38
-1.15
-0.87
-0.58
-0.33
-0.12
0.07
0.22
0.29
0.24
0.05
-0.23
-0.49
-0.63
-0.56
-0.30
0.09
0.49
0.81
0.97
0.97
0.85
0.68
0.51
0.40
0.34
0.29
0.16
-0.09
-0.47
-0.94
-1.40
-1.76
-1.96
-2.02
-1.98
-1.90
-1.81
-1.74
-1.69
-1.66
-1.64
-1.65
-1.68
-1.74
-1.84
-1.98
-2.17
-2.44
-2.75
-3.09
-3.43
-3.79
-4.22
-4.79
-5.58
-6.62
-7.85
-9.12
-10.21
-10.87
-10.91
-10.28
-9.06
-7.49
-5.86
-4.40
-3.27
-2.49
-1.97
-1.63
-1.40
-1.33
-1.49
-1.97
-2.77
-3.76
-4.67
-5.19
-5.07
-4.18
-2.52
-0.21
2.63
5.90
9.49
13.25
16.96
20.35
23.18
25.36
26.94
28.08
28.99
29.78
30.46
30.91
30.93
30.27
28.73
26.25
22.89
18.89
14.55
10.16
5.89
1.82
-1.98
-5.43
-8.37
-10.64
-12.17
-13.04
-13.49
-13.79
-14.10
-14.44
-14.65
-14.55
-14.03
-13.10
-11.91
-10.63
-9.40
-8.31
-7.39
-6.68
-6.27
-6.29
-6.78
-7.71
-8.86
-9.95
-10.67
-10.81
-10.29
-9.18
-7.61
-5.75
-3.78
-1.82
0.05
1.81
3.52
5.25
7.04
8.84
10.47
11.74
12.45
12.49
11.87
10.73
9.20
7.42
5.46
3.36
1.10
-1.29
-3.71
-5.98
-7.89
-9.21
-9.86
-9.81
-9.18
-8.12
-6.82
-5.46
-4.19
-3.17
-2.49
-2.15
-2.08
-2.11
-2.07
-1.82
-1.30
-0.57
0.27
1.07
1.75
2.22
2.49
2.59
2.60
2.58
2.57
2.60
2.69
2.86
3.12
3.43
3.74
3.93
3.92
3.69
3.27
2.81
2.40
2.13
1.95
1.75
1.39
0.80
-0.01
-0.91
-1.74
-2.41
-2.93
-3.42
-4.09
-5.08
-6.41
-7.97
-9.57
-11.07
-12.40
-13.55
-14.51
-15.15
-15.33
-14.92
-14.01
-12.92
-12.13
-11.99
-12.50
-13.14
-13.02
-11.21
-7.17
-1.04
6.34
13.77
20.10
24.70
27.45
28.67
28.76
27.99
26.41
24.06
21.04
17.66
14.28
11.14
8.30
5.61
2.98
0.46
-1.61
-2.75
-2.65
-1.36
0.58
2.27
2.83
1.73
-0.97
-4.61
-8.20
-10.71
-11.36
-9.75
-5.87
-0.02
7.22
14.97
22.17
27.70
30.59
30.32
26.92
20.99
13.45
5.29
-2.65
-9.77
-15.73
-20.38
-23.78
-26.19
-28.04
-29.81
-31.83
-34.13
-36.40
-38.12
-38.78
-38.04
-35.74
-31.72
-25.82
-17.81
-7.62
4.39
17.32
29.91
40.89
49.34
54.85
57.40
57.04
53.66
47.05
37.13
24.27
9.38
-6.17
-20.95
-33.78
-43.93
-51.03
-55.00
-55.88
-53.89
-49.48
-43.35
-36.30
-29.03
-21.94
-15.16
-8.61
-2.26
3.76
9.14
13.60
16.99
19.42
21.15
22.46
23.51
24.25
24.57
24.40
23.81
22.95
21.95
20.78
19.30
17.30
14.71
11.67
8.52
5.69
3.46
1.95
1.07
0.63
0.44
0.34
0.28
0.20
0.09
-0.07
-0.32
-0.69
-1.19
-1.84
-2.62
-3.48
-4.32
-5.04
-5.52
-5.73
-5.67
-5.39
-4.96
-4.46
-3.95
-3.50
-3.22
-3.16
-3.36
-3.75
-4.24
-4.72
-5.07
-5.21
-5.08
-4.61
-3.76
-2.56
-1.13
0.34
1.59
2.42
2.74
2.56
1.97
1.08
-0.01
-1.21
-2.44
-3.63
-4.66
-5.50
-6.12
-6.51
-6.61
-6.32
-5.50
-4.07
-2.03
0.45
3.07
5.50
7.45
8.76
9.41
9.46
9.02
8.23
7.21
6.10
5.02
4.11
3.45
3.02
2.73
2.43
2.03
1.52
1.03
0.74
0.83
1.31
2.06
2.84
3.43
3.72
3.72
3.53
3.24
2.91
2.53
2.08
1.60
1.14
0.76
0.45
0.16
-0.20
-0.68
-1.23
-1.77
-2.15
-2.29
-2.18
-1.89
-1.54
-1.21
-0.97
-0.84
-0.82
-0.88
-0.98
-1.02
-0.92
-0.59
-0.02
0.76
1.67
2.63
3.57
4.45
5.26
5.93
6.38
6.51
6.22
5.51
4.41
3.06
1.67
0.41
-0.55
-1.17
-1.47
-1.59
-1.64
-1.69
-1.76
-1.81
-1.79
-1.64
-1.36
-0.95
-0.47
0.05
0.53
0.90
1.07
0.96
0.52
-0.22
-1.16
-2.15
-3.00
-3.55
-3.76
-3.63
-3.26
-2.75
-2.20
-1.65
-1.15
-0.70
-0.32
-0.03
0.15
0.21
0.12
-0.09
-0.38
-0.69
-0.99
-1.26
-1.53
-1.83
-2.18
-2.56
-2.94
-3.27
-3.57
-3.85
-4.13
-4.42
-4.67
-4.84
-4.93
-4.90
-4.75
-4.46
-3.98
-3.33
-2.55
-1.73
-0.99
-0.37
0.09
0.45
0.71
0.91
1.02
1.08
1.10
1.15
1.28
1.48
1.70
1.83
1.81
1.60
1.28
0.96
0.75
0.74
0.91
1.18
1.47
1.70
1.84
1.88
1.88
1.88
1.91
1.95
1.95
1.83
1.52
0.96
0.23
-0.57
-1.28
-1.82
-2.17
-2.38
-2.53
-2.62
-2.61
-2.43
-2.07
-1.60
-1.16
-0.88
-0.81
-0.90
-1.08
-1.28
-1.45
-1.61
-1.79
-1.98
-2.13
-2.23
-2.25
-2.24
-2.23
-2.24
-2.28
-2.27
-2.13
-1.84
-1.39
-0.82
-0.17
0.56
1.36
2.25
3.16
3.97
4.53
4.73
4.56
4.11
3.56
3.04
2.60
2.21
1.83
1.42
1.03
0.69
0.43
0.21
0.01
-0.19
-0.33
-0.38
-0.34
-0.31
-0.39
-0.63
-0.95
-1.19
-1.19
-0.95
-0.59
-0.33
-0.35
-0.69
-1.21
-1.68
-1.92
-1.84
-1.51
-1.10
-0.76
-0.63
-0.71
-0.98
-1.32
-1.66
-1.93
-2.15
-2.29
-2.34
-2.24
-1.92
-1.38
-0.71
-0.09
0.30
0.37
0.19
-0.04
-0.12
0.04
0.37
0.67
0.76
0.54
0.12
-0.31
-0.59
-0.66
-0.60
-0.54
-0.53
-0.57
-0.53
-0.33
0.04
0.47
0.82
0.95
0.84
0.55
0.18
-0.18
-0.46
-0.68
-0.82
-0.89
-0.86
-0.73
-0.50
-0.21
0.09
0.34
0.48
0.49
0.36
0.16
-0.05
-0.21
-0.30
-0.31
-0.27
-0.19
-0.06
0.13
0.34
0.51
0.58
0.50
0.30
0.04
-0.17
-0.29
-0.31
-0.25
-0.19
-0.16
-0.16
-0.20
-0.24
-0.26
-0.24
-0.14
0.03
0.28
0.55
0.78
0.93
0.95
0.86
0.71
0.54
0.39
0.26
0.13
0.00
-0.13
-0.26
-0.36
-0.44
-0.50
-0.52
-0.46
-0.27
0.08
0.57
1.07
1.45
1.60
1.50
1.20
0.83
0.52
0.33
0.27
0.29
0.34
0.38
0.42
0.49
0.61
0.79
0.97
1.13
1.24
1.31
1.36
1.42
1.50
1.58
1.62
1.60
1.54
1.50
1.50
1.58
1.68
1.74
1.68
1.47
1.14
0.73
0.33
-0.04
-0.36
-0.65
-0.93
-1.21
-1.49
-1.73
-1.93
-2.05
-2.06
-1.94
-1.65
-1.21
-0.66
-0.11
0.35
0.64
0.77
0.79
0.83
0.98
1.28
1.70
2.13
2.47
2.63
2.61
2.44
2.14
1.74
1.29
0.79
0.33
-0.04
-0.25
-0.29
-0.21
-0.08
0.00
0.00
-0.08
-0.22
-0.37
-0.50
-0.59
-0.68
-0.77
-0.85
-0.90
-0.87
-0.75
-0.53
-0.24
0.04
0.26
0.38
0.41
0.37
0.29
0.18
0.04
-0.14
-0.35
-0.54
-0.68
-0.72
-0.68
-0.59
-0.51
-0.50
-0.57
-0.71
-0.87
-0.99
-1.03
-0.98
-0.90
-0.83
-0.84
-0.90
-1.00
-1.10
-1.20
-1.32
-1.46
-1.60
-1.67
-1.65
-1.56
-1.46
-1.45
-1.54
-1.67
-1.72
-1.57
-1.24
-0.79
-0.37
-0.07
0.08
0.13
0.17
0.27
0.43
0.64
0.85
1.01
1.08
1.05
0.91
0.68
0.40
0.14
-0.05
-0.14
-0.09
0.09
0.37
0.74
1.11
1.42
1.57
1.51
1.20
0.70
0.10
-0.46
-0.85
-1.03
-1.04
-0.97
-0.91
-0.92
-0.98
-1.05
-1.10
-1.12
-1.16
-1.26
-1.43
-1.60
-1.65
-1.51
-1.17
-0.72
-0.27
0.06
0.22
0.27
0.33
0.48
0.74
1.02
1.22
1.22
1.03
0.75
0.50
0.36
0.34
0.36
0.34
0.25
0.13
0.09
0.17
0.35
0.53
0.62
0.55
0.33
0.06
-0.19
-0.34
-0.39
-0.36
-0.31
-0.28
-0.34
-0.50
-0.77
-1.15
-1.59
-2.03
-2.41
-2.66
-2.74
-2.60
-2.25
-1.71
-1.06
-0.43
0.05
0.31
0.32
0.15
-0.07
-0.22
-0.20
0.01
0.37
0.77
1.09
1.25
1.21
1.03
0.80
0.57
0.39
0.27
0.22
0.27
0.43
0.67
0.90
1.01
0.92
0.68
0.38
0.17
0.11
0.19
0.33
0.44
0.45
0.33
0.12
-0.09
-0.26
-0.36
-0.39
-0.41
-0.55
-0.93
-1.57
-2.31
-2.88
-2.96
-2.38
-1.15
0.49
2.07
3.03
3.09
2.37
1.42
0.86
1.20
2.55
4.61
6.56
7.40
6.61
4.56
2.35
1.19
1.89
4.45
8.13
11.39
12.68
11.33
8.08
4.56
2.36
2.46
5.11
10.25
17.17
24.57
30.60
33.05
29.57
18.54
0.28
-22.64
-43.21
-53.57
-50.86
-39.40
-26.85
-19.03
-17.42
-19.60
-21.65
-20.58
-16.17
-10.43
-5.75
-3.19
-2.27
-1.77
-0.55
1.82
5.04
7.91
9.25
8.60
6.87
5.83
7.11
11.36
17.95
25.25
30.55
31.97
28.89
22.22
13.90
5.99
-0.02
-3.55
-4.78
-4.44
-3.37
-2.19
-1.17
-0.35
0.37
0.95
1.25
1.18
0.74
-0.05
-1.17
-2.61
-4.28
-5.99
-7.58
-8.89
-9.75
-9.96
-9.34
-7.87
-5.55
-2.50
0.88
3.71
4.48
1.92
-4.20
-12.85
-21.64
-27.57
-28.19
-22.74
-12.83
-2.24
5.15
7.76
5.84
0.89
-5.07
-10.21
-13.36
-14.47
-15.10
-16.70
-20.53
-26.95
-36.49
-48.92
-62.43
-73.23
-76.93
-71.00
-54.52
-29.00
2.04
33.93
61.07
77.82
82.69
83.38
83.53
84.08
82.46
77.70
69.84
59.97
49.91
41.48
35.19
29.23
21.78
11.87
0.00
-12.54
-24.18
-33.57
-40.06
-44.24
-48.26
-53.83
-61.59
-70.72
-79.63
-86.43
-89.41
-87.49
-80.69
-70.34
-57.85
-44.24
-29.91
-15.05
0.17
15.46
30.36
44.20
56.02
65.13
71.22
74.40
74.96
73.36
70.09
65.69
60.65
55.35
50.14
45.31
41.03
37.20
33.43
29.24
24.17
17.98
10.75
2.86
-5.12
-12.57
-18.99
-24.19
-28.46
-32.45
-37.00
-42.75
-49.74
-57.29
-64.16
-68.87
-70.24
-67.80
-61.87
-53.40
-43.60
-33.47
-23.66
-14.40
-5.69
2.56
10.28
17.29
23.34
28.16
31.63
33.63
34.12
33.30
31.51
29.12
26.44
23.66
20.81
17.99
15.28
12.70
10.64
9.50
9.46
10.28
11.45
12.29
12.59
12.39
11.85
11.71
12.72
15.15
18.51
21.84
23.93
24.38
23.11
20.27
16.87
14.30
13.85
16.33
22.11
30.87
42.42
55.91
65.67
66.59
56.94
39.79
20.49
5.86
-3.90
-9.64
-12.34
-12.98
-12.34
-10.70
-8.52
-6.69
-6.12
-7.72
-11.29
-16.32
-22.27
-28.05
-32.45
-34.70
-34.83
-33.51
-32.05
-31.24
-31.62
-33.39
-35.98
-38.32
-39.45
-38.88
-36.70
-33.50
-29.68
-25.65
-21.77
-18.18
-14.88
-11.89
-9.29
-7.06
-5.07
-2.90
-0.16
3.25
7.15
11.06
14.34
16.38
16.81
15.61
13.13
9.93
6.64
3.75
1.61
0.34
-0.06
0.35
1.53
3.46
6.03
9.09
12.30
15.31
17.79
19.61
20.81
21.59
22.12
22.47
22.52
22.14
21.27
20.05
18.87
18.22
18.53
20.02
22.70
26.39
30.83
35.72
40.73
45.60
50.15
54.24
57.75
60.30
61.19
59.40
53.91
44.01
29.76
12.06
-7.42
-26.63
-43.63
-56.98
-66.01
-70.92
-72.57
-72.25
-71.22
-70.37
-70.01
-69.94
-69.76
-69.21
-68.28
-67.24
-66.36
-65.78
-65.41
-65.01
-64.37
-63.39
-62.14
-60.76
-59.36
-57.93
-56.34
-54.28
-51.26
-46.70
-40.06
-31.05
-19.88
-7.35
5.31
16.90
26.62
34.28
40.22
44.98
48.89
51.91
53.74
54.07
52.87
50.46
47.38
44.16
41.15
38.46
36.06
33.92
32.10
30.70
29.77
29.21
28.76
28.05
26.71
24.47
21.26
17.17
12.45
7.41
2.43
-2.10
-5.92
-8.88
-11.00
-12.46
-13.44
-14.04
-14.27
-14.05
-13.34
-12.23
-10.90
-9.53
-8.23
-6.98
-5.67
-4.24
-2.75
-1.35
-0.27
0.36
0.50
0.27
-0.13
-0.51
-0.76
-0.84
-0.81
-0.71
-0.61
-0.48
-0.33
-0.15
0.03
0.14
0.11
-0.05
-0.27
-0.40
-0.33
-0.05
0.37
0.74
0.92
0.85
0.57
0.19
-0.15
-0.39
-0.51
-0.55
-0.54
-0.48
-0.32
-0.04
0.36
0.84
1.28
1.57
1.63
1.48
1.19
0.86
0.57
0.34
0.12
-0.13
-0.40
-0.62
-0.68
-0.51
-0.11
0.44
0.98
1.36
1.51
1.43
1.20
0.94
0.73
0.60
0.56
0.58
0.67
0.84
1.07
1.34
1.59
1.77
1.86
1.87
1.80
1.69
1.55
1.41
1.33
1.35
1.47
1.63
1.72
1.63
1.30
0.82
0.33
-0.03
-0.17
-0.14
-0.02
0.06
0.06
-0.03
-0.18
-0.33
-0.44
-0.48
-0.43
-0.29
-0.09
0.09
0.16
0.06
-0.21
-0.56
-0.89
-1.12
-1.24
-1.27
-1.23
-1.15
-0.97
-0.69
-0.33
0.01
0.23
0.29
0.26
0.31
0.57
1.09
1.77
2.40
2.76
2.79
2.52
2.10
1.69
1.35
1.09
0.91
0.83
0.93
1.24
1.75
2.32
2.75
2.90
2.70
2.25
1.69
1.21
0.89
0.75
0.70
0.68
0.59
0.42
0.19
-0.05
-0.23
-0.31
-0.31
-0.27
-0.29
-0.43
-0.69
-1.01
-1.30
-1.50
-1.61
-1.69
-1.80
-1.97
-2.17
-2.32
-2.36
-2.25
-2.05
-1.84
-1.70
-1.68
-1.74
-1.80
-1.74
-1.51
-1.11
-0.64
-0.26
-0.09
-0.18
-0.42
-0.62
-0.58
-0.26
0.26
0.79
1.12
1.17
0.97
0.64
0.36
0.25
0.36
0.70
1.21
1.78
2.22
2.37
2.19
1.74
1.20
0.79
0.62
0.69
0.91
1.12
1.24
1.26
1.20
1.10
0.95
0.74
0.44
0.06
-0.35
-0.73
-1.07
-1.34
-1.57
-1.80
-2.06
-2.36
-2.67
-2.92
-3.04
-2.95
-2.63
-2.10
-1.47
-0.89
-0.49
-0.34
-0.42
-0.60
-0.73
-0.71
-0.51
-0.21
0.07
0.29
0.46
0.65
0.91
1.22
1.45
1.47
1.25
0.86
0.50
0.35
0.48
0.85
1.28
1.63
1.81
1.81
1.70
1.53
1.33
1.05
0.65
0.16
-0.34
-0.70
-0.79
-0.55
-0.05
0.52
0.93
1.03
0.78
0.33
-0.11
-0.37
-0.39
-0.23
-0.06
0.00
-0.13
-0.45
-0.94
-1.50
-2.05
-2.50
-2.76
-2.76
-2.51
-2.07
-1.54
-1.06
-0.69
-0.49
-0.42
-0.45
-0.50
-0.50
-0.41
-0.18
0.16
0.57
0.95
1.24
1.42
1.49
1.49
1.47
1.45
1.46
1.49
1.54
1.64
1.83
2.10
2.44
2.76
2.97
3.01
2.86
2.59
2.27
1.99
1.79
1.67
1.60
1.51
1.37
1.18
0.96
0.76
0.62
0.56
0.56
0.57
0.51
0.36
0.10
-0.20
-0.46
-0.61
-0.62
-0.51
-0.35
-0.20
-0.12
-0.13
-0.25
-0.46
-0.77
-1.14
-1.51
-1.76
-1.78
-1.52
-1.04
-0.50
-0.06
0.16
0.16
0.08
0.02
0.07
0.17
0.20
0.05
-0.26
-0.62
-0.86
-0.84
-0.56
-0.12
0.31
0.56
0.55
0.30
-0.07
-0.40
-0.58
-0.55
-0.37
-0.17
-0.06
-0.12
-0.29
-0.45
-0.50
-0.38
-0.18
-0.03
-0.08
-0.37
-0.85
-1.38
-1.82
-2.09
-2.16
-2.06
-1.87
-1.62
-1.36
-1.13
-0.96
-0.88
-0.91
-1.05
-1.26
-1.49
-1.63
-1.59
-1.30
-0.76
-0.05
0.68
1.25
1.48
1.32
0.84
0.21
-0.32
-0.56
-0.44
-0.04
0.48
0.94
1.25
1.38
1.38
1.32
1.21
1.07
0.88
0.68
0.52
0.46
0.53
0.67
0.83
0.93
0.92
0.80
0.62
0.41
0.24
0.15
0.13
0.15
0.18
0.15
0.04
-0.14
-0.32
-0.42
-0.40
-0.30
-0.19
-0.19
-0.33
-0.59
-0.90
-1.17
-1.39
-1.56
-1.71
-1.82
-1.87
-1.82
-1.68
-1.48
-1.31
-1.20
-1.15
-1.10
-0.96
-0.69
-0.31
0.10
0.42
0.57
0.53
0.37
0.23
0.23
0.42
0.76
1.12
1.35
1.37
1.20
0.92
0.66
0.54
0.59
0.78
1.04
1.28
1.43
1.46
1.35
1.17
0.94
0.71
0.46
0.16
-0.19
-0.57
-0.90
-1.09
-1.07
-0.87
-0.54
-0.21
0.04
0.15
0.09
-0.10
-0.36
-0.61
-0.79
-0.86
-0.85
-0.84
-0.91
-1.12
-1.44
-1.76
-1.97
-1.96
-1.72
-1.31
-0.81
-0.32
0.12
0.50
0.83
1.14
1.39
1.56
1.61
1.55
1.43
1.34
1.34
1.44
1.62
1.78
1.83
1.73
1.50
1.19
0.89
0.67
0.56
0.55
0.65
0.83
1.10
1.47
1.88
2.28
2.54
2.55
2.24
1.66
0.95
0.31
-0.11
-0.26
-0.20
-0.07
0.02
0.00
-0.11
-0.25
-0.38
-0.47
-0.53
-0.58
-0.61
-0.60
-0.55
-0.47
-0.39
-0.36
-0.39
-0.47
-0.60
-0.74
-0.87
-0.97
-1.03
-1.03
-0.93
-0.75
-0.50
-0.23
0.01
0.17
0.26
0.28
0.25
0.19
0.10
-0.03
-0.19
-0.37
-0.52
-0.62
-0.63
-0.57
-0.46
-0.35
-0.26
-0.18
-0.09
0.01
0.09
0.09
-0.03
-0.27
-0.56
-0.81
-0.93
-0.91
-0.77
-0.61
-0.47
-0.40
-0.38
-0.40
-0.45
-0.51
-0.56
-0.57
-0.53
-0.47
-0.43
-0.50
-0.72
-1.07
-1.48
-1.85
-2.11
-2.25
-2.28
-2.26
-2.20
-2.07
-1.85
-1.51
-1.08
-0.60
-0.14
0.25
0.56
0.76
0.86
0.85
0.77
0.63
0.50
0.42
0.42
0.48
0.56
0.61
0.58
0.47
0.32
0.18
0.11
0.14
0.30
0.53
0.80
1.00
1.09
1.04
0.89
0.74
0.65
0.67
0.77
0.88
0.92
0.87
0.76
0.62
0.47
0.27
-0.02
-0.44
-0.93
-1.37
-1.61
-1.57
-1.28
-0.86
-0.52
-0.42
-0.62
-1.04
-1.50
-1.82
-1.87
-1.62
-1.15
-0.60
-0.09
0.27
0.45
0.40
0.16
-0.20
-0.55
-0.78
-0.80
-0.60
-0.24
0.14
0.45
0.62
0.69
0.69
0.69
0.70
0.71
0.70
0.68
0.67
0.72
0.85
1.07
1.32
1.54
1.66
1.65
1.51
1.29
1.09
1.00
1.10
1.42
1.89
2.35
2.61
2.53
2.10
1.45
0.80
0.33
0.11
0.06
0.03
-0.10
-0.37
-0.71
-0.98
-1.09
-1.01
-0.77
-0.44
-0.13
0.08
0.16
0.12
0.06
0.08
0.27
0.61
1.01
1.35
1.54
1.56
1.45
1.29
1.13
0.99
0.85
0.73
0.64
0.57
0.51
0.41
0.25
0.03
-0.20
-0.41
-0.58
-0.73
-0.87
-1.01
-1.12
-1.19
-1.17
-1.08
-0.96
-0.87
-0.84
-0.87
-0.93
-1.00
-1.08
-1.19
-1.38
-1.69
-2.07
-2.44
-2.68
-2.68
-2.43
-2.01
-1.56
-1.23
-1.06
-1.03
-1.03
-0.97
-0.84
-0.72
-0.71
-0.85
-1.07
-1.20
-1.07
-0.62
0.06
0.76
1.30
1.60
1.70
1.71
1.72
1.67
1.49
1.07
0.46
-0.18
-0.63
-0.72
-0.44
0.10
0.69
1.16
1.41
1.46
1.36
1.15
0.86
0.49
0.03
-0.44
-0.83
-1.06
-1.09
-0.96
-0.79
-0.69
-0.72
-0.82
-0.90
-0.86
-0.70
-0.47
-0.27
-0.20
-0.25
-0.38
-0.50
-0.58
-0.60
-0.60
-0.61
-0.64
-0.68
-0.71
-0.68
-0.59
-0.41
-0.18
0.06
0.26
0.35
0.28
0.09
-0.16
-0.36
-0.43
-0.36
-0.18
0.03
0.24
0.45
0.70
0.96
1.20
1.33
1.34
1.23
1.06
0.88
0.67
0.41
0.09
-0.23
-0.46
-0.51
-0.40
-0.23
-0.14
-0.23
-0.46
-0.69
-0.77
-0.62
-0.31
0.03
0.27
0.33
0.21
-0.06
-0.45
-0.92
-1.37
-1.69
-1.74
-1.45
-0.89
-0.25
0.20
0.32
0.11
-0.24
-0.50
-0.52
-0.30
-0.01
0.21
0.30
0.34
0.49
0.87
1.43
2.04
2.49
2.69
2.65
2.49
2.35
2.29
2.26
2.19
2.00
1.69
1.34
1.03
0.83
0.79
0.89
1.10
1.39
1.72
2.02
2.25
2.34
2.28
2.08
1.79
1.46
1.12
0.81
0.57
0.44
0.42
0.50
0.58
0.58
0.41
0.04
-0.50
-1.11
-1.71
-2.21
-2.56
-2.71
-2.67
-2.46
-2.16
-1.85
-1.60
-1.47
-1.42
-1.42
-1.43
-1.45
-1.48
-1.52
-1.54
-1.49
-1.34
-1.09
-0.79
-0.51
-0.26
-0.01
0.28
0.59
0.87
1.01
0.94
0.67
0.29
-0.08
-0.34
-0.49
-0.57
-0.66
-0.74
-0.76
-0.63
-0.31
0.12
0.51
0.68
0.54
0.12
-0.46
-1.04
-1.52
-1.86
-2.05
-2.13
-2.09
-1.93
-1.67
-1.41
-1.23
-1.21
-1.35
-1.59
-1.82
-1.98
-2.02
-1.91
-1.68
-1.32
-0.89
-0.46
-0.10
0.10
0.15
0.13
0.14
0.31
0.62
0.97
1.24
1.31
1.18
0.94
0.69
0.53
0.46
0.42
0.34
0.19
-0.01
-0.22
-0.41
-0.56
-0.71
-0.89
-1.08
-1.21
-1.20
-1.04
-0.79
-0.55
-0.46
-0.56
-0.78
-1.02
-1.18
-1.24
-1.24
-1.27
-1.39
-1.59
-1.80
-1.93
-1.93
-1.77
-1.43
-0.90
-0.17
0.74
1.74
2.75
3.68
4.44
5.00
5.32
5.37
5.13
4.61
3.88
3.06
2.24
1.52
0.94
0.52
0.24
0.09
0.02
-0.04
-0.14
-0.36
-0.67
-1.05
-1.39
-1.63
-1.72
-1.68
-1.56
-1.42
-1.32
-1.28
-1.29
-1.34
-1.40
-1.45
-1.49
-1.53
-1.60
-1.74
-1.95
-2.24
-2.53
-2.77
-2.84
-2.67
-2.23
-1.50
-0.54
0.58
1.76
2.92
3.97
4.84
5.49
5.91
6.10
6.03
5.74
5.27
4.69
4.09
3.56
3.17
2.87
2.54
2.04
1.29
0.35
-0.60
-1.37
-1.80
-1.85
-1.72
-1.72
-2.11
-2.93
-3.97
-4.83
-5.12
-4.58
-3.23
-1.51
-0.13
0.28
-0.38
-1.73
-3.03
-3.50
-2.65
-0.42
2.43
4.62
4.98
3.25
0.14
-2.99
-4.72
-4.16
-1.13
3.14
6.57
7.36
5.10
0.82
-3.77
-6.83
-6.91
-2.77
5.68
17.18
29.29
38.70
41.43
33.72
13.65
-17.57
-52.00
-77.83
-86.75
-79.31
-62.76
-45.45
-32.72
-25.45
-22.23
-19.23
-14.73
-9.29
-4.23
-0.03
4.05
9.18
16.33
24.37
31.57
35.98
36.17
31.88
24.23
15.68
7.92
2.27
-0.64
-0.74
1.01
3.08
4.16
3.68
2.00
-0.10
-1.74
-2.39
-1.80
-0.29
1.44
2.72
3.19
2.96
2.28
1.55
1.04
0.95
1.19
1.52
1.68
1.55
1.17
0.70
0.29
0.03
-0.02
0.10
0.35
0.67
1.02
1.35
1.61
1.80
1.91
1.99
2.08
2.16
2.20
2.16
2.02
1.84
1.73
1.77
1.98
2.30
2.62
2.86
2.99
3.05
3.09
3.11
3.05
2.85
2.49
2.05
1.71
1.62
1.85
2.32
2.81
3.06
2.93
2.41
1.66
0.95
0.50
0.39
0.57
0.86
1.10
1.18
1.11
0.95
0.80
0.71
0.66
0.57
0.37
0.06
-0.29
-0.57
-0.69
-0.60
-0.31
0.07
0.46
0.77
1.00
1.21
1.49
1.90
2.43
2.99
3.43
3.65
3.64
3.49
3.35
3.32
3.44
3.64
3.83
3.90
3.79
3.50
3.11
2.68
2.27
1.95
1.72
1.55
1.38
1.16
0.88
0.56
0.31
0.17
0.10
-0.01
-0.28
-0.74
-1.29
-1.76
-1.98
-1.90
-1.61
-1.31
-1.16
-1.23
-1.45
-1.65
-1.65
-1.40
-0.97
-0.51
-0.17
-0.04
-0.08
-0.23
-0.37
-0.45
-0.46
-0.43
-0.37
-0.28
-0.17
-0.05
0.02
-0.04
-0.26
-0.58
-0.89
-1.05
-1.03
-0.86
-0.66
-0.57
-0.62
-0.78
-0.87
-0.77
-0.43
0.08
0.58
0.90
0.99
0.89
0.74
0.69
0.79
1.01
1.26
1.45
1.59
1.73
1.95
2.28
2.66
2.98
3.14
3.10
2.92
2.72
2.59
2.56
2.60
2.66
2.68
2.64
2.55
2.39
2.12
1.74
1.27
0.79
0.42
0.25
0.28
0.47
0.71
0.90
1.01
1.02
0.97
0.93
0.92
0.92
0.86
0.64
0.23
-0.32
-0.90
-1.35
-1.54
-1.45
-1.16
-0.80
-0.48
-0.27
-0.19
-0.20
-0.28
-0.37
-0.43
-0.39
-0.23
0.03
0.37
0.72
1.01
1.21
1.28
1.21
1.02
0.75
0.50
0.35
0.37
0.54
0.79
1.00
1.07
0.98
0.75
0.47
0.25
0.13
0.09
0.09
0.02
-0.17
-0.51
-0.93
-1.34
-1.65
-1.81
-1.85
-1.83
-1.81
-1.80
-1.79
-1.75
-1.69
-1.66
-1.71
-1.83
-1.97
-2.02
-1.89
-1.58
-1.16
-0.76
-0.51
-0.46
-0.59
-0.78
-0.91
-0.86
-0.63
-0.30
-0.01
0.11
0.01
-0.27
-0.60
-0.83
-0.92
-0.94
-1.01
-1.21
-1.50
-1.73
-1.75
-1.50
-1.05
-0.60
-0.36
-0.38
-0.59
-0.80
-0.85
-0.67
-0.36
-0.07
0.06
-0.04
-0.33
-0.71
-1.05
-1.27
-1.32
-1.22
-1.02
-0.77
-0.51
-0.29
-0.12
0.03
0.21
0.47
0.82
1.19
1.53
1.73
1.75
1.58
1.28
0.94
0.64
0.47
0.49
0.69
0.98
1.25
1.37
1.28
1.06
0.81
0.67
0.69
0.80
0.92
0.93
0.82
0.62
0.39
0.17
-0.00
-0.12
-0.17
-0.13
-0.03
0.07
0.06
-0.12
-0.47
-0.91
-1.30
-1.54
-1.59
-1.49
-1.32
-1.15
-1.01
-0.90
-0.84
-0.84
-0.89
-0.96
-1.02
-1.03
-0.98
-0.92
-0.87
-0.87
-0.92
-0.98
-1.04
-1.08
-1.07
-0.92
-0.58
-0.03
0.69
1.43
2.02
2.35
2.39
2.22
1.95
1.67
1.44
1.27
1.20
1.23
1.37
1.57
1.72
1.71
1.46
0.99
0.41
-0.11
-0.39
-0.34
0.01
0.53
1.06
1.47
1.70
1.82
1.91
2.04
2.19
2.30
2.28
2.11
1.80
1.45
1.14
0.92
0.78
0.67
0.56
0.40
0.20
-0.05
-0.34
-0.65
-0.97
-1.27
-1.51
-1.66
-1.71
-1.68
-1.60
-1.56
-1.63
-1.85
-2.19
-2.58
-2.89
-3.06
-3.05
-2.92
-2.74
-2.56
-2.35
-2.10
-1.79
-1.49
-1.32
-1.34
-1.55
-1.82
-1.98
-1.89
-1.55
-1.06
-0.59
-0.27
-0.12
-0.06
0.01
0.14
0.32
0.47
0.52
0.47
0.36
0.30
0.33
0.46
0.62
0.75
0.83
0.88
0.91
0.92
0.88
0.76
0.55
0.27
0.00
-0.23
-0.41
-0.57
-0.71
-0.85
-0.97
-1.06
-1.12
-1.19
-1.30
-1.41
-1.48
-1.45
-1.33
-1.14
-0.95
-0.83
-0.79
-0.78
-0.75
-0.64
-0.46
-0.24
-0.01
0.19
0.38
0.54
0.70
0.82
0.90
0.93
0.93
0.94
0.97
0.99
0.91
0.71
0.39
0.05
-0.16
-0.16
0.04
0.30
0.44
0.33
-0.04
-0.53
-0.96
-1.18
-1.18
-1.05
-0.93
-0.96
-1.15
-1.43
-1.69
-1.85
-1.89
-1.85
-1.79
-1.71
-1.59
-1.33
-0.96
-0.51
-0.14
0.05
0.03
-0.13
-0.27
-0.28
-0.11
0.13
0.34
0.42
0.35
0.20
0.08
0.04
0.06
0.11
0.13
0.14
0.19
0.32
0.55
0.79
0.93
0.85
0.54
0.06
-0.46
-0.89
-1.18
-1.30
-1.27
-1.11
-0.86
-0.61
-0.44
-0.46
-0.70
-1.09
-1.47
-1.67
-1.61
-1.33
-0.96
-0.60
-0.32
-0.11
0.09
0.33
0.60
0.87
1.07
1.15
1.09
0.90
0.63
0.31
-0.03
-0.41
-0.83
-1.30
-1.77
-2.16
-2.43
-2.57
-2.62
-2.64
-2.68
-2.73
-2.70
-2.54
-2.27
-1.98
-1.82
-1.93
-2.31
-2.83
-3.31
-3.60
-3.68
-3.68
-3.79
-4.14
-4.71
-5.32
-5.70
-5.64
-5.11
-4.18
-3.05
-1.87
-0.70
0.51
1.84
3.35
4.99
6.58
7.90
8.75
9.03
8.80
8.23
7.49
6.73
6.05
5.44
4.95
4.57
4.34
4.28
4.34
4.42
4.45
4.40
4.27
4.13
4.00
3.86
3.65
3.31
2.80
2.18
1.57
1.11
0.89
0.93
1.16
1.44
1.63
1.64
1.44
1.09
0.67
0.29
-0.03
-0.29
-0.51
-0.72
-0.90
-1.00
-0.99
-0.84
-0.56
-0.24
-0.01
0.02
-0.22
-0.69
-1.25
-1.75
-2.06
-2.17
-2.15
-2.09
-2.08
-2.06
-1.97
-1.72
-1.28
-0.70
-0.10
0.42
0.78
0.95
0.93
0.77
0.52
0.22
-0.08
-0.44
-0.93
-1.61
-2.47
-3.38
-4.16
-4.64
-4.74
-4.51
-4.10
-3.67
-3.36
-3.21
-3.21
-3.33
-3.51
-3.72
-3.92
-4.10
-4.26
-4.39
-4.53
-4.73
-4.99
-5.30
-5.54
-5.52
-5.02
-3.88
-2.03
0.38
3.09
5.79
8.22
10.26
11.86
13.01
13.69
13.83
13.46
12.64
11.53
10.33
9.19
8.18
7.24
6.26
5.16
3.93
2.73
1.78
1.32
1.48
2.23
3.41
4.74
5.94
6.81
7.24
7.24
6.87
6.22
5.35
4.34
3.26
2.14
1.07
0.10
-0.66
-1.14
-1.30
-1.18
-0.91
-0.66
-0.57
-0.69
-0.98
-1.32
-1.57
-1.66
-1.58
-1.39
-1.23
-1.18
-1.31
-1.62
-2.08
-2.66
-3.33
-4.03
-4.69
-5.22
-5.48
-5.42
-5.04
-4.45
-3.84
-3.38
-3.21
-3.33
-3.63
-3.92
-4.01
-3.80
-3.30
-2.64
-1.95
-1.37
-0.94
-0.66
-0.50
-0.44
-0.46
-0.51
-0.49
-0.33
0.01
0.43
0.77
0.82
0.52
-0.08
-0.82
-1.52
-2.08
-2.53
-2.94
-3.36
-3.75
-4.02
-4.04
-3.76
-3.24
-2.58
-1.93
-1.35
-0.86
-0.42
-0.05
0.24
0.38
0.35
0.14
-0.14
-0.41
-0.57
-0.57
-0.45
-0.30
-0.23
-0.34
-0.69
-1.24
-1.92
-2.59
-3.15
-3.52
-3.69
-3.69
-3.59
-3.44
-3.28
-3.11
-2.92
-2.69
-2.42
-2.13
-1.88
-1.70
-1.63
-1.69
-1.83
-2.02
-2.20
-2.32
-2.36
-2.32
-2.19
-1.98
-1.69
-1.34
-0.94
-0.53
-0.18
0.04
0.10
-0.00
-0.20
-0.36
-0.36
-0.11
0.37
1.01
1.66
2.20
2.55
2.67
2.61
2.43
2.21
2.02
1.90
1.92
2.10
2.42
2.81
3.18
3.44
3.54
3.48
3.32
3.11
2.85
2.54
2.14
1.62
1.05
0.49
0.03
-0.27
-0.45
-0.57
-0.67
-0.75
-0.77
-0.65
-0.38
-0.01
0.36
0.63
0.71
0.60
0.33
-0.06
-0.51
-0.99
-1.42
-1.71
-1.79
-1.65
-1.40
-1.17
-1.08
-1.14
-1.30
-1.40
-1.34
-1.06
-0.56
0.07
0.73
1.32
1.73
1.89
1.80
1.49
1.08
0.71
0.50
0.49
0.63
0.81
0.92
0.88
0.70
0.43
0.18
0.05
0.06
0.15
0.22
0.16
-0.02
-0.30
-0.57
-0.78
-0.95
-1.12
-1.33
-1.56
-1.71
-1.70
-1.54
-1.35
-1.32
-1.58
-2.13
-2.83
-3.47
-3.84
-3.83
-3.45
-2.83
-2.11
-1.44
-0.88
-0.43
-0.04
0.35
0.75
1.15
1.47
1.70
1.84
1.95
2.12
2.40
2.75
3.11
3.37
3.47
3.40
3.20
2.92
2.61
2.31
2.08
1.96
1.94
1.99
2.01
1.89
1.61
1.16
0.66
0.19
-0.16
-0.36
-0.44
-0.44
-0.45
-0.51
-0.64
-0.82
-0.97
-1.03
-0.98
-0.87
-0.80
-0.86
-1.06
-1.37
-1.68
-1.92
-2.04
-2.04
-1.96
-1.84
-1.69
-1.55
-1.43
-1.38
-1.39
-1.45
-1.52
-1.50
-1.33
-0.92
-0.25
0.59
1.47
2.19
2.60
2.66
2.43
2.08
1.75
1.55
1.47
1.45
1.43
1.33
1.13
0.82
0.42
0.03
-0.26
-0.35
-0.22
0.05
0.34
0.51
0.48
0.29
0.02
-0.24
-0.42
-0.54
-0.62
-0.64
-0.59
-0.43
-0.19
0.06
0.24
0.25
0.06
-0.30
-0.77
-1.23
-1.59
-1.77
-1.72
-1.50
-1.16
-0.80
-0.47
-0.17
0.16
0.55
1.00
1.45
1.79
1.96
1.97
1.88
1.78
1.73
1.72
1.70
1.64
1.54
1.42
1.31
1.22
1.20
1.26
1.43
1.74
2.16
2.64
3.10
3.44
3.58
3.52
3.32
3.10
3.03
3.28
3.93
4.92
6.04
7.01
7.59
7.78
7.75
7.85
8.37
9.38
10.73
12.06
13.01
13.37
13.19
12.76
12.54
13.09
14.94
18.41
23.43
29.18
34.15
36.35
33.95
26.01
12.88
-3.82
-21.69
-38.31
-51.82
-61.14
-65.90
-66.21
-62.57
-55.84
-47.23
-38.17
-29.96
-23.42
-18.71
-15.43
-12.92
-10.63
-8.27
-5.85
-3.55
-1.55
0.01
1.07
1.59
1.64
1.34
0.92
0.59
0.53
0.80
1.32
2.00
2.72
3.43
4.13
4.81
5.46
6.02
6.46
6.75
6.89
6.87
6.74
6.51
6.24
5.99
5.80
5.65
5.50
5.30
5.00
4.61
4.19
3.77
3.40
3.11
2.87
2.67
2.47
2.23
1.92
1.50
0.96
0.31
-0.41
-1.12
-1.74
-2.21
-2.53
-2.75
-2.92
-3.10
-3.30
-3.51
-3.72
-3.95
-4.20
-4.47
-4.71
-4.77
-4.55
-3.97
-3.07
-1.97
-0.85
0.19
1.14
2.08
3.08
4.18
5.31
6.34
7.12
7.60
7.80
7.87
7.93
8.07
8.26
8.40
8.41
8.21
7.84
7.35
6.82
6.29
5.74
5.18
4.62
4.12
3.73
3.47
3.31
3.12
2.82
2.36
1.78
1.18
0.67
0.29
0.03
-0.17
-0.35
-0.51
-0.64
-0.72
-0.77
-0.82
-0.93
-1.11
-1.35
-1.63
-1.87
-2.04
-2.08
-1.97
-1.72
-1.38
-1.03
-0.77
-0.68
-0.77
-1.04
-1.43
-1.90
-2.39
-2.87
-3.32
-3.74
-4.13
-4.48
-4.77
-4.94
-4.93
-4.73
-4.40
-4.02
-3.75
-3.63
-3.66
-3.72
-3.68
-3.49
-3.17
-2.81
-2.52
-2.31
-2.13
-1.89
-1.58
-1.22
-0.94
-0.80
-0.80
-0.84
-0.79
-0.56
-0.16
0.31
0.71
0.98
1.15
1.34
1.63
2.02
2.40
2.62
2.59
2.37
2.13
2.07
2.27
2.64
2.99
3.16
3.08
2.81
2.49
2.20
1.93
1.62
1.22
0.76
0.35
0.12
0.13
0.33
0.60
0.78
0.77
0.56
0.20
-0.16
-0.44
-0.57
-0.61
-0.66
-0.82
-1.11
-1.46
-1.69
-1.68
-1.38
-0.89
-0.42
-0.13
-0.08
-0.21
-0.37
-0.42
-0.33
-0.11
0.18
0.48
0.77
1.03
1.25
1.41
1.48
1.47
1.37
1.21
1.01
0.80
0.62
0.49
0.44
0.47
0.50
0.49
0.41
0.27
0.15
0.15
0.31
0.64
1.07
1.46
1.71
1.74
1.55
1.26
1.02
0.93
0.99
1.10
1.11
0.93
0.56
0.16
-0.08
-0.04
0.27
0.75
1.21
1.51
1.62
1.57
1.44
1.33
1.29
1.32
1.40
1.44
1.40
1.27
1.08
0.91
0.78
0.72
0.66
0.60
0.51
0.43
0.41
0.46
0.52
0.54
0.45
0.27
0.07
-0.08
-0.15
-0.13
-0.10
-0.14
-0.27
-0.50
-0.75
-0.96
-1.07
-1.07
-0.99
-0.89
-0.84
-0.87
-0.97
-1.07
-1.11
-1.07
-0.96
-0.84
-0.75
-0.69
-0.64
-0.54
-0.40
-0.22
-0.04
0.10
0.22
0.32
0.44
0.57
0.68
0.76
0.82
0.84
0.84
0.83
0.79
0.75
0.72
0.75
0.86
1.03
1.22
1.39
1.50
1.53
1.49
1.41
1.29
1.08
0.78
0.40
0.01
-0.29
-0.41
-0.30
-0.02
0.31
0.54
0.57
0.36
-0.03
-0.47
-0.85
-1.11
-1.23
-1.25
-1.18
-1.00
-0.68
-0.22
0.31
0.76
1.01
0.98
0.72
0.34
-0.00
-0.22
-0.33
-0.38
-0.47
-0.60
-0.74
-0.82
-0.79
-0.70
-0.59
-0.51
-0.49
-0.50
-0.53
-0.57
-0.66
-0.81
-1.03
-1.26
-1.44
-1.50
-1.46
-1.38
-1.33
-1.37
-1.50
-1.65
-1.77
-1.82
-1.86
-1.95
-2.14
-2.46
-2.79
-3.01
-2.96
-2.59
-1.98
-1.29
-0.71
-0.33
-0.16
-0.10
-0.05
0.04
0.16
0.26
0.28
0.22
0.10
-0.01
-0.06
-0.03
0.06
0.18
0.27
0.29
0.24
0.12
-0.01
-0.11
-0.14
-0.10
-0.03
0.04
0.06
0.00
-0.12
-0.32
-0.57
-0.80
-0.96
-0.97
-0.86
-0.70
-0.65
-0.86
-1.34
-1.99
-2.60
-2.92
-2.83
-2.37
-1.70
-1.06
-0.59
-0.34
-0.20
-0.04
0.24
0.62
1.00
1.27
1.39
1.38
1.33
1.31
1.32
1.33
1.28
1.17
1.04
0.94
0.95
1.07
1.22
1.32
1.31
1.18
1.03
0.94
0.99
1.14
1.31
1.39
1.33
1.14
0.92
0.75
0.66
0.60
0.48
0.23
-0.16
-0.59
-0.95
-1.14
-1.12
-0.94
-0.70
-0.49
-0.36
-0.31
-0.24
-0.08
0.22
0.62
1.02
1.29
1.35
1.20
0.95
0.73
0.63
0.69
0.89
1.12
1.31
1.40
1.39
1.29
1.16
1.05
0.99
0.97
0.97
0.95
0.85
0.68
0.46
0.24
0.04
-0.12
-0.27
-0.44
-0.66
-0.94
-1.24
-1.51
-1.70
-1.79
-1.77
-1.68
-1.57
-1.48
-1.44
-1.46
-1.49
-1.48
-1.37
-1.15
-0.82
-0.45
-0.10
0.16
0.33
0.43
0.52
0.61
0.66
0.61
0.39
0.02
-0.43
-0.83
-1.03
-0.96
-0.65
-0.21
0.18
0.43
0.46
0.29
-0.01
-0.39
-0.78
-1.13
-1.39
-1.50
-1.43
-1.18
-0.81
-0.44
-0.20
-0.17
-0.38
-0.79
-1.28
-1.74
-2.08
-2.22
-2.15
-1.91
-1.55
-1.16
-0.83
-0.56
-0.33
-0.09
0.19
0.49
0.75
0.92
1.02
1.10
1.21
1.37
1.51
1.51
1.28
0.86
0.42
0.17
0.27
0.72
1.35
1.86
2.05
1.82
1.23
0.46
-0.28
-0.82
-1.13
-1.20
-1.12
-0.91
-0.61
-0.25
0.12
0.45
0.64
0.67
0.51
0.22
-0.16
-0.60
-1.07
-1.56
-2.04
-2.42
-2.61
-2.53
-2.15
-1.59
-1.01
-0.57
-0.35
-0.32
-0.36
-0.32
-0.11
0.23
0.61
0.92
1.06
1.05
0.93
0.79
0.69
0.67
0.76
1.01
1.40
1.89
2.32
2.53
2.37
1.86
1.11
0.40
-0.08
-0.21
-0.05
0.21
0.40
0.44
0.38
0.32
0.35
0.48
0.60
0.63
0.50
0.26
0.02
-0.12
-0.12
-0.03
0.06
0.03
-0.13
-0.39
-0.62
-0.74
-0.66
-0.41
-0.02
0.43
0.88
1.31
1.70
2.06
2.41
2.78
3.16
3.51
3.75
3.77
3.53
3.06
2.51
2.08
1.91
2.02
2.28
2.52
2.60
2.49
2.22
1.91
1.60
1.33
1.08
0.84
0.63
0.46
0.30
0.08
-0.24
-0.64
-1.04
-1.29
-1.29
-1.04
-0.68
-0.37
-0.27
-0.44
-0.84
-1.36
-1.91
-2.40
-2.81
-3.10
-3.22
-3.14
-2.87
-2.51
-2.20
-2.05
-2.07
-2.13
-2.07
-1.79
-1.26
-0.61
0.01
0.44
0.65
0.65
0.53
0.36
0.23
0.16
0.13
0.12
0.10
0.04
-0.04
-0.11
-0.09
0.04
0.24
0.42
0.47
0.32
-0.01
-0.44
-0.86
-1.18
-1.38
-1.50
-1.62
-1.76
-1.93
-2.09
-2.21
-2.30
-2.37
-2.45
-2.53
-2.63
-2.73
-2.86
-3.01
-3.17
-3.26
-3.21
-2.97
-2.54
-2.00
-1.42
-0.89
-0.46
-0.11
0.18
0.49
0.85
1.31
1.83
2.30
2.62
2.69
2.51
2.18
1.86
1.71
1.78
2.04
2.35
2.55
2.56
2.35
2.00
1.64
1.37
1.25
1.22
1.18
1.04
0.76
0.39
0.03
-0.25
-0.42
-0.54
-0.65
-0.80
-0.98
-1.13
-1.25
-1.34
-1.46
-1.66
-1.95
-2.27
-2.49
-2.49
-2.17
-1.58
-0.84
-0.19
0.22
0.31
0.16
-0.06
-0.20
-0.17
0.01
0.23
0.36
0.33
0.15
-0.07
-0.22
-0.19
0.02
0.36
0.70
0.94
1.02
0.95
0.81
0.68
0.59
0.52
0.42
0.25
0.05
-0.11
-0.13
0.01
0.27
0.50
0.58
0.42
0.09
-0.30
-0.60
-0.71
-0.66
-0.53
-0.46
-0.56
-0.86
-1.27
-1.71
-2.03
-2.16
-2.06
-1.76
-1.30
-0.78
-0.28
0.12
0.36
0.44
0.37
0.23
0.13
0.13
0.25
0.42
0.57
0.66
0.70
0.74
0.84
1.06
1.36
1.69
1.94
2.04
1.94
1.68
1.32
0.96
0.68
0.52
0.48
0.51
0.59
0.70
0.82
0.93
0.99
0.93
0.73
0.40
0.03
-0.28
-0.45
-0.45
-0.32
-0.14
0.02
0.09
0.07
-0.02
-0.12
-0.16
-0.14
-0.09
-0.06
-0.10
-0.20
-0.27
-0.21
0.06
0.53
1.11
1.65
2.03
2.18
2.09
1.80
1.40
0.98
0.64
0.46
0.44
0.54
0.69
0.81
0.88
0.93
0.99
1.06
1.11
1.06
0.86
0.52
0.12
-0.23
-0.42
-0.39
-0.16
0.20
0.61
0.96
1.21
1.32
1.33
1.26
1.18
1.14
1.18
1.28
1.39
1.46
1.44
1.36
1.29
1.28
1.37
1.50
1.60
1.61
1.56
1.56
1.76
2.22
2.86
3.53
4.04
4.28
4.28
4.12
3.93
3.73
3.51
3.22
2.84
2.42
2.04
1.80
1.74
1.79
1.86
1.82
1.64
1.32
0.93
0.56
0.26
0.04
-0.13
-0.34
-0.61
-0.95
-1.30
-1.59
-1.76
-1.79
-1.70
-1.64
-1.85
-2.46
-3.44
-4.56
-5.46
-5.77
-5.24
-3.93
-2.29
-1.01
-0.69
-1.49
-3.07
-4.74
-5.69
-5.32
-3.57
-1.10
0.99
1.69
0.69
-1.59
-4.06
-5.37
-4.35
-0.49
5.71
12.87
19.32
23.52
24.24
20.57
12.01
-0.57
-13.90
-23.55
-26.61
-23.27
-16.45
-10.37
-8.61
-12.59
-20.93
-30.36
-37.56
-40.61
-39.45
-35.29
-29.61
-23.29
-16.34
-8.30
1.02
10.90
19.71
25.65
27.32
24.44
17.89
9.53
1.55
-4.26
-7.18
-7.55
-6.27
-4.18
-1.70
1.16
4.51
8.17
11.64
14.11
14.90
13.92
11.50
8.38
5.30
2.77
0.94
-0.35
-1.43
-2.70
-4.32
-6.28
-8.31
-10.01
-10.95
-10.91
-10.02
-8.84
-8.31
-9.32
-12.26
-16.55
-20.46
-21.46
-17.16
-6.34
10.45
30.39
49.82
65.37
74.74
76.96
72.28
61.80
47.32
31.01
15.26
2.14
-7.05
-12.17
-14.02
-13.89
-12.95
-12.01
-11.48
-11.52
-12.10
-13.00
-13.84
-14.16
-13.39
-11.37
-8.34
-5.05
-2.32
-0.69
-0.23
-0.48
-0.68
-0.06
1.78
4.68
7.94
10.68
12.19
12.21
11.03
9.41
8.34
8.74
11.25
15.87
21.94
27.92
31.48
30.12
22.16
7.65
-11.24
-30.68
-46.67
-56.15
-58.12
-53.69
-45.24
-35.36
-25.99
-18.31
-11.90
-7.24
-4.79
-4.81
-7.07
-10.74
-14.60
-17.39
-18.33
-17.32
-15.09
-12.57
-10.56
-9.45
-9.13
-9.16
-9.01
-8.32
-6.99
-5.31
-3.61
-2.20
-1.38
-1.25
-1.76
-2.68
-3.64
-4.31
-4.54
-4.35
-3.85
-3.19
-2.41
-1.49
-0.37
0.88
2.05
2.79
2.80
1.96
0.33
-1.91
-4.54
-7.38
-10.32
-13.23
-15.96
-18.30
-19.97
-20.75
-20.51
-19.31
-17.31
-14.74
-11.85
-8.86
-5.98
-3.31
-0.97
1.03
2.69
4.10
5.33
6.43
7.41
8.25
8.87
9.25
9.37
9.26
8.96
8.53
8.01
7.44
6.83
6.16
5.40
4.55
3.59
2.60
1.62
0.74
-0.01
-0.65
-1.19
-1.66
-2.04
-2.29
-2.37
-2.29
-2.05
-1.71
-1.27
-0.73
-0.07
0.70
1.51
2.26
2.84
3.24
3.51
3.75
4.08
4.55
5.19
5.95
6.78
7.62
8.41
9.13
9.77
10.39
11.00
11.60
12.13
12.49
12.61
12.48
12.16
11.74
11.26
10.71
10.04
9.20
8.20
7.10
6.00
4.98
4.04
3.13
2.17
1.10
-0.05
-1.18
-2.13
-2.73
-2.87
-2.56
-1.90
-1.07
-0.25
0.41
0.82
0.95
0.83
0.48
-0.02
-0.61
-1.17
-1.62
-1.84
-1.79
-1.47
-0.94
-0.33
0.22
0.59
0.72
0.62
0.35
0.02
-0.27
-0.45
-0.45
-0.23
0.25
0.96
1.80
2.63
3.30
3.68
3.72
3.44
2.90
2.20
1.47
0.83
0.39
0.23
0.30
0.54
0.82
1.09
1.39
1.82
2.48
3.39
4.45
5.47
6.24
6.65
6.67
6.40
6.00
5.59
5.24
4.95
4.66
4.33
3.95
3.54
3.19
2.92
2.77
2.71
2.68
2.63
2.50
2.26
1.92
1.54
1.17
0.87
0.60
0.32
-0.04
-0.54
-1.12
-1.70
-2.20
-2.55
-2.77
-2.88
-2.89
-2.76
-2.42
-1.84
-1.05
-0.15
0.73
1.49
2.13
2.67
3.21
3.74
4.20
4.48
4.47
4.16
3.63
3.02
2.46
2.03
1.77
1.66
1.75
2.05
2.55
3.15
3.69
4.03
4.08
3.87
3.51
3.12
2.80
2.53
2.30
2.05
1.81
1.60
1.47
1.43
1.44
1.42
1.24
0.79
0.03
-0.97
-2.05
-3.00
-3.66
-3.95
-3.95
-3.79
-3.61
-3.44
-3.20
-2.74
-1.95
-0.83
0.49
1.77
2.81
3.49
3.85
4.04
4.23
4.52
4.92
5.35
5.68
5.80
5.65
5.21
4.54
3.76
2.98
2.31
1.84
1.59
1.54
1.63
1.78
1.98
2.22
2.54
2.95
3.41
3.87
4.22
4.37
4.30
4.02
3.57
2.98
2.26
1.42
0.45
-0.60
-1.64
-2.56
-3.30
-3.85
-4.30
-4.71
-5.13
-5.50
-5.70
-5.61
-5.20
-4.54
-3.79
-3.09
-2.51
-2.02
-1.55
-1.00
-0.34
0.38
1.13
1.85
2.50
3.05
3.47
3.72
3.79
3.75
3.68
3.68
3.78
3.91
3.94
3.80
3.49
3.15
2.95
2.99
3.24
3.55
3.72
3.62
3.25
2.74
2.23
1.85
1.65
1.61
1.64
1.67
1.62
1.45
1.13
0.66
0.10
-0.47
-0.99
-1.45
-1.88
-2.30
-2.70
-3.01
-3.15
-3.07
-2.77
-2.38
-1.99
-1.68
-1.44
-1.23
-1.03
-0.84
-0.71
-0.65
-0.66
-0.65
-0.54
-0.29
0.07
0.49
0.87
1.15
1.30
1.33
1.30
1.26
1.27
1.34
1.46
1.52
1.48
1.30
1.07
0.91
0.96
1.23
1.61
1.94
2.04
1.83
1.36
0.77
0.24
-0.11
-0.21
-0.06
0.24
0.61
0.93
1.08
0.97
0.61
0.06
-0.50
-0.91
-1.08
-1.02
-0.84
-0.66
-0.57
-0.57
-0.62
-0.68
-0.74
-0.83
-0.95
-1.08
-1.12
-0.99
-0.64
-0.06
0.66
1.43
2.16
2.83
3.42
3.92
4.30
4.55
4.62
4.49
4.15
3.61
2.85
1.91
0.83
-0.28
-1.29
-2.05
-2.45
-2.42
-1.99
-1.24
-0.36
0.41
0.85
0.82
0.30
-0.54
-1.45
-2.19
-2.63
-2.77
-2.73
-2.64
-2.58
-2.57
-2.58
-2.60
-2.67
-2.83
-3.11
-3.44
-3.71
-3.78
-3.57
-3.11
-2.50
-1.89
-1.37
-0.96
-0.60
-0.24
0.15
0.53
0.85
1.07
1.19
1.24
1.24
1.20
1.11
0.97
0.79
0.63
0.51
0.41
0.29
0.07
-0.26
-0.63
-0.91
-0.99
-0.80
-0.42
0.03
0.39
0.56
0.54
0.41
0.27
0.21
0.24
0.28
0.25
0.08
-0.22
-0.62
-1.04
-1.44
-1.80
-2.13
-2.43
-2.72
-2.98
-3.23
-3.42
-3.52
-3.50
-3.34
-3.10
-2.86
-2.72
-2.70
-2.74
-2.73
-2.54
-2.13
-1.55
-0.93
-0.41
-0.09
-0.03
-0.19
-0.49
-0.85
-1.13
-1.25
-1.16
-0.86
-0.42
0.06
0.47
0.74
0.88
0.94
0.96
1.00
1.08
1.19
1.27
1.29
1.21
1.06
0.87
0.67
0.48
0.32
0.18
0.08
0.02
0.02
0.05
0.09
0.08
-0.04
-0.29
-0.67
-1.15
-1.69
-2.24
-2.77
-3.23
-3.54
-3.64
-3.50
-3.16
-2.70
-2.21
-1.77
-1.40
-1.08
-0.74
-0.38
-0.04
0.17
0.15
-0.12
-0.57
-1.04
-1.36
-1.42
-1.20
-0.74
-0.17
0.39
0.82
1.04
1.03
0.78
0.39
-0.05
-0.44
-0.68
-0.79
-0.84
-0.90
-1.06
-1.37
-1.82
-2.34
-2.87
-3.33
-3.68
-3.90
-3.99
-3.97
-3.88
-3.74
-3.61
-3.53
-3.52
-3.61
-3.77
-3.92
-3.99
-3.92
-3.69
-3.32
-2.90
-2.53
-2.27
-2.12
-2.00
-1.78
-1.33
-0.63
0.26
1.16
1.91
2.44
2.81
3.18
3.70
4.40
5.20
5.91
6.38
6.54
6.47
6.28
6.07
5.89
5.71
5.49
5.26
5.02
4.81
4.65
4.52
4.39
4.25
4.09
3.89
3.62
3.27
2.88
2.54
2.35
2.35
2.51
2.78
3.14
3.64
4.41
5.50
6.87
8.36
9.76
10.99
12.08
13.21
14.57
16.22
18.05
19.85
21.37
22.43
22.89
22.65
21.58
19.52
16.33
11.94
6.40
-0.10
-7.22
-14.49
-21.34
-27.20
-31.59
-34.22
-35.06
-34.28
-32.21
-29.26
-25.86
-22.36
-19.03
-16.00
-13.30
-10.86
-8.60
-6.47
-4.46
-2.65
-1.11
0.11
1.04
1.79
2.51
3.25
4.04
4.77
5.32
5.60
5.60
5.39
5.08
4.77
4.50
4.24
3.92
3.48
2.89
2.19
1.46
0.79
0.27
-0.07
-0.25
-0.34
-0.41
-0.51
-0.62
-0.73
-0.79
-0.81
-0.82
-0.86
-0.98
-1.18
-1.44
-1.73
-2.00
-2.20
-2.34
-2.41
-2.44
-2.44
-2.42
-2.34
-2.15
-1.82
-1.38
-0.92
-0.57
-0.41
-0.43
-0.53
-0.62
-0.58
-0.41
-0.14
0.19
0.50
0.71
0.75
0.55
0.14
-0.37
-0.84
-1.11
-1.16
-1.05
-0.89
-0.76
-0.65
-0.47
-0.13
0.40
1.07
1.79
2.51
3.23
3.97
4.71
5.34
5.70
5.74
5.55
5.39
5.57
6.26
7.44
8.86
10.18
11.16
11.75
12.13
12.56
13.26
14.23
15.28
16.13
16.51
16.25
15.37
13.94
12.09
9.93
7.58
5.19
2.92
0.94
-0.73
-2.18
-3.64
-5.33
-7.37
-9.64
-11.85
-13.61
-14.61
-14.72
-13.98
-12.57
-10.71
-8.61
-6.51
-4.64
-3.30
-2.75
-3.17
-4.59
-6.80
-9.43
-12.02
-14.10
-15.35
-15.64
-15.02
-13.67
-11.87
-9.87
-7.91
-6.14
-4.69
-3.61
-2.91
-2.54
-2.41
-2.38
-2.28
-1.92
-1.14
0.09
1.74
3.63
5.52
7.16
8.36
9.07
9.30
9.12
8.64
7.91
6.97
5.84
4.50
2.90
1.04
-1.05
-3.29
-5.55
-7.68
-9.57
-11.18
-12.51
-13.61
-14.52
-15.29
-15.94
-16.45
-16.76
-16.76
-16.33
-15.40
-14.04
-12.39
-10.64
-8.92
-7.23
-5.50
-3.62
-1.59
0.45
2.27
3.62
4.37
4.54
4.32
3.90
3.51
3.24
3.11
3.09
3.07
2.93
2.55
1.87
0.93
-0.12
-1.04
-1.60
-1.67
-1.33
-0.78
-0.31
-0.10
-0.21
-0.55
-1.00
-1.46
-1.89
-2.31
-2.71
-3.04
-3.16
-2.99
-2.53
-1.90
-1.30
-0.90
-0.75
-0.79
-0.86
-0.81
-0.57
-0.19
0.25
0.66
1.01
1.30
1.52
1.65
1.66
1.57
1.41
1.27
1.23
1.32
1.50
1.67
1.69
1.48
1.04
0.46
-0.14
-0.61
-0.88
-0.92
-0.76
-0.45
-0.05
0.39
0.82
1.18
1.42
1.50
1.45
1.32
1.17
1.02
0.85
0.62
0.31
-0.09
-0.52
-0.93
-1.26
-1.50
-1.64
-1.70
-1.75
-1.89
-2.14
-2.43
-2.56
-2.24
-1.22
0.55
2.91
5.49
7.83
9.59
10.56
10.80
10.44
9.71
8.76
7.69
6.54
5.27
3.87
2.34
0.74
-0.81
-2.17
-3.19
-3.80
-4.00
-3.90
-3.61
-3.26
-2.88
-2.42
-1.77
-0.90
0.19
1.34
2.38
3.15
3.61
3.82
3.88
3.86
3.75
3.47
2.91
2.02
0.84
-0.52
-1.90
-3.16
-4.17
-4.85
-5.10
-4.93
-4.35
-3.43
-2.29
-1.01
0.32
1.65
2.91
4.05
4.95
5.51
5.63
5.29
4.55
3.55
2.52
1.64
1.01
0.59
0.17
-0.44
-1.39
-2.61
-3.87
-4.88
-5.41
-5.41
-4.95
-4.15
-3.14
-1.97
-0.72
0.49
1.50
2.14
2.35
2.17
1.73
1.18
0.62
0.07
-0.48
-1.00
-1.43
-1.65
-1.60
-1.32
-0.91
-0.53
-0.23
-0.03
0.18
0.48
0.88
1.32
1.67
1.80
1.71
1.51
1.37
1.42
1.73
2.23
2.79
3.29
3.63
3.77
3.67
3.30
2.66
1.82
0.89
0.01
-0.70
-1.22
-1.61
-1.98
-2.45
-3.02
-3.61
-4.09
-4.32
-4.26
-3.98
-3.60
-3.24
-2.93
-2.62
-2.21
-1.61
-0.77
0.22
1.24
2.13
2.77
3.15
3.29
3.28
3.21
3.12
3.03
2.90
2.68
2.34
1.91
1.43
0.98
0.59
0.28
0.07
-0.05
-0.08
-0.00
0.16
0.34
0.45
0.37
0.06
-0.46
-1.06
-1.55
-1.78
-1.71
-1.40
-1.03
-0.77
-0.75
-0.95
-1.26
-1.52
-1.60
-1.49
-1.31
-1.22
-1.36
-1.79
-2.41
-3.05
-3.56
-3.81
-3.82
-3.61
-3.22
-2.66
-1.89
-0.89
0.31
1.60
2.86
3.97
4.89
5.62
6.18
6.54
6.62
6.36
5.76
4.91
3.98
3.14
2.50
2.04
1.65
1.18
0.52
-0.33
-1.27
-2.19
-2.96
-3.50
-3.80
-3.88
-3.77
-3.52
-3.16
-2.71
-2.20
-1.68
-1.23
-0.90
-0.72
-0.62
-0.52
-0.31
0.03
0.43
0.76
0.88
0.75
0.42
0.01
-0.34
-0.55
-0.59
-0.49
-0.29
-0.02
0.27
0.55
0.80
1.00
1.18
1.34
1.52
1.68
1.83
1.97
2.10
2.24
2.40
2.53
2.61
2.58
2.46
2.28
2.08
1.90
1.70
1.39
0.89
0.15
-0.73
-1.58
-2.20
-2.49
-2.47
-2.31
-2.17
-2.14
-2.21
-2.32
-2.39
-2.41
-2.41
-2.42
-2.42
-2.35
-2.15
-1.84
-1.45
-1.08
-0.79
-0.59
-0.42
-0.25
-0.04
0.23
0.54
0.89
1.25
1.57
1.80
1.87
1.75
1.40
0.88
0.25
-0.36
-0.84
-1.14
-1.26
-1.27
-1.25
-1.28
-1.34
-1.37
-1.30
-1.12
-0.86
-0.56
-0.31
-0.11
0.03
0.11
0.14
0.10
0.02
-0.05
-0.02
0.16
0.45
0.73
0.85
0.73
0.40
0.07
-0.03
0.24
0.89
1.72
2.46
2.92
2.99
2.75
2.30
1.77
1.21
0.62
-0.01
-0.72
-1.49
-2.32
-3.14
-3.92
-4.59
-5.09
-5.37
-5.40
-5.21
-4.82
-4.28
-3.66
-3.00
-2.32
-1.66
-1.05
-0.47
0.07
0.59
1.06
1.45
1.71
1.80
1.73
1.58
1.42
1.33
1.34
1.40
1.47
1.50
1.49
1.48
1.49
1.49
1.41
1.20
0.84
0.38
-0.12
-0.60
-1.02
-1.32
-1.45
-1.34
-0.93
-0.29
0.45
1.12
1.57
1.77
1.77
1.66
1.51
1.33
1.13
0.91
0.75
0.70
0.81
1.04
1.31
1.56
1.76
1.91
2.05
2.17
2.24
2.22
2.09
1.89
1.68
1.53
1.43
1.38
1.32
1.23
1.09
0.91
0.68
0.40
0.09
-0.21
-0.48
-0.66
-0.77
-0.89
-1.07
-1.37
-1.74
-2.10
-2.35
-2.43
-2.36
-2.18
-1.93
-1.61
-1.18
-0.63
-0.02
0.56
0.97
1.13
1.05
0.82
0.55
0.35
0.26
0.26
0.31
0.35
0.35
0.31
0.25
0.20
0.21
0.30
0.49
0.74
0.98
1.11
1.08
0.88
0.57
0.27
0.05
-0.03
0.01
0.11
0.21
0.22
0.12
-0.14
-0.54
-1.05
-1.56
-1.94
-2.07
-1.90
-1.42
-0.76
-0.06
0.54
0.92
1.03
0.89
0.59
0.24
-0.05
-0.18
-0.15
0.02
0.28
0.58
0.86
1.12
1.33
1.44
1.40
1.18
0.79
0.32
-0.13
-0.44
-0.59
-0.62
-0.62
-0.64
-0.67
-0.68
-0.62
-0.47
-0.30
-0.17
-0.16
-0.22
-0.30
-0.31
-0.22
-0.09
-0.01
-0.07
-0.28
-0.57
-0.79
-0.78
-0.43
0.26
1.16
2.04
2.68
2.93
2.74
2.18
1.39
0.50
-0.37
-1.08
-1.54
-1.66
-1.46
-1.00
-0.46
-0.01
0.25
0.32
0.27
0.19
0.14
0.10
0.03
-0.08
-0.18
-0.20
-0.11
0.05
0.18
0.18
-0.00
-0.32
-0.67
-0.96
-1.13
-1.21
-1.25
-1.27
-1.25
-1.14
-0.89
-0.48
0.06
0.64
1.14
1.45
1.50
1.31
0.94
0.50
0.08
-0.26
-0.47
-0.53
-0.42
-0.15
0.21
0.51
0.62
0.46
0.09
-0.38
-0.79
-1.06
-1.21
-1.34
-1.52
-1.73
-1.88
-1.91
-1.77
-1.54
-1.35
-1.28
-1.36
-1.52
-1.65
-1.66
-1.48
-1.12
-0.67
-0.19
0.20
0.47
0.58
0.59
0.54
0.49
0.49
0.54
0.61
0.65
0.62
0.52
0.39
0.29
0.32
0.51
0.85
1.25
1.57
1.65
1.45
1.04
0.55
0.19
0.04
0.11
0.27
0.41
0.44
0.37
0.21
0.02
-0.22
-0.52
-0.87
-1.21
-1.45
-1.52
-1.43
-1.26
-1.13
-1.10
-1.14
-1.19
-1.14
-0.95
-0.66
-0.33
-0.02
0.26
0.55
0.89
1.29
1.71
2.06
2.27
2.31
2.20
2.00
1.76
1.47
1.16
0.82
0.48
0.20
-0.01
-0.16
-0.31
-0.49
-0.70
-0.90
-1.01
-1.02
-0.95
-0.86
-0.81
-0.83
-0.92
-1.06
-1.19
-1.29
-1.34
-1.30
-1.19
-1.01
-0.79
-0.61
-0.47
-0.38
-0.29
-0.15
0.09
0.43
0.81
1.15
1.41
1.56
1.62
1.63
1.60
1.52
1.36
1.13
0.89
0.71
0.68
0.80
0.97
1.06
0.93
0.52
-0.11
-0.80
-1.38
-1.72
-1.79
-1.65
-1.39
-1.10
-0.80
-0.48
-0.11
0.30
0.67
0.91
0.98
0.89
0.74
0.65
0.69
0.84
1.01
1.08
1.00
0.80
0.54
0.28
0.03
-0.26
-0.62
-1.02
-1.34
-1.48
-1.35
-1.00
-0.53
-0.11
0.16
0.23
0.16
0.02
-0.11
-0.21
-0.27
-0.30
-0.29
-0.23
-0.08
0.16
0.50
0.87
1.21
1.43
1.48
1.36
1.13
0.90
0.74
0.71
0.78
0.90
0.98
1.01
1.01
1.01
1.00
1.00
0.98
0.96
0.96
1.00
1.03
0.97
0.73
0.27
-0.40
-1.13
-1.78
-2.25
-2.48
-2.50
-2.36
-2.10
-1.73
-1.27
-0.75
-0.21
0.26
0.61
0.78
0.78
0.67
0.55
0.47
0.44
0.41
0.30
0.02
-0.39
-0.85
-1.20
-1.34
-1.25
-1.05
-0.94
-1.10
-1.59
-2.32
-3.08
-3.63
-3.80
-3.56
-2.99
-2.21
-1.33
-0.42
0.53
1.54
2.56
3.55
4.42
5.07
5.46
5.54
5.29
4.71
3.79
2.62
1.31
0.04
-1.01
-1.73
-2.08
-2.13
-1.98
-1.72
-1.42
-1.11
-0.82
-0.60
-0.53
-0.70
-1.11
-1.68
-2.25
-2.62
-2.67
-2.37
-1.84
-1.24
-0.77
-0.52
-0.50
-0.59
-0.65
-0.54
-0.21
0.27
0.80
1.23
1.44
1.40
1.15
0.78
0.39
0.02
-0.34
-0.69
-1.04
-1.35
-1.55
-1.58
-1.40
-1.06
-0.62
-0.19
0.17
0.44
0.64
0.79
0.90
0.96
0.91
0.69
0.28
-0.30
-0.98
-1.60
-2.02
-2.13
-1.88
-1.31
-0.56
0.21
0.85
1.24
1.37
1.29
1.08
0.84
0.63
0.51
0.49
0.56
0.71
0.85
0.90
0.78
0.48
0.06
-0.32
-0.52
-0.47
-0.22
0.11
0.42
0.68
0.97
1.41
2.02
2.70
3.20
3.27
2.82
1.91
0.81
-0.22
-0.98
-1.45
-1.71
-1.87
-1.95
-1.95
-1.84
-1.65
-1.43
-1.27
-1.20
-1.21
-1.21
-1.16
-1.03
-0.88
-0.76
-0.69
-0.66
-0.63
-0.54
-0.40
-0.19
0.05
0.31
0.56
0.81
1.05
1.28
1.48
1.65
1.83
2.01
2.17
2.26
2.19
1.94
1.53
1.07
0.69
0.49
0.47
0.60
0.74
0.79
0.70
0.45
0.08
-0.32
-0.67
-0.89
-0.99
-1.02
-1.08
-1.25
-1.54
-1.84
-2.02
-1.98
-1.68
-1.20
-0.69
-0.26
0.03
0.18
0.19
0.10
-0.07
-0.28
-0.49
-0.63
-0.67
-0.57
-0.35
-0.05
0.27
0.55
0.70
0.68
0.53
0.28
0.04
-0.14
-0.23
-0.23
-0.15
0.01
0.26
0.57
0.88
1.08
1.08
0.85
0.47
0.05
-0.27
-0.43
-0.45
-0.38
-0.29
-0.23
-0.19
-0.15
-0.10
-0.04
0.02
0.01
-0.08
-0.27
-0.50
-0.71
-0.81
-0.76
-0.57
-0.30
0.01
0.28
0.49
0.62
0.68
0.71
0.73
0.77
0.85
0.97
1.09
1.15
1.12
1.03
0.90
0.76
0.58
0.30
-0.19
-0.89
-1.71
-2.48
-3.03
-3.26
-3.21
-3.04
-2.92
-2.94
-3.07
-3.18
-3.15
-2.91
-2.48
-1.97
-1.47
-1.03
-0.65
-0.30
0.06
0.41
0.75
1.03
1.25
1.41
1.59
1.87
2.33
2.95
3.66
4.33
4.82
5.05
5.02
4.78
4.39
3.86
3.23
2.51
1.79
1.15
0.72
0.54
0.58
0.74
0.87
0.89
0.75
0.48
0.16
-0.13
-0.35
-0.50
-0.65
-0.87
-1.20
-1.63
-2.09
-2.47
-2.67
-2.69
-2.59
-2.49
-2.45
-2.52
-2.63
-2.68
-2.60
-2.37
-2.04
-1.70
-1.43
-1.24
-1.07
-0.85
-0.52
-0.08
0.40
0.82
1.10
1.22
1.23
1.21
1.23
1.33
1.49
1.70
1.93
2.16
2.33
2.39
2.23
1.83
1.20
0.46
-0.25
-0.77
-1.03
-1.04
-0.88
-0.66
-0.50
-0.49
-0.65
-0.95
-1.27
-1.48
-1.50
-1.32
-1.05
-0.81
-0.69
-0.69
-0.72
-0.71
-0.67
-0.65
-0.74
-0.95
-1.23
-1.45
-1.51
-1.36
-1.03
-0.62
-0.20
0.19
0.51
0.75
0.91
1.03
1.15
1.31
1.52
1.77
1.97
2.06
1.98
1.73
1.35
0.94
0.55
0.24
0.00
-0.19
-0.34
-0.44
-0.42
-0.25
0.05
0.39
0.61
0.59
0.27
-0.26
-0.85
-1.33
-1.57
-1.56
-1.37
-1.14
-0.97
-0.92
-0.98
-1.11
-1.25
-1.33
-1.32
-1.19
-0.94
-0.59
-0.20
0.15
0.40
0.48
0.42
0.25
0.05
-0.12
-0.21
-0.22
-0.13
0.03
0.24
0.47
0.68
0.83
0.92
0.96
0.99
1.03
1.08
1.14
1.20
1.20
1.11
0.94
0.70
0.47
0.29
0.21
0.17
0.11
-0.03
-0.29
-0.62
-0.91
-1.07
-1.07
-0.94
-0.75
-0.60
-0.50
-0.46
-0.42
-0.38
-0.34
-0.35
-0.41
-0.51
-0.62
-0.70
-0.74
-0.73
-0.68
-0.55
-0.35
-0.06
0.27
0.56
0.73
0.75
0.67
0.58
0.54
0.60
0.76
0.96
1.16
1.30
1.35
1.31
1.17
0.94
0.66
0.35
0.07
-0.13
-0.22
-0.18
-0.03
0.16
0.29
0.24
-0.05
-0.54
-1.10
-1.57
-1.81
-1.78
-1.57
-1.32
-1.14
-1.06
-1.00
-0.87
-0.59
-0.19
0.22
0.55
0.72
0.73
0.64
0.52
0.41
0.32
0.26
0.22
0.22
0.26
0.38
0.54
0.67
0.69
0.53
0.18
-0.24
-0.60
-0.74
-0.58
-0.19
0.28
0.64
0.75
0.58
0.26
-0.05
-0.21
-0.19
-0.07
0.03
-0.02
-0.25
-0.63
-1.05
-1.45
-1.82
-2.19
-2.59
-2.96
-3.16
-3.00
-2.42
-1.47
-0.36
0.65
1.36
1.71
1.79
1.74
1.72
1.76
1.81
1.79
1.61
1.30
0.95
0.69
0.57
0.60
0.75
0.93
1.12
1.27
1.36
1.38
1.29
1.10
0.83
0.54
0.28
0.06
-0.11
-0.23
-0.27
-0.19
0.02
0.34
0.66
0.85
0.83
0.58
0.18
-0.28
-0.70
-1.05
-1.31
-1.47
-1.46
-1.27
-0.88
-0.38
0.10
0.39
0.39
0.12
-0.25
-0.55
-0.63
-0.48
-0.21
0.00
0.05
-0.05
-0.17
-0.17
-0.01
0.22
0.38
0.36
0.17
-0.05
-0.13
0.03
0.41
0.84
1.11
1.10
0.81
0.39
0.04
-0.11
0.01
0.30
0.60
0.75
0.66
0.35
-0.07
-0.46
-0.69
-0.75
-0.67
-0.54
-0.46
-0.47
-0.59
-0.79
-0.97
-1.05
-0.96
-0.67
-0.25
0.19
0.53
0.67
0.59
0.37
0.10
-0.10
-0.20
-0.21
-0.23
-0.33
-0.52
-0.73
-0.84
-0.75
-0.45
-0.06
0.29
0.48
0.50
0.47
0.51
0.70
0.98
1.23
1.30
1.15
0.82
0.45
0.15
-0.03
-0.12
-0.19
-0.30
-0.44
-0.58
-0.68
-0.71
-0.70
-0.70
-0.70
-0.70
-0.69
-0.63
-0.54
-0.45
-0.41
-0.41
-0.45
-0.46
-0.40
-0.23
0.02
0.30
0.52
0.63
0.60
0.44
0.17
-0.17
-0.51
-0.80
-0.97
-0.95
-0.75
-0.41
-0.02
0.28
0.41
0.35
0.20
0.07
0.07
0.27
0.63
1.06
1.45
1.71
