1530405633.00
64.000000
-0.00
-0.00
-0.00
-0.00
-0.00
-0.00
-0.00
-0.00
-0.00
-0.00
0.00
0.01
0.01
-0.00
-0.03
-0.05
-0.05
0.00
0.13
0.36
0.66
1.01
1.37
1.72
2.06
2.40
2.79
3.24
3.80
4.42
5.06
5.66
6.20
6.68
7.15
7.68
8.31
9.14
10.09
11.04
11.89
12.57
13.14
13.76
14.64
15.95
17.92
20.34
22.95
25.44
27.61
29.52
31.48
33.94
37.25
41.81
47.31
53.21
58.92
64.03
68.57
73.00
78.04
84.24
92.18
101.37
111.01
120.16
128.16
134.99
141.23
148.25
154.87
163.44
174.64
188.52
203.75
217.22
224.41
220.64
202.65
169.81
124.80
71.64
14.60
-43.38
-101.15
-158.83
-216.64
-274.09
-329.83
-381.82
-428.80
-470.11
-505.63
-535.21
-558.06
-572.63
-576.83
-568.86
-547.67
-513.94
-469.75
-418.18
-362.59
-306.03
-250.95
-199.12
-151.59
-108.27
-67.98
-28.46
12.87
57.59
105.37
153.63
198.39
235.74
263.22
280.43
288.60
289.69
285.39
276.84
264.83
250.26
234.30
218.25
203.08
189.14
176.19
163.58
150.69
137.29
123.60
110.21
97.82
86.90
77.53
69.36
61.82
54.34
46.64
38.85
31.43
25.00
19.84
15.87
12.69
9.80
6.80
3.63
0.54
-2.07
-3.88
-4.86
-5.20
-5.26
-5.32
-5.51
-5.83
-6.18
-6.50
-6.75
-6.88
-6.84
-6.60
-6.19
-5.76
-5.54
-5.65
-6.05
-6.51
-6.78
-6.68
-6.23
-5.57
-4.90
-4.31
-3.80
-3.35
-2.94
-2.64
-2.52
-2.58
-2.75
-2.91
-2.99
-2.95
-2.85
-2.76
-2.67
-2.58
-2.41
-2.15
-1.84
-1.56
-1.42
-1.48
-1.72
-2.05
-2.32
-2.35
-1.99
-1.20
-0.06
1.22
2.34
3.03
3.14
2.72
2.02
1.41
1.22
1.62
2.47
3.43
4.02
3.96
3.20
2.08
1.14
0.94
1.74
3.43
5.48
7.14
7.59
6.25
2.94
-1.99
-7.59
-12.57
-15.65
-16.04
-13.78
-9.69
-5.04
-1.06
1.52
2.54
2.31
1.25
-0.30
-2.13
-4.04
-5.71
-6.71
-6.70
-5.59
-3.69
-1.56
0.12
0.84
0.42
-0.98
-2.98
-5.16
-7.17
-8.77
-9.79
-10.09
-9.50
-8.00
-5.70
-2.98
-0.37
1.59
2.56
2.51
1.65
0.33
-1.18
-2.69
-4.10
-5.24
-5.90
-5.86
-5.06
-3.67
-2.09
-0.74
0.03
0.12
-0.33
-1.03
-1.66
-1.99
-1.88
-1.37
-0.57
0.31
1.01
1.31
1.07
0.28
-0.94
-2.38
-3.79
-4.98
-5.83
-6.31
-6.53
-6.56
-6.43
-6.11
-5.55
-4.71
-3.60
-2.29
-0.89
0.47
1.71
2.80
3.74
4.53
5.20
5.75
6.15
6.38
6.37
6.08
5.45
4.47
3.20
1.70
0.07
-1.59
-3.25
-4.88
-6.44
-7.92
-9.27
-10.46
-11.47
-12.33
-13.08
-13.78
-14.47
-15.17
-15.89
-16.58
-17.22
-17.72
-18.03
-18.06
-17.70
-16.84
-15.37
-13.20
-10.34
-6.91
-3.17
0.59
4.12
7.27
10.00
12.32
14.17
15.48
16.15
16.17
15.65
14.80
13.87
13.01
12.28
11.61
10.90
10.11
9.26
8.45
7.77
7.27
6.88
6.49
6.04
5.49
4.94
4.46
4.13
3.94
3.81
3.64
3.35
2.93
2.42
1.85
1.27
0.67
0.08
-0.48
-0.96
-1.37
-1.72
-2.02
-2.32
-2.62
-2.95
-3.33
-3.76
-4.25
-4.75
-5.22
-5.63
-6.00
-6.35
-6.67
-6.86
-6.74
-6.14
-4.96
-3.25
-1.23
0.79
2.53
3.82
4.64
5.11
5.38
5.59
5.85
6.20
6.64
7.10
7.52
7.82
7.97
7.96
7.82
7.61
7.36
7.06
6.67
6.11
5.35
4.41
3.39
2.46
1.80
1.56
1.79
2.42
3.32
4.32
5.28
6.10
6.75
7.20
7.42
7.35
6.95
6.27
5.42
4.53
3.75
3.11
2.57
2.02
1.36
0.57
-0.34
-1.26
-2.15
-2.94
-3.66
-4.33
-5.06
-5.92
-7.02
-8.35
-9.82
-11.16
-12.08
-12.29
-11.66
-10.22
-8.20
-5.87
-3.52
-1.34
0.53
2.03
3.10
3.76
4.10
4.27
4.44
4.72
5.16
5.68
6.17
6.53
6.66
6.53
6.13
5.53
4.86
4.29
3.98
4.01
4.33
4.72
5.00
5.01
4.76
4.36
3.96
3.58
3.18
2.64
1.90
1.02
0.15
-0.56
-1.01
-1.16
-1.12
-0.96
-0.82
-0.81
-0.98
-1.41
-2.11
-3.00
-3.97
-4.84
-5.43
-5.67
-5.63
-5.48
-5.48
-5.83
-6.60
-7.68
-8.77
-9.57
-9.81
-9.40
-8.39
-6.94
-5.27
-3.58
-2.01
-0.64
0.49
1.42
2.24
3.04
3.94
4.93
5.95
6.85
7.48
7.76
7.75
7.59
7.43
7.37
7.38
7.33
7.06
6.53
5.80
5.08
4.57
4.37
4.42
4.55
4.54
4.29
3.79
3.20
2.66
2.30
2.12
2.06
2.05
2.06
2.14
2.32
2.58
2.80
2.78
2.39
1.62
0.58
-0.50
-1.42
-2.05
-2.35
-2.38
-2.25
-2.06
-1.95
-2.04
-2.44
-3.16
-4.14
-5.23
-6.24
-7.01
-7.43
-7.44
-7.05
-6.30
-5.27
-4.10
-2.96
-2.03
-1.41
-1.13
-1.15
-1.35
-1.59
-1.77
-1.85
-1.81
-1.66
-1.41
-1.01
-0.42
0.38
1.34
2.37
3.30
4.03
4.57
4.98
5.38
5.83
6.27
6.54
6.53
6.18
5.55
4.81
4.12
3.59
3.25
3.08
2.99
2.91
2.76
2.50
2.12
1.65
1.15
0.68
0.24
-0.19
-0.63
-1.03
-1.32
-1.45
-1.46
-1.44
-1.54
-1.88
-2.47
-3.25
-4.06
-4.69
-4.97
-4.78
-4.13
-3.15
-2.07
-1.15
-0.50
-0.09
0.21
0.57
1.07
1.64
2.11
2.30
2.12
1.61
0.92
0.28
-0.14
-0.23
-0.04
0.29
0.56
0.57
0.27
-0.32
-1.04
-1.75
-2.32
-2.69
-2.86
-2.91
-2.93
-3.02
-3.20
-3.40
-3.48
-3.23
-2.56
-1.51
-0.27
0.90
1.78
2.30
2.52
2.66
2.92
3.48
4.36
5.48
6.56
7.30
7.37
6.65
5.30
3.91
3.45
5.12
9.92
18.19
29.26
41.51
52.85
61.36
65.92
66.37
63.31
57.67
50.35
42.10
33.60
25.54
18.54
12.89
8.40
4.44
0.33
-4.29
-9.17
-13.61
-16.86
-18.47
-18.50
-17.40
-15.76
-14.05
-12.53
-11.25
-10.19
-9.34
-8.71
-8.31
-8.01
-7.68
-7.15
-6.43
-5.65
-5.09
-5.01
-5.53
-6.60
-8.03
-9.58
-11.07
-12.39
-13.52
-14.48
-15.30
-16.01
-16.60
-17.03
-17.24
-17.15
-16.72
-15.97
-14.91
-13.49
-11.60
-9.06
-5.79
-1.90
2.20
5.97
8.90
10.72
11.40
11.16
10.19
8.66
6.64
4.20
1.58
-0.87
-2.76
-3.81
-4.02
-3.68
-3.20
-2.93
-3.00
-3.32
-3.61
-3.65
-3.36
-2.83
-2.17
-1.46
-0.62
0.48
1.92
3.59
5.28
6.66
7.48
7.61
7.10
6.10
4.82
3.43
2.04
0.65
-0.84
-2.55
-4.57
-6.89
-9.35
-11.72
-13.74
-15.23
-16.09
-16.35
-16.07
-15.34
-14.29
-13.07
-11.82
-10.66
-9.65
-8.78
-8.04
-7.35
-6.66
-5.91
-5.06
-4.05
-2.91
-1.72
-0.64
0.19
0.70
0.93
1.04
1.21
1.58
2.13
2.77
3.36
3.79
4.03
4.10
4.04
3.81
3.39
2.68
1.68
0.43
-0.91
-2.15
-3.15
-3.88
-4.40
-4.86
-5.36
-5.91
-6.41
-6.68
-6.64
-6.34
-5.97
-5.80
-6.04
-6.71
-7.62
-8.48
-9.06
-9.27
-9.24
-9.15
-9.18
-9.32
-9.48
-9.48
-9.27
-8.91
-8.54
-8.24
-7.93
-7.40
-6.44
-4.90
-2.86
-0.55
1.76
3.83
5.52
6.79
7.63
8.08
8.21
8.12
7.91
7.72
7.61
7.59
7.61
7.60
7.48
7.25
6.96
6.65
6.36
6.09
5.83
5.57
5.39
5.36
5.53
5.88
6.28
6.53
6.48
6.06
5.41
4.74
4.28
4.12
4.18
4.23
3.99
3.27
2.05
0.45
-1.30
-3.00
-4.62
-6.21
-7.89
-9.70
-11.54
-13.19
-14.41
-15.06
-15.14
-14.75
-14.02
-13.04
-11.86
-10.55
-9.23
-8.00
-6.98
-6.14
-5.41
-4.63
-3.71
-2.59
-1.30
0.11
1.63
3.22
4.87
6.53
8.11
9.53
10.70
11.64
12.37
12.99
13.55
14.12
14.71
15.31
15.84
16.21
16.29
16.00
15.29
14.27
13.16
12.25
11.77
11.84
12.40
13.24
14.10
14.81
15.27
15.44
15.30
14.77
13.82
12.41
10.69
8.87
7.25
6.03
5.23
4.70
4.19
3.38
2.02
-0.10
-3.08
-6.91
-11.36
-16.00
-20.27
-23.61
-25.71
-26.61
-26.73
-26.71
-27.07
-28.04
-29.41
-30.73
-31.54
-31.62
-31.12
-30.47
-30.10
-30.20
-30.65
-31.01
-30.72
-29.25
-26.18
-21.26
-14.51
-6.33
2.46
10.66
17.00
20.60
21.34
20.01
18.12
17.34
18.93
23.40
30.44
39.18
48.60
57.78
66.01
72.73
77.38
79.38
78.23
73.72
66.06
55.94
44.30
32.07
20.00
8.56
-1.93
-11.11
-18.60
-24.03
-27.28
-28.58
-28.51
-27.81
-27.12
-26.80
-26.93
-27.44
-28.20
-29.13
-30.20
-31.29
-32.22
-32.78
-32.79
-32.23
-31.23
-29.96
-28.55
-27.00
-25.22
-23.09
-20.61
-17.91
-15.22
-12.83
-10.93
-9.59
-8.72
-8.15
-7.71
-7.23
-6.64
-5.92
-5.16
-4.42
-3.78
-3.26
-2.83
-2.45
-2.13
-1.90
-1.83
-1.91
-2.07
-2.21
-2.23
-2.13
-2.02
-2.00
-2.16
-2.44
-2.70
-2.82
-2.70
-2.38
-1.94
-1.53
-1.27
-1.30
-1.74
-2.73
-4.33
-6.56
-9.35
-12.55
-16.01
-19.50
-22.84
-25.84
-28.38
-30.39
-31.88
-32.89
-33.38
-33.28
-32.48
-30.92
-28.66
-25.88
-22.82
-19.67
-16.58
-13.61
-10.85
-8.41
-6.38
-4.78
-3.52
-2.38
-1.15
0.27
1.79
3.16
4.08
4.38
4.04
3.22
2.09
0.76
-0.79
-2.62
-4.79
-7.21
-9.72
-12.10
-14.19
-15.95
-17.43
-18.75
-20.01
-21.29
-22.61
-23.92
-25.10
-25.92
-26.06
-25.17
-22.92
-19.19
-14.09
-7.97
-1.38
5.16
11.25
16.69
21.50
25.79
29.65
33.08
36.02
38.41
40.28
41.81
43.28
44.88
46.64
48.41
49.89
50.82
51.03
50.60
49.68
48.51
47.22
45.83
44.33
42.77
41.33
40.26
39.69
39.51
39.35
38.77
37.41
35.23
32.49
29.60
26.87
24.22
21.24
17.40
12.33
5.96
-1.58
-10.04
-19.12
-28.46
-37.79
-46.79
-55.20
-62.86
-69.88
-76.51
-82.91
-88.91
-94.02
-98.05
-101.08
-103.40
-105.21
-106.40
-106.58
-104.97
-100.52
-92.21
-80.26
-65.50
-48.77
-30.20
-9.52
13.39
38.07
63.47
88.22
109.64
125.25
133.86
136.02
133.07
125.84
114.47
99.01
80.19
57.94
32.29
3.36
-28.55
-63.67
-103.12
-147.87
-197.76
-239.59
-259.32
-248.95
-211.82
-158.24
-98.31
-39.30
13.99
58.11
91.19
111.52
119.36
117.08
108.71
99.04
89.75
81.46
74.47
69.44
65.96
63.20
60.14
56.25
51.51
46.24
41.42
38.37
38.37
40.20
41.92
41.40
37.41
30.03
20.18
9.50
-0.33
-7.81
-12.27
-13.53
-12.02
-8.63
-4.70
-1.81
-1.00
-2.37
-4.90
-7.23
-8.21
-7.55
-5.70
-3.54
-1.80
-0.76
-0.22
0.16
0.56
0.91
0.93
0.36
-0.80
-2.26
-3.49
-3.98
-3.44
-1.95
0.15
2.38
4.27
5.49
5.88
5.26
3.44
0.25
-4.33
-9.94
-15.79
-20.86
-24.22
-25.32
-24.21
-21.35
-17.53
-13.49
-9.79
-6.68
-4.04
-1.51
1.34
4.77
8.67
12.61
16.05
18.64
20.43
21.86
23.57
26.15
29.88
34.76
40.51
46.66
52.48
56.94
58.82
57.07
51.34
42.34
31.77
21.75
14.04
9.37
7.33
6.68
6.11
4.76
2.53
-0.19
-2.86
-5.12
-6.93
-8.40
-9.59
-10.39
-10.62
-10.17
-9.17
-8.00
-7.19
-7.24
-8.40
-10.58
-13.38
-16.25
-18.66
-20.33
-21.21
-21.52
-21.49
-21.32
-21.03
-20.44
-19.33
-17.45
-14.71
-11.22
-7.35
-3.65
-0.64
1.42
2.69
3.74
5.36
8.14
12.13
16.74
21.01
24.11
25.78
26.53
27.35
29.31
33.03
38.51
45.21
52.33
58.93
63.96
66.35
65.11
59.82
51.02
40.36
30.18
22.54
18.34
16.92
16.47
15.13
11.99
7.45
2.79
-0.88
-3.48
-6.06
-10.13
-16.69
-25.54
-35.40
-44.70
-52.45
-58.62
-63.88
-68.95
-74.05
-78.82
-82.85
-86.08
-89.04
-92.46
-96.75
-101.49
-105.51
-107.24
-105.39
-99.30
-89.12
-75.65
-60.03
-43.54
-27.35
-12.44
0.55
11.28
19.75
26.13
30.66
33.54
34.94
35.04
34.11
32.48
30.56
28.78
27.55
27.18
27.79
29.24
31.11
32.81
33.71
33.36
31.80
29.61
27.98
28.42
32.29
40.30
52.05
65.91
79.32
89.49
94.23
92.67
85.55
74.94
63.46
53.37
45.95
41.29
38.77
37.61
37.34
37.85
39.08
40.63
41.65
41.13
38.37
33.38
26.87
19.85
13.05
6.63
0.19
-6.82
-14.58
-22.70
-30.32
-36.49
-40.61
-42.64
-43.09
-42.75
-42.38
-42.47
-43.15
-44.24
-45.33
-45.96
-45.74
-44.49
-42.31
-39.54
-36.63
-33.97
-31.69
-29.72
-27.79
-25.68
-23.31
-20.79
-18.32
-16.16
-14.49
-13.41
-12.95
-13.06
-13.64
-14.49
-15.33
-15.87
-15.87
-15.25
-14.09
-12.54
-10.79
-8.92
-6.93
-4.76
-2.39
0.07
2.31
3.91
4.44
3.63
1.43
-1.94
-6.16
-10.86
-15.68
-20.35
-24.59
-28.15
-30.76
-32.27
-32.63
-31.95
-30.37
-28.04
-24.99
-21.23
-16.81
-11.95
-6.99
-2.38
1.53
4.60
6.97
9.00
11.10
13.60
16.57
19.88
23.24
26.30
28.78
30.54
31.56
31.97
31.85
31.26
30.16
28.44
26.04
22.99
19.45
15.70
12.01
8.63
5.69
3.17
0.97
-1.05
-3.09
-5.28
-7.72
-10.36
-13.08
-15.65
-17.85
-19.54
-20.74
-21.53
-22.09
-22.57
-23.02
-23.43
-23.70
-23.67
-23.20
-22.17
-20.57
-18.50
-16.12
-13.59
-11.00
-8.35
-5.56
-2.62
0.24
2.45
3.23
1.90
-1.77
-7.29
-13.48
-18.75
-21.67
-21.56
-18.81
-14.73
-10.91
-8.60
-8.07
-8.48
-8.16
-5.32
1.22
11.56
24.95
40.20
55.97
70.93
83.74
93.18
98.21
98.11
92.74
82.87
70.45
58.06
48.04
41.75
39.22
38.82
37.63
32.23
20.01
0.35
-25.34
-54.10
-81.82
-103.53
-114.50
-111.70
-95.48
-70.11
-42.93
-22.70
-17.26
-31.18
-62.70
-102.52
-134.31
-143.15
-123.99
-82.07
-28.94
22.13
60.44
82.86
92.01
91.75
85.51
75.29
62.09
46.66
30.40
16.00
5.93
2.25
4.62
10.13
14.73
15.36
11.30
4.00
-3.92
-9.97
-13.00
-13.43
-12.70
-12.26
-12.87
-14.37
-16.15
-17.53
-18.06
-17.68
-16.79
-15.93
-15.59
-15.89
-16.61
-17.30
-17.50
-16.90
-15.48
-13.66
-12.11
-11.52
-12.20
-13.91
-15.85
-16.89
-15.98
-12.58
-6.98
-0.19
6.37
11.31
13.74
13.48
10.99
7.26
3.45
0.67
-0.39
0.46
2.86
6.06
9.20
11.66
13.25
14.14
14.71
15.29
15.95
16.58
16.96
16.91
16.37
15.40
14.13
12.79
11.71
11.27
11.77
13.35
15.80
18.54
20.82
21.89
21.34
19.19
15.97
12.49
9.54
7.66
6.93
7.02
7.39
7.56
7.21
6.29
4.93
3.37
1.86
0.64
-0.07
-0.13
0.45
1.48
2.67
3.73
4.53
5.10
5.63
6.32
7.25
8.34
9.41
10.24
10.66
10.59
10.04
9.07
7.80
6.34
4.86
3.51
2.42
1.68
1.26
1.12
1.15
1.31
1.62
2.15
2.93
3.87
4.78
5.35
5.33
4.62
3.37
1.92
0.62
-0.30
-0.89
-1.38
-2.11
-3.26
-4.81
-6.52
-8.06
-9.22
-10.00
-10.56
-11.15
-11.98
-13.11
-14.53
-16.18
-17.97
-19.75
-21.26
-22.15
-22.07
-20.78
-18.32
-14.99
-11.25
-7.56
-4.22
-1.35
1.04
3.02
4.65
5.97
7.05
7.98
8.83
9.68
10.51
11.24
11.78
12.03
12.01
11.83
11.63
11.55
11.67
11.93
12.23
12.45
12.48
12.32
12.02
11.67
11.33
11.02
10.71
10.39
10.03
9.63
9.18
8.59
7.78
6.71
5.44
4.09
2.76
1.39
-0.21
-2.32
-5.06
-8.29
-11.66
-14.74
-17.24
-19.13
-20.56
-21.64
-22.26
-22.10
-20.88
-18.55
-15.49
-12.33
-9.69
-7.88
-6.81
-6.09
-5.29
-4.19
-2.88
-1.63
-0.70
-0.17
0.13
0.47
1.07
2.04
3.26
4.59
5.90
7.18
8.52
10.03
11.70
13.37
14.73
15.48
15.43
14.60
13.24
11.65
10.16
9.00
8.26
7.91
7.87
7.95
8.01
7.90
7.52
6.91
6.15
5.36
4.61
3.89
3.07
2.08
0.92
-0.30
-1.39
-2.22
-2.75
-3.06
-3.32
-3.70
-4.30
-5.18
-6.30
-7.53
-8.68
-9.54
-9.93
-9.75
-9.06
-8.03
-6.88
-5.79
-4.82
-3.88
-2.88
-1.71
-0.41
0.88
2.02
2.91
3.55
4.02
4.42
4.78
5.08
5.29
5.44
5.58
5.79
6.09
6.41
6.63
6.64
6.45
6.17
5.99
6.10
6.50
7.10
7.67
7.99
7.91
7.41
6.61
5.69
4.92
4.51
4.59
5.05
5.57
5.71
4.99
3.18
0.43
-2.75
-5.66
-7.80
-9.10
-10.06
-11.52
-14.17
-18.14
-22.71
-26.69
-28.95
-28.98
-27.15
-24.36
-21.30
-17.96
-13.56
-7.05
2.10
13.40
25.46
36.68
45.72
51.75
54.19
52.52
46.40
36.24
23.84
12.48
6.07
7.61
17.65
33.73
51.21
65.26
73.08
75.13
74.46
74.83
78.35
84.16
88.85
88.43
80.55
65.78
47.36
29.43
14.98
4.69
-2.85
-9.88
-18.06
-27.60
-37.53
-46.60
-54.24
-61.08
-68.69
-78.77
-92.14
-108.17
-124.78
-139.21
-148.95
-152.56
-149.88
-141.66
-128.96
-112.62
-93.13
-70.98
-47.03
-22.66
0.36
20.32
35.98
46.88
53.44
56.80
58.33
59.12
59.49
58.80
55.68
48.77
37.42
22.20
4.79
-12.66
-28.26
-40.95
-50.52
-57.24
-61.39
-63.05
-62.09
-58.47
-52.46
-44.64
-35.87
-27.06
-19.05
-12.38
-7.22
-3.40
-0.46
2.07
4.49
6.82
8.89
10.46
11.47
12.02
12.33
12.57
12.72
12.63
12.08
10.99
9.44
7.66
5.89
4.23
2.63
0.96
-0.88
-2.76
-4.40
-5.37
-5.32
-4.07
-1.71
1.49
5.18
9.04
12.87
16.50
19.78
22.49
24.47
25.61
26.02
25.97
25.88
26.08
26.75
27.82
28.97
29.75
29.73
28.58
26.23
22.87
18.97
15.13
11.91
9.70
8.55
8.22
8.30
8.35
8.07
7.34
6.14
4.51
2.46
-0.06
-3.09
-6.60
-10.47
-14.43
-18.15
-21.35
-23.85
-25.66
-26.96
-27.98
-28.83
-29.48
-29.67
-29.05
-27.31
-24.29
-20.05
-14.79
-8.80
-2.45
3.93
9.98
15.33
19.70
22.91
24.94
25.89
26.02
25.60
24.88
24.00
23.03
21.91
20.59
19.03
17.27
15.45
13.74
12.29
11.17
10.32
9.59
8.80
7.78
6.43
4.72
2.71
0.52
-1.65
-3.61
-5.21
-6.39
-7.21
-7.83
-8.44
-9.21
-10.25
-11.54
-13.09
-14.88
-16.95
-19.37
-22.08
-24.95
-27.69
-29.97
-31.57
-32.45
-32.85
-33.10
-33.52
-34.24
-35.07
-35.56
-35.13
-33.17
-29.24
-23.15
-15.06
-5.40
5.09
15.61
25.40
33.89
40.76
45.87
49.19
50.72
50.55
48.83
45.82
41.82
37.05
31.61
25.53
18.87
11.92
5.17
-0.78
-5.44
-8.66
-10.68
-12.00
-13.20
-14.68
-16.58
-18.75
-20.95
-22.90
-24.51
-25.86
-27.15
-28.57
-30.17
-31.75
-32.99
-33.52
-33.08
-31.63
-29.38
-26.67
-23.87
-21.27
-18.97
-16.98
-15.28
-13.88
-12.85
-12.33
-12.37
-13.00
-14.33
-16.46
-19.37
-22.60
-24.90
-24.32
-18.96
-8.06
7.25
24.14
39.15
49.56
54.22
53.49
48.49
40.55
31.14
22.18
16.19
15.65
21.73
33.23
46.63
57.32
61.62
58.31
48.91
36.63
24.81
15.73
10.39
8.88
10.85
15.81
22.97
31.10
38.58
43.81
45.76
44.34
40.42
35.37
30.42
26.15
22.33
18.15
12.76
5.67
-3.05
-12.82
-22.80
-32.06
-39.70
-45.06
-47.83
-48.22
-46.92
-44.89
-42.94
-41.31
-39.55
-36.80
-32.40
-26.42
-19.80
-13.90
-9.82
-7.75
-6.83
-5.60
-2.67
2.54
9.56
16.95
22.88
25.84
25.19
21.45
16.01
10.45
5.86
2.39
-0.71
-4.65
-10.53
-18.89
-29.69
-42.40
-56.06
-69.34
-80.42
-87.18
-87.65
-80.68
-66.49
-46.76
-24.27
-2.22
16.54
30.09
37.81
40.44
39.67
37.42
35.02
32.62
29.21
23.20
13.40
-0.15
-15.85
-31.01
-42.58
-48.03
-45.95
-36.27
-20.10
0.51
22.89
44.11
61.47
73.14
78.54
78.45
74.56
68.74
62.23
55.28
47.30
37.51
25.62
12.14
-1.82
-15.04
-26.69
-36.57
-44.87
-51.84
-57.53
-61.81
-64.59
-66.03
-66.55
-66.69
-66.77
-66.75
-66.24
-64.67
-61.65
-57.16
-51.66
-45.90
-40.71
-36.65
-33.89
-32.15
-30.80
-29.03
-26.08
-21.44
-15.00
-7.08
1.56
9.88
16.78
21.38
23.21
22.38
19.47
15.40
11.19
7.69
5.52
5.05
6.40
9.52
14.20
19.99
26.31
32.52
38.14
42.93
46.96
50.49
53.82
57.14
60.56
64.17
68.05
72.26
76.71
80.94
84.15
85.34
83.74
79.23
72.55
65.19
58.91
55.07
54.15
55.52
57.76
59.11
58.17
54.21
47.33
38.16
27.64
16.68
6.10
-3.42
-11.33
-17.23
-21.02
-22.98
-23.80
-24.37
-25.56
-27.90
-31.41
-35.67
-39.99
-43.69
-46.39
-48.02
-48.68
-48.52
-47.53
-45.61
-42.70
-38.95
-34.80
-30.84
-27.67
-25.56
-24.44
-23.95
-23.64
-23.20
-22.54
-21.81
-21.27
-21.13
-21.47
-22.22
-23.16
-23.96
-24.30
-23.90
-22.60
-20.34
-17.18
-13.29
-8.94
-4.43
0.03
4.38
8.80
13.59
18.98
24.95
31.12
36.91
41.72
45.21
47.32
48.24
48.16
47.16
45.23
42.32
38.59
34.38
30.18
26.43
23.34
20.79
18.43
15.90
13.05
10.06
7.36
5.39
4.30
3.87
3.56
2.81
1.28
-0.94
-3.45
-5.76
-7.51
-8.62
-9.19
-9.37
-9.28
-8.96
-8.47
-7.89
-7.34
-6.89
-6.56
-6.25
-5.88
-5.37
-4.71
-3.97
-3.11
-2.04
-0.57
1.47
4.17
7.45
11.15
15.00
18.74
22.09
24.76
26.45
26.95
26.21
24.39
21.88
19.13
16.52
14.30
12.51
11.08
9.92
8.92
8.03
7.19
6.41
5.77
5.43
5.59
6.38
7.77
9.53
11.31
12.75
13.63
13.93
13.76
13.22
12.37
11.20
9.65
7.72
5.47
3.00
0.32
-2.59
-5.85
-9.53
-13.59
-17.88
-22.16
-26.22
-29.96
-33.34
-36.37
-38.96
-40.98
-42.21
-42.51
-41.85
-40.39
-38.37
-36.06
-33.68
-31.30
-28.88
-26.35
-23.62
-20.66
-17.49
-14.15
-10.67
-7.09
-3.40
0.34
3.98
7.31
10.05
11.98
12.98
13.12
12.54
11.45
10.01
8.35
6.51
4.54
2.47
0.35
-1.79
-3.96
-6.20
-8.51
-10.81
-12.87
-14.38
-15.03
-14.63
-13.24
-11.15
-8.79
-6.60
-4.88
-3.71
-3.03
-2.67
-2.48
-2.34
-2.22
-2.05
-1.77
-1.31
-0.62
0.30
1.38
2.52
3.61
4.59
5.47
6.28
7.05
7.77
8.32
8.56
8.30
7.42
5.86
3.61
0.72
-2.70
-6.53
-10.56
-14.49
-17.96
-20.59
-22.06
-22.18
-20.95
-18.55
-15.30
-11.66
-8.07
-4.92
-2.46
-0.77
0.20
0.57
0.42
-0.22
-1.35
-2.94
-4.86
-6.90
-8.81
-10.37
-11.52
-12.32
-12.93
-13.45
-13.89
-14.17
-14.16
-13.79
-13.09
-12.18
-11.22
-10.34
-9.60
-8.99
-8.51
-8.18
-8.00
-7.94
-7.94
-7.89
-7.68
-7.21
-6.47
-5.44
-4.16
-2.69
-1.14
0.33
1.51
2.22
2.35
1.96
1.24
0.46
-0.14
-0.42
-0.37
-0.03
0.54
1.35
2.40
3.68
5.06
6.31
7.15
7.42
7.09
6.29
5.25
4.18
3.21
2.42
1.80
1.31
0.90
0.51
0.09
-0.37
-0.86
-1.31
-1.66
-1.89
-2.04
-2.20
-2.44
-2.81
-3.28
-3.79
-4.26
-4.67
-5.03
-5.38
-5.70
-5.92
-5.96
-5.72
-5.19
-4.41
-3.44
-2.37
-1.24
-0.08
1.06
2.09
2.94
3.52
3.82
3.89
3.86
3.85
3.95
4.16
4.44
4.70
4.83
4.80
4.67
4.50
4.40
4.42
4.51
4.61
4.64
4.57
4.40
4.17
3.87
3.43
2.78
1.91
0.89
-0.11
-0.93
-1.51
-1.86
-2.12
-2.43
-2.88
-3.49
-4.25
-5.12
-6.07
-7.07
-8.06
-8.95
-9.59
-9.84
-9.60
-8.83
-7.61
-6.06
-4.36
-2.66
-1.07
0.40
1.79
3.18
4.58
5.95
7.18
8.11
8.67
8.86
8.86
8.83
8.89
8.98
8.87
8.28
7.03
5.12
2.73
0.19
-2.16
-4.09
-5.51
-6.45
-7.03
-7.43
-7.79
-8.22
-8.73
-9.28
-9.82
-10.34
-10.92
-11.67
-12.65
-13.81
-14.99
-15.97
-16.61
-16.91
-17.01
-17.14
-17.61
-18.75
-20.90
-24.46
-29.70
-36.74
-45.35
-54.93
-64.58
-73.21
-79.78
-83.41
-83.54
-79.92
-72.70
-62.34
-49.65
-35.60
-21.27
-7.70
4.28
14.15
21.70
27.11
30.90
33.76
36.45
39.54
43.28
47.49
51.62
54.98
56.99
57.33
56.07
53.56
50.32
46.81
43.30
39.90
36.56
33.18
29.74
26.29
22.90
19.62
16.39
13.09
9.61
5.93
2.24
-1.16
-3.95
-5.94
-7.25
-8.23
-9.38
-11.10
-13.50
-16.33
-18.97
-20.60
-20.45
-18.03
-13.31
-6.76
0.80
8.46
15.48
21.48
26.41
30.36
33.39
35.43
36.36
36.15
34.97
33.20
31.29
29.66
28.58
28.11
28.26
28.95
30.00
31.22
32.32
33.07
33.42
33.50
33.58
33.90
34.53
35.30
35.83
35.77
34.92
33.29
31.08
28.49
25.64
22.51
19.01
15.03
10.50
5.36
-0.37
-6.58
-12.98
-19.07
-24.20
-27.77
-29.42
-29.19
-27.59
-25.37
-23.32
-21.99
-21.58
-21.93
-22.73
-23.58
-24.14
-24.18
-23.55
-22.19
-20.11
-17.45
-14.52
-11.74
-9.57
-8.39
-8.38
-9.48
-11.41
-13.74
-16.02
-17.89
-19.16
-19.84
-20.05
-19.96
-19.68
-19.18
-18.43
-17.41
-16.20
-15.00
-14.04
-13.44
-13.18
-13.09
-12.93
-12.52
-11.75
-10.63
-9.26
-7.77
-6.36
-5.25
-4.63
-4.65
-5.33
-6.55
-8.04
-9.47
-10.51
-10.90
-10.48
-9.27
-7.41
-5.14
-2.78
-0.61
1.20
2.60
3.65
4.47
5.18
5.80
6.33
6.75
7.04
7.25
7.42
7.63
7.87
8.15
8.41
8.63
8.79
8.90
9.00
9.03
8.92
8.58
7.98
7.16
6.27
5.46
4.84
4.43
4.11
3.78
3.35
2.79
2.14
1.43
0.66
-0.18
-1.09
-2.07
-3.08
-4.15
-5.27
-6.45
-7.58
-8.44
-8.75
-8.27
-6.97
-4.98
-2.59
-0.10
2.30
4.54
6.61
8.51
10.13
11.36
12.13
12.43
12.39
12.21
12.07
12.10
12.34
12.72
13.14
13.49
13.66
13.59
13.28
12.79
12.18
11.50
10.81
10.10
9.35
8.50
7.51
6.36
5.09
3.80
2.64
1.70
1.01
0.48
-0.07
-0.81
-1.84
-3.12
-4.49
-5.78
-6.86
-7.71
-8.40
-9.03
-9.71
-10.51
-11.45
-12.49
-13.52
-14.39
-14.88
-14.75
-13.87
-12.22
-9.94
-7.29
-4.55
-1.99
0.25
2.11
3.61
4.77
5.62
6.17
6.44
6.52
6.51
6.52
6.63
6.83
7.02
7.10
7.03
6.85
6.72
6.77
7.09
7.63
8.22
8.66
8.79
8.58
8.11
7.52
6.97
6.53
6.21
5.94
5.64
5.21
4.60
3.82
2.95
2.09
1.33
0.71
0.17
-0.38
-1.04
-1.81
-2.63
-3.37
-3.94
-4.32
-4.56
-4.77
-5.03
-5.41
-5.94
-6.61
-7.41
-8.25
-8.99
-9.37
-9.14
-8.14
-6.40
-4.11
-1.60
0.78
2.79
4.32
5.35
6.00
6.37
6.55
6.60
6.58
6.57
6.63
6.80
7.09
7.42
7.72
7.90
7.97
7.96
7.96
8.04
8.18
8.29
8.25
8.01
7.58
7.04
6.50
6.03
5.66
5.38
5.17
5.03
4.92
4.80
4.59
4.22
3.65
2.92
2.17
1.52
1.07
0.82
0.65
0.40
-0.05
-0.72
-1.51
-2.27
-2.89
-3.34
-3.72
-4.21
-4.96
-6.00
-7.21
-8.39
-9.27
-9.64
-9.44
-8.69
-7.47
-5.90
-4.10
-2.17
-0.22
1.65
3.30
4.62
5.58
6.15
6.41
6.43
6.35
6.25
6.22
6.28
6.39
6.49
6.52
6.46
6.36
6.30
6.32
6.39
6.42
6.27
5.86
5.18
4.32
3.40
2.54
1.78
1.15
0.62
0.19
-0.12
-0.31
-0.43
-0.59
-0.92
-1.54
-2.45
-3.52
-4.56
-5.36
-5.85
-6.04
-6.05
-6.04
-6.12
-6.34
-6.69
-7.17
-7.75
-8.45
-9.25
-10.11
-10.91
-11.48
-11.63
-11.20
-10.16
-8.55
-6.55
-4.38
-2.21
-0.16
1.68
3.27
4.54
5.39
5.74
5.61
5.09
4.42
3.85
3.54
3.55
3.76
4.02
4.19
4.24
4.21
4.22
4.30
4.42
4.50
4.44
4.19
3.81
3.37
2.95
2.59
2.22
1.76
1.15
0.39
-0.43
-1.18
-1.73
-2.08
-2.27
-2.42
-2.62
-2.89
-3.22
-3.58
-3.96
-4.39
-4.90
-5.48
-6.05
-6.58
-7.05
-7.55
-8.15
-8.88
-9.63
-10.15
-10.19
-9.55
-8.27
-6.52
-4.59
-2.73
-1.10
0.26
1.40
2.34
3.10
3.68
4.08
4.30
4.37
4.27
3.99
3.55
3.02
2.55
2.26
2.18
2.24
2.26
2.09
1.64
1.00
0.33
-0.21
-0.55
-0.74
-0.93
-1.26
-1.79
-2.51
-3.34
-4.19
-5.02
-5.77
-6.40
-6.86
-7.09
-7.09
-6.89
-6.56
-6.17
-5.80
-5.52
-5.36
-5.36
-5.50
-5.76
-6.06
-6.36
-6.65
-6.98
-7.40
-7.91
-8.37
-8.54
-8.18
-7.08
-5.24
-2.80
-0.02
2.84
5.59
8.11
10.36
12.26
13.67
14.46
14.57
14.06
13.13
12.04
11.03
10.21
9.58
9.03
8.45
7.79
7.03
6.27
5.64
5.23
5.07
5.13
5.29
5.42
5.42
5.24
4.90
4.42
3.87
3.31
2.80
2.40
2.12
1.94
1.77
1.52
1.10
0.50
-0.24
-1.06
-1.89
-2.66
-3.34
-3.92
-4.41
-4.86
-5.35
-5.93
-6.56
-7.10
-7.35
-7.09
-6.18
-4.63
-2.55
-0.14
2.32
4.58
6.42
7.75
8.56
8.96
9.12
9.19
9.30
9.50
9.77
10.09
10.43
10.76
11.03
11.21
11.26
11.20
11.06
10.91
10.81
10.76
10.70
10.48
9.94
8.98
7.59
5.90
4.10
2.39
0.90
-0.34
-1.35
-2.21
-2.97
-3.69
-4.39
-5.10
-5.85
-6.62
-7.38
-8.08
-8.66
-9.15
-9.64
-10.24
-11.03
-12.01
-13.05
-13.97
-14.54
-14.59
-14.07
-13.03
-11.62
-10.01
-8.36
-6.75
-5.24
-3.85
-2.61
-1.54
-0.69
-0.11
0.16
0.13
-0.15
-0.59
-1.05
-1.41
-1.56
-1.46
-1.16
-0.78
-0.43
-0.20
-0.14
-0.22
-0.41
-0.67
-0.94
-1.21
-1.45
-1.65
-1.83
-2.01
-2.22
-2.47
-2.77
-3.13
-3.53
-3.97
-4.44
-4.93
-5.43
-5.95
-6.52
-7.16
-7.83
-8.45
-8.95
-9.28
-9.48
-9.67
-10.00
-10.52
-11.19
-11.86
-12.37
-12.56
-12.31
-11.53
-10.16
-8.16
-5.56
-2.53
0.70
3.84
6.64
9.04
11.07
12.83
14.39
15.75
16.78
17.39
17.52
17.25
16.71
16.05
15.36
14.63
13.85
13.02
12.23
11.61
11.24
11.10
11.03
10.81
10.25
9.32
8.09
6.76
5.46
4.22
2.92
1.35
-0.67
-3.18
-6.12
-9.29
-12.48
-15.49
-18.21
-20.58
-22.57
-24.20
-25.49
-26.47
-27.18
-27.64
-27.87
-27.79
-27.33
-26.39
-24.89
-22.85
-20.37
-17.63
-14.85
-12.22
-9.84
-7.72
-5.76
-3.85
-1.86
0.30
2.68
5.23
7.82
10.24
12.28
13.72
14.48
14.58
14.18
13.47
12.65
11.87
11.21
10.70
10.32
10.05
9.84
9.61
9.32
8.91
8.35
7.60
6.63
5.45
4.09
2.70
1.43
0.42
-0.28
-0.76
-1.21
-1.80
-2.64
-3.71
-4.88
-6.02
-7.02
-7.79
-8.29
-8.40
-8.01
-7.07
-5.62
-3.83
-1.95
-0.21
1.25
2.39
3.23
3.83
4.23
4.44
4.51
4.48
4.40
4.32
4.21
3.99
3.59
2.96
2.15
1.25
0.39
-0.31
-0.78
-1.02
-1.10
-1.13
-1.23
-1.51
-1.97
-2.56
-3.18
-3.68
-3.99
-4.09
-4.03
-3.87
-3.69
-3.55
-3.42
-3.27
-2.99
-2.43
-1.39
0.35
2.95
6.42
10.58
15.05
19.37
23.16
26.25
28.71
30.80
32.83
34.99
37.29
39.55
41.51
42.83
43.23
42.50
40.57
37.54
33.66
29.29
24.77
20.35
16.16
12.24
8.57
5.14
1.93
-1.14
-4.11
-7.01
-9.81
-12.40
-14.70
-16.71
-18.53
-20.30
-22.15
-24.04
-25.85
-27.39
-28.51
-29.19
-29.55
-29.72
-29.81
-29.85
-29.82
-29.65
-29.26
-28.53
-27.34
-25.54
-23.05
-19.90
-16.27
-12.47
-8.83
-5.59
-2.89
-0.73
0.94
2.16
2.98
3.44
3.63
3.69
3.76
3.91
4.12
4.33
4.47
4.55
4.63
4.82
5.15
5.57
5.97
6.22
6.21
5.91
5.32
4.52
3.56
2.54
1.57
0.77
0.23
-0.01
0.01
0.18
0.32
0.27
-0.09
-0.74
-1.55
-2.33
-2.90
-3.24
-3.45
-3.78
-4.49
-5.68
-7.24
-8.88
-10.24
-11.07
-11.33
-11.25
-11.18
-11.38
-11.92
-12.64
-13.18
-13.21
-12.59
-11.44
-10.08
-8.88
-8.16
-8.00
-8.28
-8.69
-8.79
-8.08
-6.07
-2.57
2.08
6.91
10.57
11.83
10.23
6.40
1.85
-1.70
-3.13
-2.37
-0.32
1.82
3.27
4.17
5.52
8.82
15.48
26.49
42.17
62.11
85.05
108.90
130.98
148.49
159.17
161.96
157.23
146.52
131.95
115.58
98.98
83.14
68.69
56.17
46.09
38.86
34.46
32.22
30.65
27.65
21.02
9.09
-8.65
-31.33
-56.99
-83.13
-107.33
-127.64
-142.71
-151.65
-154.07
-150.23
-141.19
-128.82
-115.47
-103.26
-93.50
-86.39
-81.17
-76.65
-71.82
-66.15
-59.68
-52.76
-45.87
-39.42
-33.68
-28.81
-24.90
-21.95
-19.79
-18.13
-16.60
-14.87
-12.78
-10.41
-8.03
-5.94
-4.36
-3.30
-2.66
-2.26
-1.94
-1.65
-1.34
-1.03
-0.75
-0.60
-0.79
-1.66
-3.51
-6.51
-10.60
-15.51
-20.85
-26.26
-31.41
-36.03
-39.75
-42.12
-42.59
-40.74
-36.46
-30.02
-22.12
-13.68
-5.66
1.13
6.17
9.26
10.51
10.35
9.43
8.47
8.09
8.68
10.31
12.82
15.98
19.61
23.63
28.02
32.63
37.13
41.08
44.07
45.85
46.46
46.18
45.43
44.67
44.30
44.57
45.58
47.16
48.94
50.44
51.23
51.12
50.15
48.46
46.05
42.62
37.60
30.41
20.82
9.17
-3.47
-15.51
-25.19
-31.06
-32.42
-29.63
-23.99
-17.34
-11.49
-7.60
-5.92
-6.03
-7.23
-9.10
-11.67
-15.29
-20.16
-25.98
-31.91
-36.86
-39.90
-40.64
-39.32
-36.58
-33.19
-29.66
-26.18
-22.60
-18.60
-13.91
-8.44
-2.26
4.47
11.60
18.87
25.79
31.55
35.13
35.67
32.80
26.86
18.88
10.14
1.74
-5.68
-11.93
-17.05
-21.03
-23.69
-24.86
-24.56
-23.16
-21.24
-19.42
-18.14
-17.46
-17.19
-16.98
-16.55
-15.84
-15.00
-14.29
-13.86
-13.65
-13.36
-12.62
-11.17
-9.08
-6.79
-4.99
-4.34
-5.16
-7.27
-9.93
-12.10
-12.71
-11.09
-7.08
-1.08
6.19
13.92
21.54
28.71
35.29
41.12
45.99
49.59
51.70
52.32
51.78
50.59
49.27
48.15
47.26
46.35
45.05
43.05
40.14
36.28
31.52
25.99
19.94
13.72
7.80
2.66
-1.37
-4.26
-6.26
-7.84
-9.45
-11.32
-13.42
-15.48
-17.22
-18.51
-19.39
-20.08
-20.81
-21.70
-22.71
-23.65
-24.34
-24.70
-24.79
-24.84
-25.07
-25.67
-26.66
-27.93
-29.26
-30.38
-31.00
-30.82
-29.65
-27.46
-24.43
-21.00
-17.68
-14.87
-12.70
-11.02
-9.53
-8.03
-6.62
-5.67
-5.68
-6.98
-9.49
-12.76
-16.09
-18.83
-20.74
-21.95
-23.00
-24.54
-27.19
-31.27
-36.75
-43.07
-49.10
-53.10
-53.08
-47.44
-35.73
-19.16
-0.53
16.62
29.24
35.78
36.59
33.45
28.57
23.69
19.61
16.37
13.71
11.52
9.94
9.15
9.15
9.61
10.06
10.15
9.88
9.66
10.10
11.73
14.72
18.73
23.04
26.76
29.24
30.20
29.89
28.88
27.86
27.35
27.57
28.41
29.59
30.78
31.71
32.31
32.59
32.63
32.51
32.20
31.61
30.58
29.04
27.01
24.67
22.26
20.06
18.20
16.69
15.45
14.39
13.48
12.76
12.27
11.89
11.35
10.24
8.24
5.27
1.55
-2.43
-6.10
-9.08
-11.22
-12.65
-13.60
-14.30
-14.84
-15.24
-15.50
-15.66
-15.79
-15.90
-15.89
-15.54
-14.56
-12.79
-10.23
-7.11
-3.81
-0.65
2.13
4.47
6.41
7.95
9.07
9.70
9.88
9.75
9.58
9.65
10.13
11.04
12.32
13.87
15.64
17.61
19.77
21.99
24.07
25.77
26.94
27.51
27.52
26.98
25.90
24.23
21.95
19.16
16.08
13.06
10.47
8.64
7.82
8.17
9.68
12.18
15.27
18.35
20.68
21.55
20.43
17.10
11.70
4.62
-3.61
-12.43
-21.35
-29.90
-37.64
-44.10
-48.83
-51.51
-52.05
-50.66
-47.79
-44.05
-39.99
-35.97
-32.12
-28.37
-24.58
-20.63
-16.54
-12.48
-8.67
-5.37
-2.76
-0.89
0.29
0.89
1.01
0.71
-0.01
-1.15
-2.65
-4.41
-6.32
-8.28
-10.22
-12.11
-13.87
-15.39
-16.54
-17.22
-17.43
-17.27
-16.90
-16.47
-16.10
-15.93
-16.10
-16.81
-18.22
-20.39
-23.18
-26.24
-29.09
-31.23
-32.30
-32.16
-30.86
-28.57
-25.55
-22.04
-18.27
-14.39
-10.53
-6.79
-3.18
0.28
3.62
6.84
9.96
12.97
15.86
18.68
21.49
24.40
27.50
30.90
34.66
38.76
43.11
47.45
51.50
54.92
57.48
59.06
59.70
59.51
58.63
57.20
55.35
53.22
50.92
48.48
45.81
42.68
38.80
34.04
28.55
22.78
17.30
12.55
8.62
5.22
1.88
-1.79
-5.90
-10.17
-14.08
-17.02
-18.46
-18.00
-15.41
-10.66
-4.06
3.67
11.38
17.71
21.46
21.99
19.36
14.33
8.00
1.39
-4.81
-10.27
-14.98
-18.93
-22.12
-24.46
-25.90
-26.51
-26.47
-26.03
-25.38
-24.63
-23.79
-22.84
-21.74
-20.57
-19.43
-18.50
-17.94
-17.80
-18.01
-18.36
-18.59
-18.48
-17.93
-17.04
-16.02
-15.09
-14.44
-14.09
-13.99
-13.98
-13.93
-13.73
-13.40
-13.00
-12.66
-12.51
-12.65
-13.07
-13.67
-14.26
-14.55
-14.27
-13.18
-11.18
-8.32
-4.82
-1.07
2.47
5.36
7.33
8.32
8.46
8.04
7.36
6.68
6.17
5.92
5.93
6.18
6.58
7.02
7.40
7.61
7.59
7.32
6.83
6.21
5.56
4.99
4.54
4.17
3.79
3.30
2.68
2.00
1.38
0.92
0.59
0.28
-0.15
-0.77
-1.54
-2.36
-3.13
-3.81
-4.45
-5.12
-5.88
-6.71
-7.57
-8.38
-9.08
-9.63
-10.06
-10.41
-10.79
-11.33
-12.14
-13.27
-14.60
-15.90
-16.86
-17.13
-16.48
-14.80
-12.23
-9.06
-5.71
-2.57
0.07
2.10
3.55
4.54
5.21
5.65
5.89
5.99
5.98
5.97
6.05
6.28
6.64
7.03
7.31
7.37
7.16
6.75
6.28
5.92
5.76
5.78
5.85
5.80
5.52
5.00
4.32
3.60
2.93
2.33
1.75
1.10
0.34
-0.53
-1.44
-2.32
-3.16
-3.98
-4.82
-5.74
-6.70
-7.65
-8.51
-9.25
-9.88
-10.52
-11.26
-12.13
-13.04
-13.78
-14.08
-13.70
-12.54
-10.64
-8.22
-5.57
-2.95
-0.57
1.50
3.23
4.64
5.76
6.60
7.22
7.70
8.16
8.69
9.29
9.90
10.41
10.75
10.93
11.06
11.27
11.61
12.05
12.48
12.79
12.89
12.76
12.41
11.84
11.01
9.91
8.60
7.24
6.06
5.26
4.89
4.82
4.78
4.53
3.91
2.95
1.80
0.65
-0.38
-1.24
-1.94
-2.53
-3.05
-3.52
-3.99
-4.51
-5.11
-5.82
-6.59
-7.35
-8.05
-8.69
-9.37
-10.24
-11.43
-12.94
-14.59
-16.05
-16.89
-16.79
-15.61
-13.43
-10.58
-7.44
-4.40
-1.74
0.43
2.11
3.40
4.44
5.34
6.15
6.89
7.51
7.97
8.27
8.43
8.51
8.55
8.61
8.68
8.75
8.78
8.72
8.57
8.32
7.97
7.53
7.01
6.42
5.81
5.23
4.74
4.39
4.16
4.01
3.87
3.68
3.44
3.19
2.98
2.82
2.63
2.30
1.71
0.88
-0.05
-0.87
-1.41
-1.67
-1.80
-2.08
-2.71
-3.74
-5.00
-6.20
-7.06
-7.48
-7.52
-7.44
-7.52
-7.99
-8.97
-10.38
-11.99
-13.50
-14.66
-15.39
-15.79
-16.07
-16.39
-16.70
-16.72
-15.96
-13.96
-10.41
-5.33
0.86
7.35
13.14
17.19
18.83
17.97
15.34
12.43
11.18
13.45
20.37
31.91
46.76
62.65
77.06
88.08
94.91
98.04
98.76
98.51
98.26
98.26
98.17
97.44
95.66
92.75
88.88
84.29
79.10
73.25
66.63
59.20
51.13
42.76
34.47
26.37
18.19
9.41
-0.50
-11.69
-23.78
-36.06
-47.82
-58.66
-68.63
-77.94
-86.63
-94.31
-100.35
-104.17
-105.64
-105.19
-103.58
-101.48
-99.06
-95.91
-91.21
-84.21
-74.60
-62.81
-49.90
-37.26
-26.14
-17.34
-10.97
-6.57
-3.43
-0.93
1.12
2.53
2.97
2.36
1.20
0.52
1.50
4.98
11.02
18.78
26.83
33.69
38.26
40.13
39.51
36.84
32.59
26.99
20.10
12.04
3.20
-5.69
-13.72
-20.06
-24.41
-27.14
-29.18
-31.66
-35.36
-40.34
-45.90
-50.77
-53.52
-52.95
-48.35
-39.57
-27.03
-11.64
5.14
21.42
35.07
44.08
47.03
43.55
34.42
21.47
6.97
-6.87
-18.44
-26.86
-31.95
-33.95
-33.44
-31.29
-28.68
-26.98
-27.38
-30.47
-35.84
-42.19
-47.74
-50.96
-51.17
-48.63
-44.32
-39.31
-34.22
-29.07
-23.33
-16.31
-7.55
3.05
15.13
27.93
40.28
50.77
57.83
60.09
56.77
48.01
34.94
19.50
3.81
-10.44
-22.54
-32.72
-41.71
-49.89
-56.76
-60.89
-60.40
-53.90
-41.18
-23.49
-3.28
16.39
32.51
42.66
45.39
40.51
29.29
14.36
-0.75
-12.54
-18.41
-17.35
-9.95
2.19
17.19
33.55
50.20
66.19
80.20
90.49
95.35
93.86
86.51
75.14
62.12
49.09
36.18
22.06
4.88
-16.39
-41.14
-67.12
-91.33
-111.11
-124.87
-132.05
-132.75
-127.33
-116.38
-100.88
-82.32
-62.48
-42.95
-24.70
-7.97
7.37
21.39
33.91
44.49
52.78
58.79
62.88
65.54
67.15
67.79
67.31
65.54
62.46
58.23
53.27
48.13
43.31
39.01
34.93
30.22
23.72
14.48
2.33
-11.84
-26.24
-38.81
-47.96
-53.14
-54.98
-55.00
-54.98
-56.45
-60.18
-66.04
-73.08
-79.89
-85.05
-87.50
-86.74
-82.76
-75.87
-66.50
-55.10
-42.23
-28.61
-15.14
-2.69
8.06
16.85
23.85
29.56
34.46
38.87
42.80
45.95
47.83
47.97
46.13
42.51
37.74
32.81
28.64
25.82
24.29
23.41
22.19
19.71
15.50
9.82
3.44
-2.62
-7.60
-11.23
-13.71
-15.40
-16.44
-16.56
-15.19
-11.84
-6.48
0.21
7.13
13.13
17.54
20.30
21.90
23.08
24.49
26.43
28.77
30.92
31.98
31.05
27.63
21.93
14.83
7.62
1.40
-3.36
-6.87
-9.75
-12.48
-15.07
-17.06
-17.93
-17.42
-15.71
-13.23
-10.34
-7.01
-2.90
2.39
8.90
16.07
22.79
27.82
30.34
30.35
28.68
26.58
25.15
24.79
25.14
25.27
24.25
21.60
17.42
12.26
6.77
1.43
-3.50
-7.95
-11.86
-15.16
-17.74
-19.54
-20.49
-20.49
-19.22
-16.22
-11.03
-3.54
5.71
15.46
23.99
29.70
31.64
29.86
25.23
19.12
12.79
7.11
2.41
-1.37
-4.54
-7.61
-11.19
-15.94
-22.25
-29.95
-38.11
-45.20
-49.64
-50.41
-47.60
-42.30
-36.27
-31.18
-28.03
-26.93
-27.27
-28.10
-28.54
-27.97
-26.02
-22.34
-16.64
-8.66
1.53
13.41
25.91
37.72
47.68
55.25
60.72
65.05
69.38
74.48
80.37
86.39
91.52
94.91
96.27
95.91
94.52
92.73
90.83
88.55
85.32
80.51
73.76
65.08
54.80
43.38
31.20
18.51
5.51
-7.46
-19.86
-30.95
-40.04
-46.66
-50.78
-52.74
-53.13
-52.63
-51.87
-51.40
-51.64
-52.84
-55.01
-57.86
-60.90
-63.51
-65.16
-65.59
-64.77
-62.84
-60.06
-56.84
-53.74
-51.43
-50.40
-50.71
-51.78
-52.51
-51.75
-48.90
-44.24
-38.82
-33.84
-30.07
-27.34
-24.77
-21.22
-15.85
-8.49
0.53
10.62
21.28
32.13
42.85
53.01
61.94
68.91
73.29
74.85
73.91
71.25
67.94
64.94
62.79
61.48
60.56
59.41
57.67
55.42
53.14
51.52
50.99
51.55
52.68
53.62
53.59
52.11
49.06
44.56
38.89
32.35
25.22
17.75
10.24
2.95
-3.93
-10.38
-16.53
-22.54
-28.52
-34.39
-39.93
-44.85
-48.94
-52.08
-54.26
-55.52
-55.91
-55.46
-54.27
-52.57
-50.71
-49.15
-48.27
-48.29
-49.16
-50.52
-51.81
-52.42
-51.79
-49.62
-45.90
-40.87
-34.99
-28.77
-22.68
-17.05
-12.09
-7.87
-4.35
-1.46
0.93
2.94
4.71
6.33
7.86
9.28
10.52
11.46
12.00
12.09
11.75
11.04
10.03
8.75
7.22
5.47
3.56
1.57
-0.41
-2.36
-4.28
-6.22
-8.24
-10.32
-12.44
-14.52
-16.45
-18.04
-19.01
-19.06
-17.94
-15.64
-12.42
-8.71
-5.00
-1.61
1.36
3.96
6.29
8.35
10.00
11.11
11.62
11.66
11.48
11.38
11.52
11.96
12.60
13.30
13.93
14.38
14.60
14.57
14.33
13.92
13.42
12.92
12.48
12.15
11.89
11.60
11.15
10.47
9.51
8.36
7.12
5.92
4.85
3.92
3.12
2.41
1.75
1.11
0.45
-0.28
-1.10
-2.04
-3.05
-4.12
-5.22
-6.37
-7.62
-9.03
-10.62
-12.30
-13.91
-15.15
-15.75
-15.44
-14.11
-11.77
-8.58
-4.77
-0.67
3.30
6.69
9.03
9.98
9.51
7.99
6.12
4.71
4.29
4.94
6.20
7.34
7.71
7.08
5.77
4.53
4.18
5.25
7.68
10.93
14.24
17.00
19.02
20.63
22.52
25.64
31.06
39.77
52.18
67.47
83.12
95.18
99.34
92.65
74.95
49.25
20.70
-5.39
-25.37
-38.26
-45.26
-48.54
-49.89
-50.24
-49.83
-48.80
-47.43
-45.97
-44.20
-41.20
-35.83
-27.46
-16.63
-5.09
4.83
11.31
13.86
13.36
11.55
10.12
10.16
11.95
15.23
19.53
24.34
29.07
33.02
35.47
35.85
33.97
30.04
24.57
18.13
11.26
4.43
-1.97
-7.59
-12.17
-15.59
-17.84
-19.04
-19.31
-18.82
-17.82
-16.69
-15.81
-15.38
-15.18
-14.51
-12.50
-8.60
-3.10
2.82
7.43
9.24
7.65
3.17
-2.83
-8.80
-13.60
-16.75
-18.34
-18.68
-18.10
-16.89
-15.46
-14.47
-14.74
-17.02
-21.56
-27.87
-34.85
-41.07
-45.26
-46.70
-45.33
-41.59
-36.09
-29.40
-22.00
-14.26
-6.55
0.89
8.05
15.27
23.02
31.61
40.82
49.82
57.37
62.26
63.73
61.66
56.39
48.55
38.73
27.57
15.81
4.45
-5.37
-12.71
-17.20
-19.34
-20.30
-21.57
-24.31
-28.82
-34.46
-39.85
-43.48
-44.23
-41.75
-36.46
-29.28
-21.27
-13.46
-6.73
-1.80
0.86
1.29
0.14
-1.36
-1.87
-0.50
2.68
6.69
9.97
11.05
9.15
4.39
-2.34
-9.81
-16.80
-22.39
-26.07
-27.70
-27.50
-25.95
-23.56
-20.73
-17.67
-14.44
-11.04
-7.47
-3.66
0.56
5.54
11.60
18.70
26.22
32.97
37.52
38.76
36.40
31.15
24.50
18.27
14.01
12.66
14.37
18.55
24.16
29.97
34.88
38.14
39.39
38.63
36.08
32.07
26.96
21.06
14.59
7.63
0.10
-8.07
-16.76
-25.41
-33.12
-38.92
-42.14
-42.79
-41.44
-38.87
-35.65
-31.87
-27.27
-21.70
-15.50
-9.70
-5.68
-4.61
-6.89
-11.81
-17.70
-22.46
-24.23
-22.00
-15.92
-7.14
2.62
11.76
19.23
24.81
28.86
32.00
34.82
37.60
40.44
43.27
46.01
48.51
50.52
51.61
51.28
49.11
44.93
38.89
31.45
23.29
15.12
7.58
1.15
-3.99
-7.90
-10.85
-13.19
-15.22
-17.15
-19.01
-20.81
-22.55
-24.34
-26.35
-28.73
-31.52
-34.55
-37.45
-39.79
-41.17
-41.37
-40.43
-38.59
-36.21
-33.66
-31.23
-29.03
-27.09
-25.32
-23.63
-22.02
-20.56
-19.44
-18.81
-18.78
-19.25
-19.92
-20.36
-20.14
-18.96
-16.77
-13.71
-10.07
-6.17
-2.31
1.27
4.43
7.06
9.11
10.57
11.49
11.95
12.08
12.04
12.03
12.25
12.82
13.72
14.83
15.89
16.69
17.12
17.22
17.12
16.96
16.77
16.51
16.05
15.32
14.33
13.16
11.93
10.71
9.57
8.51
7.51
6.54
5.53
4.43
3.17
1.77
0.30
-1.14
-2.46
-3.67
-4.90
-6.32
-8.04
-9.99
-11.90
-13.35
-13.93
-13.36
-11.60
-8.91
-5.72
-2.48
0.42
2.84
4.78
6.36
7.68
8.74
9.47
9.75
9.52
8.85
7.93
7.01
6.34
6.08
6.19
6.51
6.76
6.66
6.06
5.00
3.70
2.47
1.56
1.05
0.82
0.62
0.17
-0.72
-2.10
-3.89
-5.80
-7.36
-7.89
-6.70
-3.38
1.90
8.35
14.69
19.62
22.34
22.78
21.54
19.50
17.37
15.49
13.76
11.92
9.70
7.04
4.03
0.93
-1.90
-3.99
-4.87
-4.18
-1.83
1.93
6.58
11.47
16.01
19.83
22.76
24.80
26.03
26.57
26.58
26.27
25.86
25.52
25.32
25.20
25.01
24.61
23.93
23.00
21.90
20.75
19.65
18.62
17.65
16.65
15.47
13.96
11.97
9.49
6.58
3.39
0.11
-3.10
-6.11
-8.87
-11.29
-13.26
-14.66
-15.34
-15.21
-14.25
-12.57
-10.36
-7.90
-5.43
-3.17
-1.18
0.59
2.32
4.25
6.62
9.52
12.87
16.30
19.26
21.11
21.30
19.59
16.10
11.23
5.48
-0.84
-7.74
-15.46
-24.30
-34.22
-44.62
-54.34
-61.88
-65.82
-65.32
-60.41
-51.97
-41.51
-30.67
-20.79
-12.59
-6.15
-1.02
3.53
8.29
13.84
20.28
27.02
32.73
35.67
34.25
27.83
17.12
4.23
-8.02
-17.00
-21.10
-20.12
-15.02
-7.31
1.47
10.16
17.92
24.02
27.72
28.32
25.42
19.15
10.33
0.34
-9.22
-16.98
-22.13
-24.50
-24.50
-22.85
-20.22
-17.12
-13.77
-10.22
-6.52
-2.80
0.61
3.33
5.01
5.57
5.17
4.23
3.22
2.49
2.15
2.06
2.00
1.72
1.13
0.30
-0.61
-1.41
-1.94
-2.20
-2.23
-2.15
-2.04
-1.94
-1.83
-1.67
-1.37
-0.82
0.06
1.42
3.39
6.09
9.55
13.63
17.99
22.05
25.12
26.55
25.95
23.38
19.37
14.78
10.47
7.11
4.93
3.83
3.53
3.79
4.50
5.62
7.04
8.51
9.64
10.10
9.76
8.82
7.76
7.08
7.07
7.67
8.50
9.10
9.17
8.71
7.99
7.37
6.99
6.70
6.09
4.71
2.32
-0.94
-4.53
-7.72
-9.75
-10.01
-8.25
-4.65
0.04
4.48
6.99
5.87
-0.01
-10.82
-25.61
-42.55
-59.57
-74.91
-87.61
-97.50
-105.06
-110.98
-115.87
-120.08
-123.69
-126.53
-128.29
-128.60
-127.13
-123.74
-118.52
-111.83
-104.28
-96.55
-89.24
-82.65
-76.67
-70.78
-64.27
-56.47
-47.06
-36.27
-24.83
-13.71
-3.80
4.41
10.85
15.78
19.58
22.56
24.89
26.64
27.90
28.86
29.78
30.89
32.34
34.16
36.24
38.45
40.66
42.74
44.56
45.98
46.82
46.96
46.35
45.13
43.54
41.85
40.29
38.96
37.79
36.67
35.49
34.21
32.86
31.50
30.13
28.70
27.15
25.43
23.57
21.66
19.81
18.04
16.32
14.56
12.67
10.57
8.25
5.72
2.99
0.07
-3.00
-6.05
-8.78
-10.76
-11.56
-10.92
-8.82
-5.55
-1.57
2.60
6.51
9.89
12.61
14.64
16.03
16.83
17.13
17.04
16.76
16.47
16.34
16.43
16.71
17.06
17.36
17.51
17.52
17.42
17.24
17.01
16.68
16.23
15.64
14.98
14.31
13.71
13.20
12.77
12.40
12.19
12.36
13.27
15.35
18.86
23.83
29.96
36.69
43.41
49.62
55.01
59.49
63.02
65.51
66.75
66.48
64.55
61.12
56.63
51.73
47.06
42.97
39.46
36.23
32.88
29.10
24.87
20.39
16.09
12.41
9.81
8.73
9.51
12.23
16.54
21.54
25.92
28.40
28.15
25.14
20.13
14.23
8.50
3.54
-0.55
-3.91
-6.64
-8.61
-9.54
-9.30
-8.15
-6.83
-6.38
-7.65
-10.92
-15.66
-20.72
-24.83
-27.25
-28.08
-28.17
-28.68
-30.37
-33.25
-36.55
-39.19
-40.34
-39.83
-38.16
-36.24
-34.99
-34.98
-36.28
-38.49
-40.86
-42.55
-42.81
-41.18
-37.58
-32.30
-25.90
-19.04
-12.38
-6.50
-1.82
1.37
3.01
3.23
2.25
0.38
-2.08
-4.84
-7.53
-9.67
-10.79
-10.56
-9.04
-6.73
-4.44
-3.05
-3.13
-4.81
-7.82
-11.68
-15.92
-20.19
-24.24
-27.76
-30.36
-31.66
-31.47
-29.98
-27.78
-25.72
-24.55
-24.68
-26.03
-28.12
-30.29
-31.92
-32.59
-32.12
-30.44
-27.56
-23.57
-18.63
-13.13
-7.73
-3.22
-0.32
0.60
-0.31
-2.33
-4.47
-5.76
-5.63
-4.07
-1.56
1.18
3.49
4.99
5.63
5.59
5.20
4.81
4.70
5.09
6.12
7.77
9.94
12.36
14.67
16.43
17.19
16.64
14.69
11.67
8.25
5.38
3.97
4.58
7.20
11.19
15.54
19.18
21.29
21.53
20.00
17.15
13.60
9.94
6.64
4.01
2.14
1.00
0.48
0.46
0.77
1.21
1.47
1.22
0.17
-1.80
-4.59
-7.89
-11.24
-14.17
-16.28
-17.35
-17.31
-16.30
-14.59
-12.55
-10.59
-9.09
-8.32
-8.39
-9.21
-10.49
-11.76
-12.50
-12.26
-10.81
-8.15
-4.57
-0.44
3.93
8.33
12.69
16.99
21.14
24.98
28.23
30.65
32.04
32.33
31.55
29.86
27.46
24.60
21.55
18.53
15.73
13.24
11.07
9.11
7.19
5.08
2.57
-0.46
-4.07
-8.14
-12.45
-16.71
-20.63
-23.96
-26.55
-28.31
-29.20
-29.15
-28.08
-25.85
-22.34
-17.55
-11.67
-5.11
1.56
7.75
12.94
16.88
19.54
21.15
22.04
22.56
22.97
23.40
23.81
24.02
23.72
22.63
20.54
17.44
13.56
9.32
5.15
1.42
-1.70
-4.23
-6.24
-7.79
-8.85
-9.35
-9.21
-8.53
-7.56
-6.71
-6.38
-6.79
-7.83
-9.09
-9.99
-9.92
-8.56
-5.98
-2.51
1.34
5.15
8.62
11.61
13.97
15.46
15.76
14.59
11.90
7.97
3.36
-1.21
-5.10
-7.83
-9.20
-9.25
-8.19
-6.38
-4.23
-2.13
-0.36
0.97
1.90
2.54
2.97
3.18
3.08
2.51
1.41
-0.20
-2.20
-4.37
-6.49
-8.38
-9.93
-11.08
-11.84
-12.23
-12.28
-12.03
-11.55
-10.92
-10.26
-9.68
-9.28
-9.14
-9.23
-9.39
-9.33
-8.69
-7.15
-4.56
-1.06
2.96
6.95
10.40
13.00
14.60
15.21
14.86
13.58
11.40
8.44
4.88
1.00
-2.97
-6.83
-10.44
-13.69
-16.43
-18.49
-19.72
-20.10
-19.76
-18.99
-18.13
-17.49
-17.24
-17.32
-17.54
-17.62
-17.29
-16.44
-15.04
-13.19
-10.95
-8.36
-5.39
-2.00
1.75
5.72
9.61
13.05
15.64
17.11
17.37
16.62
15.35
14.23
13.90
14.62
16.08
17.36
17.22
14.60
9.15
1.51
-6.88
-14.21
-19.02
-20.65
-19.33
-15.97
-11.62
-7.15
-3.06
0.49
3.58
6.47
9.64
13.70
19.15
26.02
33.59
40.46
45.04
46.24
44.05
39.62
34.83
31.43
30.34
31.30
33.10
34.26
33.65
31.02
26.97
22.59
18.88
16.36
14.85
13.68
12.11
9.64
6.31
2.50
-1.29
-4.77
-7.94
-11.01
-14.11
-17.16
-19.81
-21.61
-22.23
-21.60
-19.98
-17.86
-15.80
-14.28
-13.61
-13.86
-14.96
-16.67
-18.78
-21.07
-23.35
-25.45
-27.14
-28.15
-28.23
-27.23
-25.20
-22.39
-19.15
-15.89
-12.90
-10.42
-8.62
-7.60
-7.34
-7.65
-8.11
-8.23
-7.57
-5.96
-3.57
-0.85
1.69
3.70
5.07
5.95
6.54
6.99
7.31
7.48
7.47
7.42
7.50
7.94
8.86
10.26
12.04
14.03
16.08
18.05
19.78
21.03
21.52
20.99
19.34
16.71
13.44
9.97
6.65
3.69
1.08
-1.30
-3.61
-5.87
-8.05
-10.04
-11.77
-13.25
-14.55
-15.74
-16.89
-18.03
-19.14
-20.22
-21.27
-22.26
-23.15
-23.75
-23.80
-23.01
-21.14
-18.14
-14.16
-9.57
-4.75
-0.05
4.25
8.02
11.18
13.66
15.46
16.64
17.31
17.64
17.77
17.74
17.52
17.06
16.37
15.51
14.63
13.83
13.19
12.71
12.37
12.10
11.80
11.28
10.26
8.41
5.50
1.46
-3.43
-8.65
-13.54
-17.46
-20.04
-21.17
-21.01
-19.88
-18.15
-16.12
-14.02
-11.94
-9.90
-7.80
-5.56
-3.07
-0.29
2.71
5.79
8.69
11.16
12.91
13.76
13.67
12.90
11.93
11.33
11.55
12.68
14.45
16.35
17.94
19.15
20.29
21.88
24.22
27.11
29.80
31.25
30.57
27.47
22.34
16.11
9.80
4.13
-0.62
-4.54
-7.83
-10.50
-12.33
-12.94
-12.09
-9.89
-6.88
-3.94
-2.10
-2.22
-4.89
-10.25
-17.92
-27.04
-36.33
-44.30
-49.58
-51.25
-49.09
-43.56
-35.65
-26.57
-17.43
-9.12
-2.30
2.52
4.96
4.82
2.31
-1.87
-6.54
-10.28
-11.86
-10.62
-6.70
-0.86
5.90
12.69
19.04
24.79
29.93
34.41
38.08
40.80
42.56
43.48
43.66
43.07
41.44
38.53
34.30
29.08
23.50
18.09
13.04
8.08
2.85
-2.74
-8.28
-12.98
-16.08
-17.30
-16.95
-15.64
-13.82
-11.46
-8.08
-3.08
3.73
11.92
20.56
28.56
35.06
39.67
42.41
43.61
43.69
43.15
42.48
42.02
41.84
41.64
40.78
38.44
33.96
27.10
18.19
8.04
-2.33
-12.01
-20.51
-27.81
-34.24
-40.15
-45.65
-50.51
-54.27
-56.50
-57.12
-56.47
-55.16
-53.85
-53.03
-52.84
-53.21
-53.96
-54.91
-56.01
-57.24
-58.66
-60.29
-62.10
-64.06
-66.09
-68.12
-70.09
-71.94
-73.48
-74.42
-74.33
-72.69
-69.09
-63.35
-55.72
-46.93
-37.97
-29.72
-22.54
-16.14
-9.77
-2.74
5.08
13.11
20.27
25.71
29.25
31.51
33.46
35.73
38.11
39.60
39.01
35.59
29.38
21.07
11.43
0.91
-10.33
-21.92
-32.76
-40.83
-43.72
-39.63
-28.40
-11.88
6.56
23.21
35.26
41.55
42.59
39.91
35.09
29.25
22.92
16.37
10.07
4.83
1.63
1.04
2.89
6.28
10.04
13.43
16.54
20.24
25.56
33.01
42.17
51.83
60.71
68.02
73.83
78.78
83.47
88.02
91.83
93.96
93.58
90.35
84.58
77.07
68.81
60.67
53.06
45.90
38.67
30.76
21.83
12.06
2.15
-7.06
-14.96
-21.45
-26.91
-31.80
-36.28
-40.10
-42.70
-43.74
-43.29
-41.88
-40.16
-38.44
-36.57
-34.06
-30.44
-25.64
-20.07
-14.46
-9.55
-5.78
-3.22
-1.66
-0.81
-0.39
-0.23
-0.20
-0.13
0.13
0.69
1.54
2.52
3.43
4.05
4.24
3.93
3.14
1.90
0.26
-1.70
-3.87
-6.12
-8.28
-10.19
-11.73
-12.84
-13.49
-13.69
-13.47
-12.93
-12.20
-11.42
-10.74
-10.26
-10.01
-9.96
-9.96
-9.80
-9.23
-8.03
-6.11
-3.54
-0.58
2.43
5.12
7.31
8.95
10.13
10.95
11.46
11.64
11.47
11.02
10.46
10.01
9.83
9.98
10.35
10.73
10.91
10.75
10.23
9.44
8.48
7.50
6.59
5.83
5.27
4.88
4.56
4.16
3.52
2.55
1.29
-0.12
-1.48
-2.59
-3.38
-3.91
-4.35
-4.89
-5.72
-6.96
-8.58
-10.48
-12.41
-14.04
-15.06
-15.20
-14.32
-12.46
-9.79
-6.62
-3.34
-0.34
2.06
3.64
4.38
4.41
3.99
3.40
2.88
2.56
2.50
2.68
3.08
3.67
4.40
5.21
5.99
6.65
7.12
7.37
7.41
7.26
6.96
6.59
6.22
5.88
5.59
5.43
5.41
5.49
5.54
5.41
5.00
4.34
3.53
2.74
2.18
1.92
1.83
1.68
1.25
0.63
0.05
-0.10
0.50
2.29
5.34
9.24
13.29
16.77
19.54
21.80
23.92
26.23
29.48
33.82
38.72
43.22
46.44
48.48
49.88
51.24
53.02
56.35
61.66
68.34
75.03
80.13
83.32
84.71
84.65
83.61
83.32
84.81
87.74
90.48
90.80
87.78
81.05
70.67
49.77
17.25
-21.49
-57.42
-81.49
-95.22
-101.48
-102.76
-100.64
-96.43
-90.27
-82.83
-75.62
-70.44
-68.77
-70.09
-73.15
-76.59
-79.19
-78.96
-74.56
-65.84
-53.74
-40.00
-25.73
-12.06
-0.16
9.02
15.60
19.96
22.39
22.97
21.68
19.06
15.69
11.98
8.20
4.79
1.98
-0.37
-2.67
-5.51
-9.13
-13.60
-18.89
-24.79
-30.83
-36.56
-41.69
-46.22
-50.35
-54.21
-57.73
-60.59
-62.24
-62.20
-60.24
-56.60
-51.83
-46.55
-41.15
-35.72
-30.17
-24.41
-18.60
-13.09
-8.33
-4.67
-2.23
-0.88
-0.35
-0.30
-0.46
-0.64
-0.78
-0.92
-1.19
-1.72
-2.60
-3.79
-5.15
-6.45
-7.44
-7.98
-8.00
-7.53
-6.63
-5.38
-3.80
-1.97
-0.02
1.89
3.57
4.87
5.80
6.45
6.96
7.43
7.85
8.16
8.27
8.18
7.97
7.76
7.66
7.70
7.79
7.79
7.59
7.14
6.49
5.76
5.08
4.57
4.21
3.94
3.58
2.95
1.89
0.31
-1.72
-3.91
-5.74
-6.57
-5.81
-3.15
1.20
6.50
11.63
15.35
16.74
15.46
11.88
6.93
1.74
-2.72
-5.94
-7.86
-8.79
-9.10
-9.06
-8.77
-8.29
-7.70
-7.11
-6.64
-6.23
-5.65
-4.57
-2.68
0.10
3.55
7.23
10.59
13.17
14.68
15.14
14.79
14.00
13.20
12.64
12.37
12.25
11.99
11.37
10.33
8.96
7.53
6.29
5.54
5.52
6.48
8.59
11.77
15.57
19.07
21.16
21.08
18.92
15.73
13.07
12.26
13.69
16.59
19.43
20.72
19.70
16.52
11.91
6.70
1.56
-3.05
-6.72
-9.14
-10.10
-9.62
-8.08
-6.10
-4.25
-2.79
-1.61
-0.38
1.12
3.11
5.87
9.72
14.95
21.74
30.12
39.91
50.59
60.91
69.64
75.87
78.95
78.26
73.30
64.10
51.51
37.28
22.82
10.05
0.99
-3.29
-3.49
-1.86
-1.12
-3.29
-9.03
-19.03
-32.11
-45.55
-56.62
-64.29
-69.50
-74.62
-82.37
-95.11
-116.06
-145.69
-180.62
-214.72
-241.44
-255.49
-254.21
-238.23
-199.08
-139.79
-73.97
-17.51
21.79
45.42
59.43
69.30
78.47
87.62
94.03
95.94
93.40
87.46
77.53
63.79
47.35
30.44
15.81
4.19
-3.38
-6.06
-3.89
1.61
8.96
16.69
23.51
28.26
29.06
26.33
22.32
20.13
22.30
31.37
48.21
71.47
97.82
122.39
142.42
156.80
165.22
161.06
140.24
104.31
60.88
22.36
-8.64
-31.27
-45.48
-51.15
-49.26
-41.04
-28.55
-14.47
-1.77
6.69
10.31
9.65
5.90
0.36
-4.88
-8.08
-8.60
-7.09
-5.36
-4.35
-4.56
-6.11
-8.69
-11.17
-12.31
-11.53
-9.27
-6.96
-5.68
-6.23
-8.90
-13.47
-18.93
-24.02
-27.73
-29.58
-29.75
-28.38
-25.73
-22.12
-17.90
-13.39
-8.99
-5.17
-2.43
-1.09
-1.09
-2.18
-4.07
-6.62
-9.74
-13.33
-17.08
-20.51
-23.09
-24.51
-24.75
-24.03
-22.61
-20.56
-17.81
-14.26
-10.07
-5.79
-2.26
-0.31
-0.40
-2.45
-5.80
-9.48
-12.48
-14.05
-13.86
-12.06
-9.20
-6.06
-3.52
-2.30
-2.78
-4.96
-8.41
-12.45
-16.28
-19.23
-20.86
-21.03
-19.77
-17.27
-13.75
-9.47
-4.83
-0.32
3.48
6.15
7.59
8.15
8.53
9.46
11.44
14.48
18.23
22.13
25.73
28.81
31.41
33.65
35.55
36.94
37.55
37.12
35.68
33.52
31.12
28.94
27.21
25.86
24.64
23.25
21.54
19.55
17.37
15.12
12.76
10.22
7.49
4.67
1.97
-0.43
-2.54
-4.58
-6.88
-9.69
-13.06
-16.75
-20.36
-23.53
-26.01
-27.78
-28.97
-29.71
-30.05
-29.87
-29.00
-27.35
-24.96
-22.14
-19.32
-17.00
-15.55
-15.12
-15.57
-16.45
-17.08
-16.70
-14.66
-10.71
-5.14
1.29
7.56
12.70
16.14
17.80
18.07
17.56
16.89
16.43
16.20
15.85
14.79
12.37
8.22
2.39
-4.56
-11.79
-18.42
-23.96
-28.38
-32.06
-35.50
-38.95
-42.25
-44.82
-45.93
-44.95
-41.61
-36.09
-28.91
-20.84
-12.66
-5.08
1.37
6.38
9.93
12.20
13.60
14.58
15.57
16.87
18.60
20.74
23.11
25.42
27.33
28.51
28.74
28.04
26.59
24.75
22.93
21.43
20.43
19.96
19.95
20.31
20.91
21.65
22.46
23.39
24.58
26.30
28.83
32.39
36.95
42.30
47.99
53.46
58.21
61.79
63.89
64.27
62.82
59.59
54.88
49.20
43.13
37.07
31.09
24.84
17.76
9.35
-0.54
-11.61
-23.23
-34.63
-45.17
-54.39
-62.06
-68.06
-72.27
-74.62
-75.08
-73.76
-70.92
-66.92
-62.14
-56.84
-51.16
-45.14
-38.79
-32.28
-25.95
-20.25
-15.54
-12.00
-9.52
-7.76
-6.33
-4.98
-3.62
-2.34
-1.27
-0.48
0.07
0.48
0.89
1.43
2.25
3.50
5.29
7.63
10.28
12.79
14.53
14.91
13.57
10.49
5.99
0.61
-5.15
-10.87
-16.31
-21.30
-25.65
-29.14
-31.58
-32.91
-33.20
-32.66
-31.50
-29.80
-27.54
-24.68
-21.24
-17.44
-13.62
-10.15
-7.30
-5.11
-3.43
-2.05
-0.81
0.33
1.31
2.05
2.58
3.00
3.50
4.18
5.01
5.78
6.25
6.25
5.77
4.99
4.20
3.66
3.46
3.50
3.59
3.44
2.86
1.71
-0.07
-2.48
-5.51
-9.04
-12.81
-16.35
-19.09
-20.48
-20.16
-18.08
-14.57
-10.19
-5.51
-1.00
3.12
6.82
10.15
13.16
15.81
18.03
19.72
20.84
21.46
21.69
21.67
21.55
21.42
21.33
21.25
21.15
20.95
20.58
20.01
19.24
18.31
17.30
16.29
15.32
14.42
13.58
12.79
12.04
11.33
10.63
9.93
9.14
8.23
7.15
5.94
4.66
3.38
2.11
0.85
-0.46
-1.86
-3.30
-4.68
-5.86
-6.75
-7.35
-7.79
-8.23
-8.84
-9.68
-10.80
-12.15
-13.62
-15.05
-16.14
-16.57
-16.06
-14.48
-11.96
-8.83
-5.56
-2.53
0.01
2.01
3.55
4.76
5.73
6.49
7.05
7.39
7.57
7.70
7.89
8.24
8.75
9.32
9.82
10.12
10.17
10.00
9.70
9.32
8.89
8.37
7.70
6.87
5.93
4.97
4.10
3.36
2.77
2.25
1.70
1.04
0.25
-0.58
-1.32
-1.83
-2.04
-2.06
-2.06
-2.23
-2.63
-3.20
-3.77
-4.21
-4.52
-4.83
-5.33
-6.16
-7.31
-8.70
-10.20
-11.70
-13.11
-14.27
-14.93
-14.82
-13.73
-11.66
-8.82
-5.61
-2.41
0.45
2.83
4.68
6.03
6.94
7.50
7.82
8.01
8.20
8.45
8.80
9.21
9.62
9.97
10.20
10.28
10.22
10.02
9.72
9.33
8.87
8.37
7.88
7.45
7.11
6.83
6.50
5.98
5.16
4.04
2.72
1.39
0.27
-0.55
-1.08
-1.46
-1.89
-2.51
-3.39
-4.45
-5.56
-6.58
-7.43
-8.14
-8.80
-9.56
-10.47
-11.52
-12.63
-13.61
-14.29
-14.53
-14.23
-13.37
-11.99
-10.17
-8.05
-5.76
-3.42
-1.14
1.00
2.92
4.54
5.79
6.67
7.17
7.39
7.44
7.41
7.38
7.35
7.37
7.49
7.80
8.32
8.98
9.58
9.89
9.75
9.18
8.35
7.53
6.89
6.43
6.02
5.49
4.78
3.97
3.19
2.58
2.11
1.66
1.06
0.23
-0.83
-2.02
-3.22
-4.31
-5.25
-6.03
-6.72
-7.37
-8.07
-8.88
-9.86
-11.01
-12.29
-13.56
-14.60
-15.18
-15.06
-14.15
-12.48
-10.26
-7.80
-5.36
-3.14
-1.16
0.61
2.24
3.69
4.91
5.82
6.40
6.75
6.99
7.26
7.63
8.06
8.46
8.72
8.79
8.69
8.51
8.34
8.22
8.09
7.83
7.35
6.64
5.77
4.85
3.99
3.22
2.50
1.78
0.97
0.04
-1.01
-2.14
-3.30
-4.43
-5.47
-6.39
-7.20
-7.97
-8.81
-9.86
-11.16
-12.63
-14.04
-15.07
-15.39
-14.80
-13.31
-11.14
-8.62
-6.11
-3.87
-1.95
-0.32
1.14
2.50
3.77
4.92
5.87
6.59
7.10
7.45
7.71
7.90
8.00
7.97
7.80
7.49
7.10
6.68
6.26
5.87
5.50
5.15
4.81
4.45
4.02
3.47
2.77
1.96
1.11
0.31
-0.43
-1.18
-2.06
-3.19
-4.57
-6.11
-7.68
-9.18
-10.54
-11.76
-12.82
-13.62
-13.96
-13.64
-12.58
-10.82
-8.59
-6.16
-3.83
-1.76
-0.05
1.29
2.28
2.91
3.24
3.38
3.48
3.70
4.12
4.72
5.37
5.93
6.31
6.50
6.61
6.75
6.99
7.31
7.59
7.73
7.62
7.24
6.61
5.79
4.81
3.69
2.48
1.23
0.02
-1.03
-1.88
-2.52
-3.03
-3.56
-4.27
-5.26
-6.54
-7.95
-9.29
-10.27
-10.67
-10.36
-9.39
-7.85
-5.95
-3.87
-1.78
0.21
1.98
3.46
4.62
5.49
6.19
6.84
7.48
8.10
8.58
8.86
8.92
8.88
8.91
9.12
9.51
9.94
10.21
10.19
9.87
9.37
8.84
8.38
7.97
7.52
6.91
6.08
5.08
4.07
3.18
2.49
1.94
1.39
0.69
-0.22
-1.28
-2.36
-3.31
-4.07
-4.68
-5.27
-5.98
-6.89
-8.00
-9.27
-10.66
-12.07
-13.41
-14.55
-15.30
-15.48
-14.98
-13.77
-11.93
-9.67
-7.25
-4.92
-2.85
-1.11
0.35
1.64
2.83
3.94
4.89
5.61
6.05
6.25
6.34
6.41
6.53
6.69
6.79
6.78
6.61
6.33
6.06
5.90
5.90
6.05
6.23
6.30
6.13
5.68
4.94
4.05
3.13
2.29
1.54
0.85
0.14
-0.62
-1.37
-2.03
-2.54
-2.93
-3.32
-3.83
-4.52
-5.35
-6.20
-6.98
-7.69
-8.45
-9.43
-10.66
-11.97
-13.03
-13.42
-12.89
-11.38
-9.12
-6.46
-3.78
-1.32
0.81
2.62
4.15
5.44
6.49
7.28
7.84
8.20
8.42
8.56
8.65
8.74
8.85
8.99
9.15
9.31
9.43
9.48
9.45
9.37
9.25
9.11
8.90
8.57
8.07
7.43
6.67
5.90
5.14
4.41
3.66
2.85
1.97
1.05
0.15
-0.71
-1.54
-2.39
-3.31
-4.33
-5.40
-6.45
-7.42
-8.27
-9.05
-9.84
-10.77
-11.92
-13.30
-14.80
-16.17
-17.08
-17.20
-16.37
-14.61
-12.14
-9.26
-6.30
-3.50
-0.97
1.23
3.09
4.59
5.75
6.57
7.12
7.50
7.79
8.07
8.34
8.58
8.73
8.80
8.87
9.02
9.29
9.64
9.92
9.98
9.73
9.20
8.50
7.81
7.26
6.87
6.56
6.19
5.61
4.76
3.66
2.45
1.31
0.39
-0.23
-0.62
-0.95
-1.41
-2.10
-2.97
-3.91
-4.77
-5.50
-6.11
-6.70
-7.37
-8.20
-9.23
-10.47
-11.87
-13.32
-14.64
-15.61
-16.04
-15.79
-14.85
-13.29
-11.28
-9.03
-6.75
-4.64
-2.81
-1.31
-0.06
1.01
1.98
2.81
3.47
3.91
4.19
4.46
4.90
5.59
6.49
7.40
8.11
8.48
8.52
8.35
8.14
8.00
7.94
7.88
7.72
7.34
6.69
5.79
4.72
3.60
2.52
1.54
0.67
-0.10
-0.77
-1.35
-1.88
-2.44
-3.10
-3.94
-4.99
-6.19
-7.50
-8.82
-10.12
-11.37
-12.52
-13.45
-14.00
-13.99
-13.33
-12.03
-10.18
-7.98
-5.62
-3.29
-1.12
0.86
2.60
4.09
5.29
6.15
6.67
6.92
7.04
7.18
7.42
7.75
8.05
8.26
8.37
8.47
8.63
8.87
9.08
9.07
8.73
8.04
7.13
6.16
5.25
4.41
3.61
2.79
2.00
1.30
0.79
0.46
0.22
-0.13
-0.74
-1.69
-2.91
-4.24
-5.48
-6.49
-7.27
-7.91
-8.59
-9.47
-10.59
-11.92
-13.28
-14.53
-15.50
-16.09
-16.20
-15.73
-14.60
-12.77
-10.30
-7.40
-4.37
-1.57
0.76
2.51
3.77
4.75
5.66
6.65
7.71
8.73
9.57
10.14
10.43
10.52
10.51
10.49
10.51
10.58
10.67
10.73
10.68
10.49
10.16
9.71
9.20
8.65
8.04
7.36
6.60
5.81
5.08
4.48
4.01
3.56
2.99
2.18
1.13
-0.05
-1.23
-2.32
-3.33
-4.32
-5.37
-6.50
-7.65
-8.73
-9.66
-10.45
-11.20
-12.05
-13.13
-14.46
-15.92
-17.27
-18.18
-18.41
-17.85
-16.58
-14.79
-12.71
-10.51
-8.22
-5.83
-3.34
-0.86
1.43
3.35
4.78
5.71
6.25
6.57
6.84
7.17
7.63
8.15
8.64
8.98
9.08
8.94
8.65
8.28
7.90
7.51
7.06
6.52
5.92
5.35
4.94
4.74
4.71
4.79
4.88
5.00
5.16
5.43
5.87
6.45
7.05
7.50
7.62
7.26
6.46
5.35
4.10
2.84
1.56
0.13
-1.62
-3.73
-6.08
-8.46
-10.64
-12.51
-14.08
-15.37
-16.38
-16.98
-17.03
-16.47
-15.38
-13.98
-12.49
-11.04
-9.67
-8.30
-6.89
-5.46
-4.06
-2.72
-1.45
-0.20
1.05
2.25
3.30
4.08
4.55
4.77
4.91
5.13
5.52
6.06
6.65
7.21
7.74
8.31
9.04
9.96
11.01
12.07
12.96
13.59
13.94
14.01
13.79
13.24
12.32
11.08
9.71
8.45
7.46
6.71
5.96
4.91
3.42
1.54
-0.45
-2.30
-3.92
-5.41
-6.95
-8.66
-10.47
-12.23
-13.77
-15.03
-16.10
-17.04
-17.83
-18.30
-18.18
-17.23
-15.41
-12.86
-9.90
-6.87
-4.05
-1.58
0.54
2.37
4.02
5.56
7.01
8.36
9.53
10.47
11.15
11.59
11.86
12.02
12.09
12.05
11.83
11.35
10.64
9.79
8.93
8.15
7.47
6.79
6.04
5.19
4.29
3.47
2.77
2.16
1.52
0.72
-0.30
-1.48
-2.72
-3.95
-5.16
-6.39
-7.69
-9.05
-10.41
-11.69
-12.89
-14.07
-15.35
-16.82
-18.53
-20.47
-22.60
-24.88
-27.21
-29.41
-31.14
-31.96
-31.42
-29.24
-25.41
-20.31
-14.56
-8.82
-3.63
0.76
4.33
7.19
9.44
11.10
12.18
12.75
13.04
13.36
13.97
14.98
16.24
17.45
18.31
18.63
18.46
17.98
17.38
16.82
16.33
15.89
15.42
14.87
14.21
13.46
12.64
11.76
10.82
9.80
8.65
7.31
5.79
4.14
2.48
0.93
-0.41
-1.55
-2.57
-3.63
-4.87
-6.42
-8.35
-10.69
-13.42
-16.35
-19.15
-21.34
-22.37
-21.82
-19.57
-15.86
-11.25
-6.43
-2.01
1.66
4.45
6.46
7.83
8.69
9.12
9.16
8.95
8.67
8.56
8.83
9.58
10.74
12.07
13.25
13.99
14.15
13.79
13.11
12.39
11.80
11.36
10.97
10.49
9.82
9.02
8.17
7.33
6.48
5.48
4.23
2.68
0.92
-0.81
-2.29
-3.38
-4.07
-4.52
-4.91
-5.44
-6.27
-7.46
-9.04
-10.97
-13.15
-15.43
-17.53
-19.14
-19.87
-19.36
-17.40
-14.04
-9.62
-4.70
0.09
4.21
7.38
9.56
10.90
11.63
11.94
11.98
11.83
11.57
11.27
11.00
10.81
10.73
10.73
10.77
10.82
10.85
10.84
10.74
10.50
10.05
9.36
8.45
7.40
6.32
5.32
4.44
3.67
2.93
2.13
1.18
0.05
-1.21
-2.56
-3.89
-5.15
-6.38
-7.66
-9.13
-10.89
-12.95
-15.19
-17.32
-19.02
-19.95
-19.83
-18.52
-16.05
-12.63
-8.59
-4.35
-0.33
3.12
5.78
7.60
8.60
8.92
8.73
8.25
7.68
7.21
6.99
7.06
7.36
7.77
8.13
8.32
8.25
7.94
7.39
6.62
5.63
4.45
3.16
1.89
0.81
-0.02
-0.58
-1.02
-1.52
-2.25
-3.30
-4.59
-6.00
-7.34
-8.48
-9.42
-10.30
-11.32
-12.65
-14.31
-16.15
-17.86
-19.05
-19.41
-18.79
-17.22
-14.88
-12.02
-8.91
-5.75
-2.72
0.08
2.59
4.77
6.67
8.32
9.79
11.12
12.30
13.32
14.12
14.66
14.94
15.00
14.91
14.73
14.44
13.98
13.31
12.40
11.29
10.11
8.96
7.92
6.99
6.07
5.06
3.85
2.41
0.76
-1.03
-2.88
-4.74
-6.55
-8.31
-10.00
-11.59
-13.09
-14.53
-15.98
-17.56
-19.29
-21.05
-22.57
-23.41
-23.21
-21.79
-19.25
-15.97
-12.43
-9.07
-6.15
-3.77
-1.89
-0.43
0.61
1.24
1.46
1.32
0.98
0.68
0.68
1.24
2.42
4.11
6.05
7.93
9.50
10.69
11.57
12.27
12.84
13.24
13.30
12.90
12.00
10.73
9.34
8.06
7.03
6.21
5.34
4.09
2.17
-0.61
-4.24
-8.53
-13.15
-17.70
-21.72
-24.76
-26.43
-26.48
-24.92
-21.99
-18.13
-13.88
-9.73
-6.02
-2.92
-0.45
1.42
2.77
3.69
4.33
4.82
5.33
5.95
6.66
7.33
7.78
7.83
7.44
6.75
6.09
5.79
6.11
7.00
8.21
9.28
9.78
9.42
8.18
6.25
3.96
1.63
-0.54
-2.49
-4.28
-5.98
-7.62
-9.19
-10.57
-11.55
-11.83
-11.06
-8.92
-5.22
-0.08
6.08
12.57
18.61
23.58
27.11
29.14
29.79
29.22
27.55
24.90
21.43
17.42
13.21
9.08
5.23
1.70
-1.50
-4.30
-6.53
-7.97
-8.48
-8.14
-7.22
-6.12
-5.22
-4.73
-4.67
-4.99
-5.59
-6.43
-7.55
-8.93
-10.52
-12.21
-13.86
-15.39
-16.78
-18.11
-19.47
-20.99
-22.76
-24.77
-26.93
-28.98
-30.56
-31.25
-30.72
-28.81
-25.56
-21.28
-16.35
-11.19
-6.14
-1.38
2.98
6.93
10.40
13.29
15.44
16.78
17.38
17.45
17.28
17.14
17.12
17.16
17.15
17.03
16.82
16.61
16.44
16.30
16.09
15.73
15.15
14.37
13.41
12.25
10.82
9.08
7.10
5.01
3.03
1.25
-0.34
-1.92
-3.72
-5.93
-8.62
-11.70
-14.94
-18.01
-20.51
-22.01
-22.10
-20.57
-17.42
-12.97
-7.75
-2.38
2.60
6.85
10.27
12.91
14.91
16.37
17.34
17.87
18.05
18.00
17.87
17.75
17.66
17.53
17.26
16.78
16.14
15.42
14.74
14.16
13.65
13.11
12.42
11.51
10.39
9.12
7.83
6.58
5.42
4.33
3.26
2.19
1.10
-0.00
-1.13
-2.33
-3.68
-5.26
-7.08
-9.04
-10.98
-12.74
-14.20
-15.39
-16.41
-17.47
-18.76
-20.43
-22.50
-24.81
-27.00
-28.58
-28.96
-27.71
-24.67
-20.07
-14.45
-8.51
-2.86
2.08
6.22
9.62
12.42
14.73
16.53
17.79
18.52
18.80
18.77
18.59
18.34
18.01
17.54
16.93
16.23
15.56
15.04
14.72
14.51
14.26
13.79
13.01
11.95
10.73
9.47
8.27
7.11
5.96
4.72
3.39
1.98
0.56
-0.82
-2.09
-3.27
-4.39
-5.56
-6.81
-8.17
-9.58
-10.95
-12.16
-13.10
-13.78
-14.30
-14.86
-15.68
-16.95
-18.74
-20.98
-23.44
-25.74
-27.44
-28.04
-27.23
-24.90
-21.24
-16.68
-11.75
-6.95
-2.58
1.25
4.57
7.44
9.90
11.91
13.44
14.44
14.97
15.13
15.04
14.85
14.70
14.69
14.84
15.11
15.35
15.38
15.10
14.50
13.68
12.78
11.92
11.10
10.21
9.13
7.80
6.28
4.75
3.39
2.33
1.53
0.87
0.12
-0.87
-2.18
-3.78
-5.58
-7.41
-9.12
-10.62
-11.83
-12.78
-13.58
-14.38
-15.34
-16.63
-18.27
-20.18
-22.15
-23.81
-24.77
-24.60
-23.04
-20.03
-15.83
-10.95
-6.00
-1.52
2.21
5.21
7.67
9.82
11.74
13.38
14.56
15.16
15.20
14.88
14.49
14.31
14.41
14.72
15.02
15.11
14.88
14.40
13.84
13.32
12.86
12.35
11.66
10.68
9.46
8.14
6.88
5.76
4.78
3.87
2.96
2.04
1.15
0.30
-0.49
-1.29
-2.19
-3.29
-4.62
-6.15
-7.78
-9.36
-10.73
-11.83
-12.67
-13.36
-14.09
-15.01
-16.23
-17.78
-19.60
-21.58
-23.50
-25.06
-25.93
-25.81
-24.52
-22.08
-18.71
-14.72
-10.46
-6.23
-2.24
1.40
4.62
7.40
9.77
11.76
13.39
14.66
15.57
16.12
16.37
16.41
16.36
16.31
16.28
16.20
15.99
15.59
15.06
14.47
13.90
13.36
12.77
11.98
10.92
9.57
8.08
6.67
5.52
4.75
4.27
3.90
3.41
2.67
1.63
0.37
-1.00
-2.38
-3.73
-5.04
-6.31
-7.51
-8.63
-9.63
-10.50
-11.25
-11.93
-12.61
-13.42
-14.47
-15.86
-17.61
-19.65
-21.75
-23.60
-24.85
-25.17
-24.34
-22.26
-19.04
-14.95
-10.34
-5.64
-1.19
2.78
6.10
8.70
10.57
11.75
12.39
12.67
12.80
12.90
13.03
13.15
13.23
13.27
13.28
13.31
13.34
13.33
13.20
12.86
12.30
11.54
10.65
9.67
8.65
7.63
6.62
5.64
4.69
3.74
2.74
1.67
0.52
-0.66
-1.84
-3.00
-4.16
-5.36
-6.65
-8.03
-9.44
-10.83
-12.13
-13.34
-14.53
-15.77
-17.13
-18.62
-20.18
-21.69
-22.98
-23.82
-23.98
-23.21
-21.36
-18.44
-14.61
-10.24
-5.78
-1.66
1.85
4.68
6.94
8.82
10.45
11.89
13.05
13.84
14.22
14.30
14.25
14.30
14.56
14.99
15.46
15.77
15.81
15.59
15.15
14.55
13.80
12.83
11.61
10.20
8.76
7.47
6.47
5.74
5.14
4.47
3.59
2.50
1.32
0.19
-0.75
-1.48
-2.07
-2.63
-3.31
-4.19
-5.37
-6.84
-8.55
-10.35
-12.08
-13.58
-14.78
-15.73
-16.61
-17.62
-18.93
-20.56
-22.33
-23.89
-24.79
-24.64
-23.14
-20.30
-16.36
-11.78
-7.12
-2.85
0.79
3.74
6.18
8.29
10.20
11.94
13.43
14.59
15.40
15.87
16.08
16.10
15.94
15.64
15.23
14.78
14.35
13.95
13.52
13.00
12.31
11.49
10.59
9.72
8.90
8.12
7.30
6.37
5.34
4.24
3.15
2.14
1.20
0.30
-0.60
-1.53
-2.53
-3.61
-4.76
-5.95
-7.11
-8.16
-9.07
-9.87
-10.64
-11.50
-12.58
-13.90
-15.43
-17.10
-18.73
-20.12
-20.99
-21.05
-20.05
-17.89
-14.67
-10.69
-6.35
-2.09
1.75
4.93
7.40
9.18
10.38
11.12
11.51
11.66
11.69
11.72
11.86
12.17
12.62
13.10
13.45
13.53
13.31
12.82
12.16
11.38
10.52
9.57
8.54
7.53
6.65
5.99
5.56
5.26
4.89
4.32
3.47
2.36
1.10
-0.21
-1.45
-2.60
-3.62
-4.54
-5.40
-6.24
-7.15
-8.20
-9.42
-10.73
-12.02
-13.19
-14.23
-15.23
-16.39
-17.92
-19.83
-21.98
-23.95
-25.23
-25.30
-23.89
-21.01
-17.00
-12.41
-7.78
-3.54
0.11
3.17
5.76
8.00
9.96
11.66
13.05
14.13
14.92
15.45
15.79
15.97
16.05
16.03
15.92
15.70
15.36
14.91
14.40
13.87
13.39
12.97
12.59
12.19
11.69
11.02
10.17
9.15
8.02
6.87
5.77
4.75
3.78
2.81
1.80
0.74
-0.32
-1.30
-2.12
-2.74
-3.22
-3.71
-4.34
-5.20
-6.30
-7.52
-8.72
-9.80
-10.73
-11.61
-12.59
-13.77
-15.27
-17.08
-19.14
-21.27
-23.21
-24.59
-25.05
-24.31
-22.26
-19.07
-15.09
-10.82
-6.67
-2.94
0.29
3.03
5.37
7.35
9.00
10.31
11.30
12.01
12.52
12.89
13.17
13.35
13.41
13.33
13.13
12.87
12.58
12.31
12.05
11.78
11.46
11.02
10.43
9.67
8.72
7.67
6.59
5.60
4.79
4.15
3.62
3.08
2.43
1.62
0.67
-0.38
-1.49
-2.66
-3.89
-5.14
-6.35
-7.45
-8.34
-9.06
-9.70
-10.46
-11.54
-13.12
-15.21
-17.62
-20.01
-21.90
-22.83
-22.48
-20.77
-17.91
-14.27
-10.29
-6.33
-2.63
0.71
3.65
6.18
8.29
9.95
11.10
11.77
12.02
12.01
11.93
11.95
12.14
12.48
12.84
13.10
13.14
12.97
12.63
12.22
11.78
11.31
10.79
10.18
9.45
8.57
7.53
6.37
5.13
3.88
2.66
1.49
0.39
-0.67
-1.67
-2.61
-3.48
-4.28
-5.08
-5.95
-6.92
-8.04
-9.27
-10.57
-11.86
-13.08
-14.26
-15.48
-16.87
-18.52
-20.40
-22.27
-23.72
-24.28
-23.59
-21.57
-18.42
-14.55
-10.46
-6.52
-2.91
0.32
3.22
5.83
8.14
10.12
11.73
12.96
13.83
14.42
14.82
15.09
15.29
15.43
15.50
15.45
15.25
14.92
14.51
14.10
13.72
13.31
12.80
12.10
11.18
10.07
8.90
7.78
6.80
5.96
5.21
4.44
3.62
2.73
1.79
0.85
-0.09
-1.07
-2.18
-3.43
-4.83
-6.24
-7.52
-8.59
-9.44
-10.16
-10.88
-11.70
-12.65
-13.75
-15.05
-16.63
-18.53
-20.66
-22.70
-24.19
-24.62
-23.65
-21.28
-17.79
-13.69
-9.49
-5.56
-2.11
0.83
3.29
5.34
7.05
8.49
9.72
10.78
11.69
12.41
12.88
13.10
13.11
13.01
12.91
12.87
12.90
12.95
12.94
12.85
12.66
12.37
11.91
11.22
10.22
8.95
7.55
6.23
5.13
4.29
3.63
2.95
2.11
1.05
-0.19
-1.48
-2.74
-3.89
-4.94
-5.88
-6.75
-7.59
-8.44
-9.40
-10.53
-11.92
-13.56
-15.34
-17.02
-18.24
-18.61
-17.83
-15.82
-12.78
-9.08
-5.17
-1.40
2.09
5.33
8.43
11.43
14.25
16.74
18.78
20.43
21.92
23.57
25.72
28.56
32.14
36.42
41.33
46.75
52.33
57.41
60.97
61.87
59.27
53.03
43.82
32.94
21.83
11.67
3.16
-3.37
-7.80
-10.15
-10.83
-10.93
-12.20
-16.53
-25.13
-37.72
-52.29
-65.71
-74.88
-77.75
-74.06
-65.08
-52.89
-39.64
-27.10
-16.58
-8.99
-4.77
-3.71
-4.84
-6.58
-7.27
-5.84
-2.19
2.88
8.23
13.11
17.58
22.47
28.85
37.48
48.36
60.76
73.32
84.17
91.01
91.26
82.63
64.01
36.36
2.91
-31.21
-60.51
-80.87
-90.60
-90.74
-84.21
-74.50
-64.61
-56.37
-50.51
-46.89
-44.75
-42.85
-39.77
-34.33
-26.16
-16.10
-6.00
1.88
5.83
5.30
1.02
-5.46
-12.51
-19.00
-24.50
-29.03
-32.64
-35.11
-35.98
-34.80
-31.47
-26.40
-20.41
-14.46
-9.36
-5.46
-2.64
-0.43
1.70
4.14
7.02
10.26
13.70
17.17
20.36
22.86
24.20
24.01
22.27
19.37
15.94
12.57
9.48
6.53
3.41
0.08
-3.05
-5.15
-5.37
-3.31
0.67
5.52
9.94
12.81
13.65
12.65
10.49
7.98
5.82
4.44
4.05
4.67
6.24
8.57
11.29
13.87
15.68
16.23
15.33
13.23
10.50
7.78
5.37
3.09
0.25
-3.99
-10.26
-18.64
-28.49
-38.55
-47.22
-52.92
-54.49
-51.54
-44.65
-35.27
-25.31
-16.52
-9.90
-5.45
-2.43
0.16
2.91
5.88
8.69
10.98
12.64
13.88
15.07
16.42
17.96
19.47
20.67
21.31
21.24
20.43
19.04
17.43
16.09
15.48
15.87
17.16
19.03
21.07
23.03
24.84
26.60
28.34
29.92
30.87
30.49
28.06
23.09
15.61
6.28
-3.63
-12.59
-19.17
-22.51
-22.55
-19.87
-15.51
-10.50
-5.64
-1.31
2.47
5.96
9.64
13.94
19.05
24.71
30.03
33.69
34.30
30.89
23.43
12.94
1.23
-9.73
-18.42
-24.27
-27.70
-29.70
-31.29
-32.97
-34.47
-34.95
-33.46
-29.52
-23.46
-16.35
-9.64
-4.53
-1.62
-0.69
-1.01
-1.68
-2.02
-1.67
-0.56
1.30
3.95
7.46
11.73
16.43
20.90
24.37
26.20
26.14
24.41
21.62
18.46
15.51
13.07
11.20
9.80
8.72
7.81
6.97
6.21
5.74
6.00
7.60
11.14
16.88
24.59
33.59
42.91
51.60
58.80
63.81
66.01
64.84
60.01
51.72
40.81
28.76
17.31
7.94
1.36
-2.76
-5.67
-8.87
-13.35
-18.98
-24.42
-27.70
-27.11
-22.19
-13.98
-4.66
3.31
8.17
9.24
6.98
2.52
-2.89
-8.18
-12.49
-15.16
-15.65
-13.58
-8.93
-2.09
6.05
14.15
20.62
23.82
22.46
15.95
4.77
-9.47
-24.28
-36.92
-45.15
-47.89
-45.33
-38.67
-29.41
-18.73
-7.28
4.58
16.26
26.63
34.22
37.90
37.54
34.24
29.84
26.01
23.53
22.09
20.83
19.14
17.05
14.88
12.58
9.25
3.34
-6.38
-19.80
-35.01
-48.99
-58.87
-63.25
-62.65
-58.86
-53.85
-48.64
-43.07
-36.34
-27.94
-18.30
-8.83
-1.26
3.20
4.47
3.61
2.32
2.11
3.63
6.41
9.23
10.78
10.35
8.15
5.09
2.09
-0.57
-3.56
-8.21
-15.85
-27.01
-40.96
-55.82
-69.17
-78.80
-83.40
-82.83
-78.00
-70.44
-61.77
-53.28
-45.74
-39.39
-34.13
-29.79
-26.14
-22.95
-19.82
-16.23
-11.72
-6.18
0.03
6.13
11.40
15.59
19.10
22.81
27.52
33.43
39.91
45.59
49.05
49.42
46.93
42.87
39.10
37.28
38.12
41.01
44.28
45.90
44.38
39.42
31.89
23.35
15.30
8.69
3.76
0.33
-1.89
-3.14
-3.63
-3.73
-3.99
-4.96
-6.90
-9.64
-12.60
-15.19
-17.14
-18.64
-20.29
-22.73
-26.34
-30.97
-35.95
-40.34
-43.36
-44.75
-44.90
-44.63
-44.75
-45.72
-47.36
-49.06
-50.12
-50.01
-48.60
-46.01
-42.39
-37.85
-32.43
-26.28
-19.82
-13.73
-8.75
-5.44
-3.96
-3.99
-4.88
-5.85
-6.33
-6.11
-5.41
-4.65
-4.28
-4.55
-5.38
-6.52
-7.71
-8.83
-9.93
-11.12
-12.40
-13.65
-14.62
-15.10
-14.98
-14.24
-12.82
-10.57
-7.21
-2.49
3.68
11.05
19.12
27.18
34.56
40.74
45.46
48.68
50.52
51.21
51.01
50.17
48.91
47.37
45.67
43.85
41.95
39.97
37.85
35.50
32.88
30.02
27.06
24.25
21.81
19.82
18.27
16.95
15.69
14.30
12.71
10.91
8.92
6.80
4.68
2.70
1.02
-0.31
-1.39
-2.49
-3.90
-5.83
-8.35
-11.39
-14.74
-18.08
-21.03
-23.11
-23.85
-22.92
-20.20
-15.92
-10.56
-4.70
1.09
6.36
10.84
14.35
16.84
18.32
18.93
18.90
18.52
17.97
17.39
16.81
16.25
15.75
15.36
15.13
15.00
14.85
14.52
13.90
12.97
11.78
10.45
9.11
7.85
6.71
5.69
4.76
3.87
3.03
2.20
1.41
0.68
0.03
-0.53
-0.98
-1.34
-1.68
-2.09
-2.73
-3.75
-5.25
-7.21
-9.43
-11.56
-13.12
-13.66
-12.88
-10.74
-7.47
-3.45
0.91
5.27
9.42
13.22
16.51
19.08
20.78
21.55
21.53
21.00
20.24
19.47
18.77
18.09
17.42
16.74
16.09
15.46
14.76
13.89
12.77
11.47
10.17
9.08
8.32
7.81
7.35
6.70
5.71
4.40
2.92
1.48
0.18
-1.00
-2.17
-3.43
-4.82
-6.29
-7.73
-9.08
-10.34
-11.58
-12.92
-14.47
-16.28
-18.36
-20.68
-23.09
-25.36
-27.10
-27.90
-27.36
-25.31
-21.83
-17.27
-12.13
-6.91
-1.97
2.48
6.38
9.70
12.44
14.57
16.03
16.84
17.05
16.81
16.30
15.70
15.15
14.66
14.18
13.63
12.97
12.26
11.60
11.08
10.70
10.34
9.86
9.09
7.98
6.56
4.95
3.31
1.81
0.53
-0.50
-1.36
-2.20
-3.15
-4.29
-5.61
-7.01
-8.36
-9.57
-10.64
-11.64
-12.69
-13.88
-15.32
-17.03
-18.98
-20.96
-22.64
-23.58
-23.39
-21.84
-18.93
-14.94
-10.31
-5.49
-0.91
3.18
6.66
9.49
11.72
13.38
14.53
15.21
15.45
15.34
14.96
14.42
13.86
13.35
12.93
12.58
12.24
11.88
11.49
11.06
10.60
10.08
9.46
8.70
7.81
6.80
5.73
4.59
3.37
2.05
0.65
-0.71
-1.89
-2.78
-3.41
-3.96
-4.72
-5.89
-7.52
-9.44
-11.34
-12.91
-14.01
-14.69
-15.20
-15.83
-16.84
-18.37
-20.36
-22.59
-24.67
-26.09
-26.34
-25.08
-22.24
-18.08
-13.14
-8.02
-3.23
0.95
4.47
7.44
9.96
12.06
13.70
14.79
15.32
15.37
15.11
14.76
14.46
14.26
14.08
13.84
13.47
13.01
12.57
12.28
12.17
12.14
11.99
11.51
10.60
9.31
7.84
6.42
5.23
4.29
3.52
2.80
2.01
1.10
0.10
-0.91
-1.85
-2.69
-3.49
-4.36
-5.38
-6.58
-7.90
-9.20
-10.31
-11.15
-11.73
-12.23
-12.87
-13.86
-15.36
-17.37
-19.73
-22.11
-24.06
-25.13
-24.93
-23.32
-20.36
-16.35
-11.72
-6.90
-2.26
1.92
5.48
8.33
10.46
11.94
12.86
13.33
13.42
13.19
12.74
12.23
11.82
11.65
11.69
11.83
11.87
11.66
11.22
10.66
10.15
9.72
9.28
8.67
7.76
6.61
5.43
4.44
3.76
3.31
2.88
2.22
1.17
-0.26
-1.93
-3.65
-5.26
-6.65
-7.81
-8.77
-9.61
-10.40
-11.22
-12.14
-13.24
-14.56
-16.09
-17.68
-19.08
-19.90
-19.74
-18.34
-15.66
-11.95
-7.69
-3.38
0.55
3.85
6.43
8.34
9.68
10.56
11.09
11.36
11.47
11.47
11.40
11.28
11.11
10.89
10.66
10.43
10.21
9.97
9.70
9.36
8.97
8.55
8.10
7.60
6.99
6.20
5.21
4.08
2.93
1.87
0.96
0.18
-0.60
-1.49
-2.57
-3.81
-5.11
-6.37
-7.48
-8.42
-9.18
-9.80
-10.36
-10.95
-11.66
-12.57
-13.72
-15.13
-16.76
-18.47
-20.07
-21.22
-21.59
-20.88
-18.96
-15.94
-12.15
-8.03
-4.00
-0.35
2.82
5.55
7.89
9.84
11.35
12.35
12.86
12.98
12.90
12.78
12.70
12.60
12.39
12.03
11.54
11.05
10.67
10.43
10.29
10.12
9.81
9.33
8.73
8.06
7.33
6.51
5.54
4.44
3.26
2.11
1.10
0.23
-0.55
-1.35
-2.28
-3.33
-4.43
-5.47
-6.40
-7.23
-8.07
-8.98
-10.01
-11.12
-12.28
-13.49
-14.78
-16.14
-17.42
-18.31
-18.41
-17.41
-15.23
-12.07
-8.37
-4.59
-1.08
1.98
4.55
6.65
8.26
9.40
10.07
10.36
10.41
10.38
10.34
10.33
10.31
10.23
10.06
9.85
9.65
9.50
9.39
9.26
9.02
8.63
8.04
7.27
6.35
5.33
4.25
3.19
2.21
1.34
0.57
-0.20
-1.08
-2.15
-3.46
-4.95
-6.48
-7.91
-9.10
-10.02
-10.71
-11.32
-12.02
-12.99
-14.30
-15.90
-17.57
-18.96
-19.67
-19.36
-17.87
-15.25
-11.76
-7.83
-3.90
-0.30
2.82
5.44
7.62
9.40
10.76
11.64
12.06
12.12
11.98
11.79
11.63
11.48
11.26
10.96
10.61
10.30
10.11
10.01
9.92
9.69
9.25
8.64
7.94
7.27
6.65
6.02
5.28
4.39
3.37
2.33
1.36
0.50
-0.27
-1.00
-1.76
-2.54
-3.30
-4.02
-4.72
-5.46
-6.30
-7.22
-8.16
-9.02
-9.74
-10.35
-10.96
-11.71
-12.71
-13.99
-15.47
-16.95
-18.12
-18.62
-18.16
-16.58
-13.98
-10.64
-6.96
-3.32
0.05
3.00
5.51
7.56
9.15
10.28
11.00
11.38
11.52
11.48
11.34
11.12
10.89
10.71
10.59
10.51
10.37
10.09
9.59
8.87
7.96
6.92
5.79
4.63
3.49
2.41
1.43
0.58
-0.16
-0.83
-1.42
-1.96
-2.45
-2.92
-3.42
-3.99
-4.66
-5.40
-6.18
-7.00
-7.88
-8.87
-9.99
-11.19
-12.37
-13.37
-14.05
-14.35
-14.29
-13.87
-13.03
-11.62
-9.38
-6.10
-1.78
3.38
8.99
14.64
20.09
25.31
30.43
35.62
40.92
46.12
50.76
54.28
56.22
56.33
54.69
51.70
47.93
43.94
40.18
36.87
34.05
31.64
29.51
27.55
25.69
23.92
22.30
20.98
20.19
20.11
20.75
21.87
22.96
23.38
22.56
20.15
16.10
10.60
4.05
-3.13
-10.56
-17.88
-24.74
-30.83
-35.83
-39.46
-41.50
-41.84
-40.48
-37.65
-33.81
-29.66
-26.01
-23.60
-22.84
-23.69
-25.59
-27.68
-29.02
-28.86
-26.87
-23.20
-18.35
-13.01
-7.86
-3.37
0.31
3.29
5.85
8.18
10.24
11.76
12.35
11.69
9.66
6.30
1.67
-4.19
-11.17
-18.85
-26.44
-32.91
-37.34
-39.41
-39.54
-38.67
-37.73
-37.13
-36.67
-35.76
-33.88
-30.91
-27.08
-22.75
-18.12
-13.12
-7.65
-1.73
4.32
10.04
15.03
19.16
22.59
25.68
28.80
32.18
35.81
39.45
42.60
44.53
44.38
41.33
34.86
25.02
12.49
-1.40
-15.01
-26.80
-35.70
-41.31
-43.90
-44.20
-43.08
-41.31
-39.36
-37.42
-35.53
-33.69
-31.96
-30.42
-29.09
-27.75
-25.98
-23.19
-18.92
-13.10
-6.22
0.69
6.33
9.63
10.03
7.74
3.53
-1.53
-6.47
-10.62
-13.72
-15.81
-17.11
-17.95
-18.66
-19.58
-20.96
-22.91
-25.37
-28.14
-30.93
-33.52
-35.84
-37.99
-40.13
-42.39
-44.73
-46.86
-48.31
-48.57
-47.31
-44.56
-40.83
-36.99
-34.02
-32.68
-33.24
-35.35
-38.15
-40.61
-41.82
-41.27
-38.88
-34.83
-29.47
-23.03
-15.72
-7.75
0.55
8.71
16.21
22.60
27.67
31.53
34.52
37.03
39.32
41.42
43.12
44.10
44.17
43.33
41.85
40.13
38.57
37.39
36.55
35.76
34.58
32.63
29.68
25.83
21.52
17.50
14.72
14.16
16.52
21.94
29.82
38.86
47.39
53.78
56.97
56.60
53.02
46.91
39.06
30.15
20.85
11.90
4.11
-1.77
-5.27
-6.40
-5.66
-3.91
-2.04
-0.79
-0.54
-1.32
-2.95
-5.19
-8.02
-11.66
-16.53
-22.90
-30.61
-38.73
-45.68
-49.58
-48.89
-43.04
-32.69
-19.74
-6.69
4.02
10.77
13.13
11.94
8.95
6.28
5.78
8.56
14.62
22.85
31.27
37.52
39.53
36.00
26.73
12.74
-3.86
-20.15
-32.88
-39.14
-37.12
-26.60
-9.11
12.40
34.22
52.57
64.20
66.92
60.05
44.89
24.78
4.47
-11.23
-19.09
-18.65
-12.26
-3.89
2.79
5.81
5.34
2.89
0.15
-1.93
-3.34
-4.46
-5.51
-6.38
-6.77
-6.66
-6.45
-6.86
-8.54
-11.72
-16.03
-20.60
-24.28
-25.85
-24.13
-18.30
-8.19
5.46
20.79
35.02
44.93
47.62
41.50
26.96
6.64
-14.97
-32.66
-41.98
-40.54
-28.75
-9.51
12.83
33.87
50.37
60.76
65.01
64.00
58.95
51.06
41.38
30.93
20.65
11.27
3.21
-3.64
-9.81
-15.96
-22.47
-29.21
-35.44
-40.09
-42.13
-40.97
-36.67
-29.86
-21.53
-12.69
-4.18
3.43
9.89
15.17
19.39
22.69
25.18
26.78
27.28
26.35
23.86
20.17
16.31
13.85
14.39
18.86
26.97
37.11
46.86
53.87
56.78
55.53
51.25
45.52
39.69
34.47
29.97
26.00
22.36
18.97
15.76
12.53
8.93
4.55
-0.85
-7.18
-14.01
-20.70
-26.60
-31.30
-34.74
-37.23
-39.25
-41.28
-43.52
-45.80
-47.68
-48.58
-48.06
-45.99
-42.57
-38.26
-33.60
-29.06
-24.92
-21.27
-18.07
-15.22
-12.66
-10.33
-8.23
-6.34
-4.63
-3.04
-1.54
-0.11
1.23
2.44
3.47
4.32
4.96
5.41
5.73
5.94
6.05
6.06
5.92
5.60
5.06
4.36
3.57
2.81
2.14
1.53
0.88
0.11
-0.80
-1.80
-2.74
-3.55
-4.22
-4.87
-5.66
-6.71
-8.05
-9.52
-10.81
-11.54
-11.35
-10.11
-7.94
-5.19
-2.35
0.18
2.20
3.74
4.98
6.08
7.06
7.85
8.32
8.46
8.35
8.16
8.03
7.98
7.94
7.78
7.44
6.95
6.43
6.01
5.71
5.46
5.11
4.53
3.73
2.80
1.89
1.11
0.48
-0.07
-0.59
-1.11
-1.63
-2.17
-2.78
-3.53
-4.44
-5.46
-6.47
-7.31
-7.96
-8.47
-8.98
-9.67
-10.64
-11.83
-13.05
-14.00
-14.38
-13.93
-12.59
-10.49
-7.87
-5.05
-2.28
0.31
2.64
4.72
6.52
8.03
9.28
10.31
11.19
11.91
12.42
12.62
12.46
11.96
11.24
10.46
9.74
9.10
8.48
7.79
6.96
6.01
5.00
4.00
3.03
2.07
1.09
0.10
-0.81
-1.54
-2.00
-2.23
-2.32
-2.48
-2.86
-3.55
-4.50
-5.59
-6.65
-7.58
-8.32
-8.87
-9.25
-9.45
-9.41
-9.02
-8.19
-6.89
-5.22
-3.37
-1.57
0.02
1.33
2.40
3.29
4.05
4.65
5.05
5.19
5.09
4.79
4.40
3.99
3.59
3.22
2.88
2.58
2.31
2.06
1.82
1.63
1.51
1.52
1.65
1.83
1.97
2.00
1.90
1.76
1.69
1.81
2.15
2.65
3.14
3.44
3.42
3.01
2.21
1.05
-0.43
-2.19
-4.09
-5.95
-7.45
-8.27
-8.17
-7.12
-5.30
-3.04
-0.72
1.34
2.95
4.05
4.62
4.70
4.37
3.70
2.84
1.94
1.12
0.49
0.07
-0.15
-0.23
-0.24
-0.23
-0.22
-0.16
-0.01
0.28
0.71
1.23
1.76
2.26
2.69
3.05
3.32
3.45
3.36
3.02
2.43
1.69
0.91
0.19
-0.46
-1.14
-2.00
-3.15
-4.64
-6.37
-8.17
-9.78
-11.00
-11.62
-11.55
-10.76
-9.33
-7.40
-5.21
-3.04
-1.17
0.25
1.14
1.61
1.81
1.90
2.04
2.33
2.82
3.52
4.42
5.45
6.53
7.55
8.45
9.14
9.61
9.82
9.77
9.48
9.01
8.44
7.85
7.28
6.70
6.01
5.09
3.93
2.60
1.27
0.11
-0.79
-1.49
-2.13
-2.81
-3.62
-4.53
-5.49
-6.48
-7.53
-8.62
-9.65
-10.42
-10.68
-10.26
-9.15
-7.53
-5.67
-3.82
-2.17
-0.77
0.39
1.32
2.04
2.53
2.78
2.81
2.68
2.47
2.30
2.28
2.45
2.79
3.23
3.66
3.98
4.11
3.99
3.62
3.02
2.28
1.50
0.81
0.26
-0.14
-0.49
-0.91
-1.47
-2.16
-2.88
-3.51
-3.97
-4.24
-4.37
-4.38
-4.29
-4.13
-3.95
-3.89
-4.13
-4.78
-5.76
-6.79
-7.43
-7.34
-6.35
-4.63
-2.50
-0.38
1.45
2.91
4.08
5.07
5.99
6.85
7.57
8.06
8.24
8.15
7.87
7.54
7.25
7.05
6.90
6.71
6.39
5.90
5.23
4.43
3.56
2.68
1.89
1.25
0.80
0.54
0.39
0.24
-0.02
-0.43
-0.97
-1.60
-2.23
-2.80
-3.23
-3.47
-3.51
-3.41
-3.26
-3.17
-3.20
-3.33
-3.48
-3.56
-3.55
-3.47
-3.44
-3.50
-3.69
-3.96
-4.27
-4.62
-5.06
-5.67
-6.48
-7.51
-8.68
-9.91
-11.16
-12.40
-13.59
-14.64
-15.34
-15.46
-14.81
-13.39
-11.35
-9.01
-6.67
-4.55
-2.75
-1.24
-0.01
0.94
1.59
1.92
1.94
1.72
1.32
0.76
0.07
-0.81
-1.88
-3.20
-4.77
-6.60
-8.62
-10.73
-12.82
-14.78
-16.57
-18.20
-19.69
-21.03
-22.17
-23.11
-23.92
-24.80
-25.99
-27.66
-29.79
-32.16
-34.37
-35.97
-36.52
-35.64
-33.04
-28.64
-22.59
-15.35
-7.58
0.04
6.99
13.07
18.41
23.29
27.95
32.52
37.00
41.33
45.41
49.16
52.40
54.83
56.07
55.79
53.84
50.33
45.68
40.44
35.21
30.47
26.51
23.43
21.15
19.45
17.97
16.33
14.16
11.25
7.66
3.69
-0.11
-3.21
-5.19
-5.94
-5.59
-4.46
-2.92
-1.25
0.37
1.87
3.23
4.48
5.62
6.64
7.50
8.17
8.61
8.83
8.86
8.75
8.55
8.28
7.93
7.58
7.36
7.47
8.14
9.46
11.32
13.43
15.41
16.90
17.75
17.96
17.70
17.09
16.18
14.84
12.92
10.28
6.96
3.12
-1.03
-5.28
-9.52
-13.73
-17.87
-21.84
-25.47
-28.54
-30.85
-32.26
-32.76
-32.45
-31.53
-30.22
-28.69
-27.03
-25.19
-23.07
-20.61
-17.86
-14.95
-12.03
-9.20
-6.52
-4.08
-2.06
-0.72
-0.30
-0.77
-1.77
-2.68
-2.83
-1.79
0.51
3.88
8.07
12.92
18.31
23.99
29.41
33.70
36.04
36.07
34.18
31.43
29.04
27.68
27.01
25.76
22.34
15.73
6.16
-4.83
-15.08
-22.64
-26.58
-27.11
-25.23
-22.19
-19.09
-16.77
-15.86
-16.75
-19.34
-22.78
-25.50
-25.79
-22.71
-16.86
-10.53
-6.78
-8.09
-15.01
-25.73
-36.84
-44.85
-47.71
-45.58
-40.49
-35.13
-31.54
-30.25
-30.41
-30.43
-28.89
-24.96
-18.42
-9.39
1.98
15.34
29.96
44.51
57.26
66.50
71.17
71.22
67.61
61.97
56.05
51.34
48.78
48.71
50.89
54.63
58.92
62.66
64.93
65.23
63.46
59.84
54.70
48.28
40.66
31.93
22.33
12.38
2.88
-5.29
-11.34
-14.79
-15.51
-13.77
-10.13
-5.41
-0.55
3.56
6.21
7.06
6.19
4.03
1.20
-1.66
-4.08
-5.86
-7.13
-8.27
-9.84
-12.32
-15.98
-20.74
-26.22
-31.87
-37.17
-41.80
-45.66
-48.79
-51.28
-53.22
-54.71
-55.92
-57.14
-58.68
-60.81
-63.61
-66.83
-69.87
-71.95
-72.27
-70.34
-66.19
-60.47
-54.26
-48.69
-44.47
-41.52
-38.95
-35.33
-29.26
-20.04
-7.93
5.83
19.42
31.00
39.20
43.43
43.93
41.54
37.50
33.15
29.75
28.27
29.20
32.39
37.09
42.14
46.28
48.57
48.69
47.05
44.60
42.38
41.06
40.49
39.58
36.63
29.98
18.73
3.23
-14.93
-33.46
-50.11
-63.33
-72.53
-77.94
-80.19
-79.96
-77.85
-74.40
-70.23
-66.00
-62.28
-59.30
-56.85
-54.33
-51.02
-46.43
-40.48
-33.57
-26.41
-19.73
-14.03
-9.43
-5.74
-2.56
0.41
3.31
6.04
8.38
10.17
11.37
12.16
12.80
13.54
14.46
15.56
16.74
17.98
19.33
20.92
22.78
24.79
26.59
27.75
27.93
27.01
25.16
22.75
20.15
17.60
15.22
12.98
10.84
8.75
6.68
4.51
2.12
-0.61
-3.60
-6.54
-8.89
-10.12
-9.85
-8.11
-5.26
-1.95
1.22
3.85
5.83
7.26
8.28
8.95
9.20
8.99
8.33
7.44
6.62
6.12
6.00
6.10
6.15
5.98
5.59
5.18
4.97
5.04
5.27
5.35
5.01
4.15
2.86
1.41
0.06
-1.03
-1.89
-2.68
-3.56
-4.70
-6.15
-7.86
-9.75
-11.63
-13.26
-14.34
-14.53
-13.61
-11.56
-8.58
-5.08
-1.51
1.76
4.53
6.80
8.62
10.10
11.25
12.09
12.58
12.73
12.56
12.11
11.42
10.57
9.61
8.63
7.74
7.01
6.50
6.21
6.15
6.25
6.49
6.79
7.10
7.36
7.50
7.47
7.23
6.79
6.21
5.63
5.17
4.87
4.66
4.39
3.91
3.14
2.09
0.88
-0.45
-1.91
-3.59
-5.50
-7.50
-9.24
-10.27
-10.23
-8.96
-6.63
-3.59
-0.30
2.86
5.66
7.99
9.84
11.24
12.24
12.89
13.25
13.41
13.43
13.38
13.29
13.18
13.04
12.83
12.55
12.17
11.67
11.08
10.39
9.65
8.91
8.23
7.61
7.02
6.38
5.64
4.78
3.89
3.08
2.44
2.01
1.72
1.44
1.07
0.55
-0.07
-0.74
-1.36
-1.91
-2.45
-3.04
-3.77
-4.64
-5.64
-6.70
-7.79
-8.94
-10.18
-11.55
-13.01
-14.40
-15.48
-15.94
-15.55
-14.20
-11.94
-8.98
-5.64
-2.24
0.97
3.84
6.32
8.44
10.23
11.65
12.65
13.17
13.22
12.88
12.28
11.56
10.83
10.15
9.54
9.00
8.56
8.23
8.06
8.01
8.05
8.08
8.01
7.78
7.39
6.88
6.33
5.79
5.30
4.84
4.39
3.87
3.27
2.56
1.77
0.92
0.05
-0.82
-1.63
-2.35
-2.93
-3.31
-3.50
-3.55
-3.56
-3.67
-3.98
-4.56
-5.37
-6.30
-7.23
-8.02
-8.65
-9.17
-9.73
-10.50
-11.61
-13.02
-14.46
-15.52
-15.75
-14.86
-12.84
-10.00
-6.75
-3.54
-0.61
1.97
4.26
6.34
8.18
9.74
10.91
11.66
12.03
12.10
11.98
11.72
11.38
10.95
10.42
9.80
9.15
8.54
8.05
7.71
7.49
7.31
7.08
6.71
6.21
5.63
5.09
4.65
4.35
4.18
4.05
3.86
3.55
3.11
2.57
2.01
1.46
0.94
0.40
-0.23
-0.98
-1.85
-2.79
-3.71
-4.54
-5.25
-5.86
-6.45
-7.05
-7.69
-8.35
-9.01
-9.64
-10.23
-10.81
-11.43
-12.17
-13.08
-14.11
-15.12
-15.86
-16.04
-15.45
-14.00
-11.77
-9.01
-5.99
-3.02
-0.27
2.15
4.23
5.97
7.38
8.39
8.96
9.09
8.86
8.43
8.01
7.74
7.64
7.67
7.68
7.58
7.32
6.91
6.41
5.92
5.52
5.23
5.00
4.70
4.19
3.44
2.57
1.78
1.31
1.24
1.46
1.72
1.76
1.48
0.91
0.19
-0.56
-1.25
-1.93
-2.63
-3.33
-4.00
-4.61
-5.16
-5.67
-6.18
-6.68
-7.15
-7.53
-7.84
-8.17
-8.63
-9.35
-10.38
-11.64
-12.95
-14.03
-14.58
-14.38
-13.33
-11.49
-9.05
-6.28
-3.46
-0.81
1.55
3.57
5.24
6.57
7.55
8.17
8.46
8.49
8.37
8.22
8.07
7.93
7.76
7.53
7.25
6.95
6.67
6.42
6.21
6.03
5.88
5.74
5.59
5.38
5.05
4.59
4.03
3.47
3.00
2.69
2.50
2.36
2.18
1.86
1.37
0.70
-0.11
-0.98
-1.78
-2.44
-2.91
-3.22
-3.49
-3.81
-4.24
-4.79
-5.43
-6.13
-6.89
-7.70
-8.54
-9.39
-10.24
-11.12
-12.08
-13.09
-14.03
-14.66
-14.71
-13.96
-12.34
-9.98
-7.14
-4.15
-1.29
1.23
3.34
4.99
6.22
7.04
7.50
7.62
7.49
7.22
6.96
6.84
6.89
7.08
7.26
7.32
7.20
6.96
6.72
6.57
6.55
6.61
6.62
6.43
5.98
5.32
4.58
3.91
3.42
3.13
2.94
2.72
2.37
1.86
1.26
0.62
0.01
-0.55
-1.06
-1.51
-1.85
-2.07
-2.22
-2.40
-2.76
-3.40
-4.30
-5.33
-6.30
-7.01
-7.40
-7.54
-7.62
-7.83
-8.33
-9.18
-10.31
-11.58
-12.76
-13.58
-13.74
-13.02
-11.38
-8.96
-6.06
-3.04
-0.23
2.20
4.19
5.73
6.81
7.44
7.70
7.75
7.77
7.88
8.10
8.29
8.31
8.07
7.64
7.18
6.83
6.65
6.60
6.55
6.42
6.19
5.85
5.43
4.91
4.28
3.58
2.88
2.27
1.82
1.53
1.34
1.20
1.04
0.88
0.74
0.64
0.55
0.41
0.12
-0.34
-0.97
-1.74
-2.55
-3.36
-4.10
-4.75
-5.33
-5.91
-6.60
-7.48
-8.59
-9.79
-10.83
-11.38
-11.16
-10.06
-8.18
-5.76
-3.11
-0.55
1.70
3.46
4.58
4.97
4.60
3.55
2.03
0.33
-1.24
-2.43
-3.16
-3.44
-3.38
-3.17
-2.94
-2.75
-2.60
-2.40
-2.06
-1.50
-0.70
0.26
1.27
2.22
3.06
3.86
4.80
6.07
7.81
10.03
12.67
15.61
18.69
21.76
24.57
26.91
28.61
29.68
30.27
30.56
30.49
29.68
27.49
23.31
16.97
8.83
-0.26
-9.39
-17.95
-25.81
-33.17
-40.28
-47.05
-53.04
-57.62
-60.32
-61.06
-60.22
-58.37
-55.99
-53.27
-50.12
-46.38
-42.04
-37.29
-32.42
-27.65
-22.91
-17.93
-12.42
-6.28
0.33
7.03
13.37
19.02
23.76
27.55
30.45
32.62
34.23
35.46
36.31
36.59
36.02
34.40
31.88
29.06
26.87
26.19
27.35
29.95
32.94
35.02
35.16
32.98
28.78
23.28
17.32
11.45
5.86
0.43
-4.98
-10.40
-15.63
-20.27
-23.85
-25.91
-26.20
-24.80
-22.11
-18.89
-16.00
-14.16
-13.62
-14.09
-14.80
-14.81
-13.38
-10.21
-5.49
0.32
6.73
13.41
20.18
27.00
33.77
40.27
46.11
50.80
53.93
55.26
54.91
53.37
51.39
49.84
49.53
51.10
54.89
60.87
68.44
76.38
82.84
85.63
82.81
73.20
56.88
35.35
11.23
-12.28
-32.16
-46.33
-54.12
-56.36
-54.95
-52.14
-49.68
-48.46
-48.37
-48.79
-49.09
-48.99
-48.53
-47.97
-47.55
-47.36
-47.46
-47.80
-48.26
-48.60
-48.34
-46.94
-43.94
-39.18
-32.93
-25.85
-18.81
-12.67
-8.01
-5.01
-3.44
-2.75
-2.33
-1.73
-0.79
0.36
1.42
2.21
2.70
3.05
3.45
3.98
4.63
5.25
5.74
6.04
6.20
6.21
6.04
5.55
4.61
3.12
1.10
-1.33
-3.97
-6.57
-8.97
-11.08
-12.97
-14.73
-16.51
-18.33
-20.10
-21.60
-22.60
-22.99
-22.87
-22.52
-22.32
-22.59
-23.54
-25.17
-27.38
-30.00
-32.83
-35.69
-38.42
-40.90
-43.04
-44.87
-46.40
-47.66
-48.58
-48.98
-48.54
-46.90
-43.74
-38.81
-32.00
-23.40
-13.35
-2.48
8.41
18.40
26.75
33.02
37.15
39.36
40.04
39.63
38.48
36.96
35.37
33.95
32.88
32.16
31.64
31.06
30.19
28.88
27.15
25.16
23.10
21.14
19.35
17.71
16.14
14.58
13.01
11.41
9.74
7.87
5.64
2.93
-0.26
-3.74
-7.19
-10.25
-12.69
-14.48
-15.73
-16.57
-17.11
-17.35
-17.21
-16.69
-15.86
-14.88
-13.93
-13.08
-12.28
-11.36
-10.14
-8.41
-6.07
-3.06
0.58
4.77
9.33
14.02
18.50
22.43
25.56
27.78
29.10
29.65
29.62
29.19
28.44
27.40
26.00
24.18
21.91
19.27
16.43
13.60
10.96
8.60
6.49
4.48
2.38
0.05
-2.57
-5.36
-8.09
-10.52
-12.42
-13.69
-14.32
-14.35
-13.79
-12.58
-10.61
-7.84
-4.37
-0.50
3.33
6.63
9.06
10.47
10.94
10.73
10.14
9.46
8.89
8.55
8.44
8.48
8.52
8.31
7.61
6.23
4.18
1.69
-0.83
-2.87
-4.02
-4.06
-3.04
-1.23
0.97
3.18
5.17
6.80
8.06
9.00
9.71
10.26
10.76
11.25
11.68
11.96
11.91
11.39
10.38
9.05
7.68
6.63
6.17
6.39
7.18
8.27
9.29
9.94
10.00
9.38
8.13
6.41
4.46
2.61
1.24
0.71
1.22
2.78
5.21
8.28
11.81
15.76
20.20
25.11
30.24
35.06
38.86
40.99
41.08
39.07
35.25
30.06
24.06
17.75
11.63
6.08
1.35
-2.54
-5.86
-9.12
-12.87
-17.50
-22.99
-28.80
-34.10
-38.02
-40.05
-40.24
-39.10
-37.30
-35.31
-33.23
-30.82
-27.82
-24.22
-20.31
-16.63
-13.70
-11.81
-10.95
-10.91
-11.35
-11.96
-12.47
-12.69
-12.54
-12.00
-11.06
-9.73
-7.96
-5.78
-3.29
-0.76
1.55
3.43
4.88
6.11
7.41
8.95
10.67
12.28
13.41
13.74
13.17
11.78
9.79
7.47
5.03
2.69
0.65
-0.95
-2.00
-2.51
-2.61
-2.53
-2.54
-2.87
-3.62
-4.69
-5.82
-6.67
-6.98
-6.67
-5.95
-5.24
-4.95
-5.29
-6.15
-7.04
-7.34
-6.54
-4.44
-1.31
2.28
5.59
7.94
8.96
8.58
7.07
4.82
2.28
-0.18
-2.25
-3.66
-4.21
-3.73
-2.23
0.13
2.99
5.91
8.52
10.64
12.35
13.91
15.63
17.75
20.31
23.24
26.39
29.65
32.99
36.41
39.90
43.33
46.38
48.66
49.74
49.32
47.29
43.78
39.06
33.40
27.00
19.96
12.37
4.44
-3.45
-10.88
-17.49
-23.17
-28.06
-32.39
-36.30
-39.78
-42.69
-44.96
-46.68
-48.05
-49.17
-49.93
-49.99
-49.02
-46.93
-43.99
-40.80
-37.93
-35.77
-34.37
-33.58
-33.14
-32.78
-32.28
-31.42
-29.93
-27.64
-24.50
-20.70
-16.62
-12.69
-9.27
-6.56
-4.59
-3.23
-2.37
-1.90
-1.83
-2.21
-3.12
-4.60
-6.60
-8.89
-11.15
-12.98
-14.01
-13.91
-12.42
-9.34
-4.57
1.75
9.24
17.19
24.75
31.07
35.51
37.83
38.13
36.80
34.33
31.10
27.36
23.19
18.67
14.01
9.54
5.72
3.00
1.62
1.53
2.45
3.91
5.45
6.71
7.52
7.86
7.95
8.14
8.88
10.55
13.28
16.80
20.35
22.87
23.31
21.06
16.29
9.92
3.40
-1.78
-4.48
-4.26
-1.28
3.76
9.90
16.08
21.28
24.67
25.77
24.56
21.44
17.08
12.15
7.16
2.30
-2.36
-6.76
-10.78
-14.20
-16.87
-18.69
-19.69
-19.95
-19.57
-18.69
-17.51
-16.23
-15.07
-14.10
-13.27
-12.39
-11.32
-10.00
-8.52
-7.07
-5.77
-4.67
-3.76
-3.07
-2.85
-3.45
-5.23
-8.32
-12.47
-17.02
-21.05
-23.64
-24.12
-22.24
-18.28
-12.96
-7.18
-1.86
2.35
5.16
6.64
7.07
6.74
5.82
4.37
2.43
0.17
-2.10
-4.03
-5.39
-6.14
-6.48
-6.62
-6.69
-6.58
-6.05
-4.97
-3.44
-1.89
-0.85
-0.75
-1.60
-3.04
-4.48
-5.44
-5.67
-5.20
-4.14
-2.57
-0.49
2.01
4.61
6.66
7.39
6.26
3.21
-1.17
-5.76
-9.28
-10.68
-9.46
-5.82
-0.55
5.17
10.13
13.37
14.46
13.48
10.99
7.80
4.78
2.65
1.90
2.77
5.16
8.82
13.34
18.29
23.27
27.91
31.85
34.69
36.13
36.13
35.06
33.61
32.67
32.86
34.20
36.06
37.32
36.89
34.14
29.20
22.85
16.22
10.44
6.49
5.11
6.90
12.21
20.91
32.10
44.08
54.54
61.29
62.92
59.34
51.73
41.98
31.88
22.42
13.64
4.90
-4.53
-14.97
-26.17
-37.42
-47.82
-56.51
-62.74
-65.91
-65.72
-62.33
-56.43
-49.15
-41.70
-34.93
-29.07
-23.78
-18.48
-12.74
-6.54
-0.24
5.67
10.74
14.75
17.61
19.30
19.82
19.26
17.85
15.96
13.95
11.97
9.80
6.99
3.08
-2.02
-7.75
-13.00
-16.38
-16.66
-13.22
-6.29
3.07
13.21
22.26
28.59
31.20
29.92
25.39
18.90
12.02
6.25
2.69
1.80
3.39
6.75
10.92
15.05
18.69
21.90
25.00
28.25
31.44
33.75
33.98
31.03
24.46
14.69
3.03
-8.81
-19.17
-26.98
-32.02
-34.83
-36.47
-38.09
-40.56
-44.30
-49.19
-54.68
-59.93
-63.98
-65.99
-65.40
-62.22
-57.02
-50.80
-44.72
-39.69
-36.14
-33.98
-32.79
-32.06
-31.39
-30.58
-29.53
-28.21
-26.65
-24.92
-23.19
-21.68
-20.60
-20.05
-19.97
-20.13
-20.22
-19.98
-19.30
-18.32
-17.39
-16.84
-16.86
-17.38
-18.07
-18.51
-18.38
-17.58
-16.27
-14.76
-13.44
-12.62
-12.46
-12.94
-13.79
-14.62
-14.97
-14.48
-13.02
-10.72
-7.92
-4.97
-2.14
0.46
2.83
5.00
6.97
8.66
10.00
10.99
11.71
12.23
12.60
12.77
12.68
12.30
11.76
11.23
10.92
10.89
11.07
11.22
11.13
10.67
9.86
8.83
7.73
6.64
5.55
4.39
3.12
1.75
0.37
-0.97
-2.21
-3.42
-4.62
-5.79
-6.84
-7.64
-8.09
-8.27
-8.39
-8.69
-9.20
-9.62
-9.32
-7.55
-3.74
2.31
10.25
19.33
28.54
36.97
43.99
49.39
53.37
56.41
59.14
62.15
65.84
70.30
75.21
79.95
83.64
85.35
84.37
80.38
73.48
64.20
53.27
41.48
29.54
18.05
7.47
-1.86
-9.78
-16.28
-21.51
-25.68
-28.95
-31.39
-32.92
-33.46
-32.99
-31.70
-30.01
-28.49
-27.73
-28.12
-29.69
-32.02
-34.40
-36.06
-36.45
-35.47
-33.48
-31.12
-29.03
-27.63
-26.92
-26.66
-26.45
-25.98
-25.11
-23.86
-22.31
-20.56
-18.67
-16.73
-14.89
-13.34
-12.19
-11.35
-10.53
-9.37
-7.57
-5.06
-1.98
1.43
4.94
8.37
11.51
14.05
15.55
15.61
14.13
11.46
8.40
5.92
4.81
5.39
7.43
10.28
13.23
15.75
17.72
19.31
20.78
22.30
23.77
24.91
25.38
25.03
23.95
22.47
21.06
20.16
20.16
21.37
23.90
27.51
31.38
34.12
34.05
29.89
21.32
9.32
-4.09
-16.62
-26.45
-32.90
-36.32
-37.66
-37.89
-37.54
-36.74
-35.45
-33.77
-32.06
-30.77
-30.14
-30.02
-29.84
-28.91
-26.67
-23.03
-18.33
-13.12
-7.85
-2.63
2.72
8.43
14.34
19.76
23.65
25.05
23.56
19.62
14.33
9.06
4.89
2.33
1.31
1.46
2.36
3.69
5.23
6.78
8.09
8.94
9.24
9.13
8.89
8.89
9.40
10.51
12.16
14.17
16.42
18.91
21.73
25.01
28.77
32.79
36.61
39.54
40.83
39.81
36.07
29.59
20.82
10.63
0.18
-9.41
-17.30
-23.20
-27.32
-30.27
-32.68
-34.88
-36.76
-37.75
-37.04
-33.82
-27.64
-18.65
-7.66
4.00
14.79
23.42
29.20
32.14
32.81
32.07
30.74
29.40
28.33
27.52
26.64
25.13
22.36
17.76
11.14
2.78
-6.58
-15.88
-24.05
-30.19
-33.72
-34.49
-32.80
-29.31
-24.92
-20.53
-16.85
-14.16
-12.32
-11.01
-9.85
-8.66
-7.45
-6.36
-5.54
-5.05
-4.89
-5.01
-5.38
-6.00
-6.87
-7.98
-9.24
-10.56
-11.88
-13.14
-14.32
-15.35
-16.12
-16.41
-16.00
-14.70
-12.47
-9.48
-6.09
-2.76
0.11
2.33
3.89
4.96
5.74
6.33
6.75
6.92
6.81
6.47
6.07
5.82
5.90
6.42
7.37
8.68
10.19
11.78
13.25
14.47
15.28
15.58
15.29
14.40
12.92
10.87
8.29
5.25
1.84
-1.79
-5.47
-9.05
-12.47
-15.84
-19.37
-23.30
-27.76
-32.71
-37.91
-42.97
-47.39
-50.66
-52.24
-51.76
-49.18
-45.03
-40.28
-36.03
-33.05
-31.31
-30.04
-28.06
-24.35
-18.53
-10.95
-2.40
6.19
14.10
20.86
26.26
30.27
33.01
34.80
36.06
37.18
38.42
39.82
41.26
42.57
43.57
44.11
43.97
43.03
41.34
39.22
37.24
35.96
35.71
36.34
37.26
37.68
36.96
34.88
31.73
28.20
25.04
22.77
21.41
20.51
19.32
17.22
14.00
10.06
6.24
3.52
2.48
3.03
4.43
5.58
5.49
3.84
1.21
-0.94
-0.52
4.72
16.67
36.01
61.51
89.50
114.29
129.62
130.87
117.07
91.75
61.82
35.02
16.87
8.76
7.98
9.59
8.97
3.51
-6.99
-21.43
-38.63
-57.71
-77.61
-96.62
-112.49
-123.13
-127.53
-126.17
-120.55
-112.37
-102.88
-92.91
-83.11
-74.33
-67.39
-62.59
-59.38
-56.59
-53.18
-48.94
-44.56
-40.96
-38.48
-36.45
-33.71
-29.52
-24.25
-19.19
-15.95
-15.57
-17.89
-21.53
-24.57
-25.38
-23.29
-18.71
-12.87
-7.10
-2.33
1.24
3.92
6.21
8.42
10.54
12.38
13.80
14.90
16.04
17.68
20.13
23.40
27.12
30.69
33.47
35.03
35.22
34.21
32.36
30.13
27.92
26.06
24.67
23.64
22.58
20.86
17.77
12.81
5.90
-2.45
-11.34
-19.70
-26.73
-32.08
-35.87
-38.46
-40.19
-41.12
-41.10
-39.86
-37.24
-33.34
-28.49
-23.26
-18.23
-13.88
-10.49
-8.17
-6.86
-6.43
-6.72
-7.56
-8.72
-9.92
-10.85
-11.22
-10.88
-9.87
-8.41
-6.82
-5.40
-4.31
-3.53
-2.92
-2.31
-1.53
-0.55
0.56
1.63
2.44
2.85
2.79
2.31
1.57
0.72
-0.17
-1.15
-2.37
-4.02
-6.24
-8.98
-12.00
-14.86
-17.03
-18.03
-17.51
-15.39
-11.88
-7.44
-2.64
1.98
6.07
9.43
12.03
13.89
15.03
15.47
15.30
14.68
13.90
13.26
12.97
13.05
13.36
13.65
13.72
13.51
13.07
12.53
11.99
11.51
11.08
10.71
10.38
10.09
9.81
9.50
9.08
8.49
7.69
6.69
5.42
3.81
1.78
-0.66
-3.29
-5.71
-7.39
-7.88
-6.91
-4.51
-1.02
3.08
7.28
11.21
14.64
17.46
19.60
21.02
21.65
21.54
20.81
19.72
18.53
17.47
16.59
15.82
15.06
14.23
13.39
12.64
12.08
11.69
11.33
10.80
9.93
8.69
7.15
5.47
3.85
2.38
1.11
0.02
-0.97
-1.95
-3.04
-4.33
-5.81
-7.38
-8.77
-9.62
-9.57
-8.37
-5.97
-2.53
1.55
5.82
9.80
13.08
15.45
16.82
17.29
17.06
16.36
15.44
14.50
13.68
13.03
12.54
12.15
11.75
11.25
10.66
10.01
9.42
8.95
8.63
8.37
8.03
7.48
6.62
5.48
4.15
2.74
1.36
0.10
-1.06
-2.16
-3.29
-4.56
-6.03
-7.63
-9.16
-10.28
-10.61
-9.91
-8.12
-5.42
-2.18
1.22
4.42
7.19
9.38
10.90
11.67
11.67
11.00
9.85
8.44
7.04
5.80
4.83
4.14
3.69
3.41
3.20
2.93
2.52
1.95
1.25
0.52
-0.14
-0.69
-1.17
-1.68
-2.31
-3.12
-4.08
-5.13
-6.20
-7.27
-8.36
-9.46
-10.54
-11.43
-11.88
-11.61
-10.41
-8.28
-5.42
-2.21
0.97
3.81
6.15
7.96
9.24
9.94
10.00
9.40
8.24
6.79
5.41
4.38
3.80
3.56
3.44
3.20
2.74
2.10
1.40
0.76
0.23
-0.23
-0.73
-1.32
-2.01
-2.71
-3.32
-3.78
-4.14
-4.54
-5.19
-6.21
-7.60
-9.15
-10.54
-11.42
-11.54
-10.79
-9.20
-6.92
-4.15
-1.11
1.95
4.77
7.10
8.71
9.50
9.48
8.83
7.80
6.66
5.60
4.72
3.98
3.33
2.73
2.20
1.77
1.45
1.19
0.88
0.43
-0.18
-0.88
-1.55
-2.12
-2.58
-3.01
-3.55
-4.24
-5.10
-6.04
-6.98
-7.89
-8.76
-9.58
-10.25
-10.59
-10.36
-9.35
-7.50
-4.93
-1.93
1.14
3.94
6.22
7.88
8.87
9.19
8.83
7.86
6.44
4.83
3.33
2.18
1.49
1.21
1.18
1.25
1.31
1.29
1.16
0.88
0.41
-0.22
-0.91
-1.54
-1.99
-2.27
-2.48
-2.77
-3.25
-3.93
-4.78
-5.73
-6.71
-7.64
-8.40
-8.83
-8.73
-7.90
-6.31
-4.03
-1.33
1.44
3.91
5.79
6.98
7.51
7.53
7.22
6.68
5.97
5.08
4.03
2.89
1.83
0.99
0.46
0.23
0.20
0.26
0.35
0.42
0.44
0.36
0.14
-0.27
-0.89
-1.69
-2.60
-3.52
-4.34
-4.99
-5.49
-5.91
-6.36
-6.95
-7.67
-8.35
-8.73
-8.54
-7.63
-6.06
-4.02
-1.82
0.32
2.21
3.73
4.78
5.26
5.14
4.48
3.45
2.24
1.00
-0.19
-1.28
-2.23
-2.94
-3.29
-3.25
-2.90
-2.43
-2.07
-1.99
-2.19
-2.59
-3.04
-3.45
-3.80
-4.14
-4.57
-5.15
-5.95
-7.00
-8.22
-9.48
-10.54
-11.14
-11.07
-10.29
-8.90
-7.12
-5.20
-3.35
-1.69
-0.27
0.90
1.82
2.49
2.88
2.95
2.62
1.86
0.74
-0.41
-0.99
-0.27
2.35
7.06
13.46
20.66
27.56
33.21
37.16
39.49
40.70
41.47
42.34
43.53
44.97
46.33
47.19
47.17
46.05
43.85
40.84
37.55
34.70
33.05
33.21
35.34
39.01
43.18
46.54
48.00
47.13
44.43
41.04
38.25
36.95
37.26
38.55
39.87
40.33
39.56
37.81
35.77
34.35
34.45
36.77
41.65
48.91
57.62
66.11
72.16
73.55
68.78
57.60
41.20
21.83
2.02
-16.11
-31.35
-43.38
-52.34
-58.44
-61.83
-62.64
-61.36
-58.90
-56.50
-55.27
-55.76
-57.71
-60.24
-62.27
-63.00
-62.17
-59.99
-56.91
-53.27
-49.27
-45.01
-40.60
-36.29
-32.26
-28.43
-24.43
-19.66
-13.63
-6.32
1.75
9.55
15.88
19.73
20.51
18.13
12.96
5.80
-2.32
-10.28
-17.16
-22.47
-26.32
-29.38
-32.58
-36.66
-41.79
-47.48
-52.69
-56.34
-57.76
-56.85
-54.14
-50.43
-46.55
-43.03
-40.08
-37.59
-35.26
-32.66
-29.31
-24.78
-18.78
-11.29
-2.64
6.45
15.05
22.17
26.97
28.96
28.07
24.65
19.31
12.79
5.76
-1.22
-7.69
-13.22
-17.38
-19.91
-20.79
-20.43
-19.61
-19.19
-19.84
-21.72
-24.47
-27.36
-29.60
-30.64
-30.24
-28.52
-25.77
-22.44
-19.05
-16.17
-14.40
-14.15
-15.53
-18.21
-21.47
-24.38
-26.06
-25.88
-23.66
-19.68
-14.65
-9.49
-5.13
-2.29
-1.25
-1.91
-3.82
-6.44
-9.28
-12.03
-14.59
-16.99
-19.33
-21.72
-24.14
-26.45
-28.37
-29.53
-29.64
-28.64
-26.84
-24.79
-23.07
-22.04
-21.70
-21.74
-21.78
-21.54
-20.98
-20.12
-19.03
-17.66
-15.94
-13.90
-11.79
-10.12
-9.49
-10.40
-13.03
-17.11
-21.96
-26.64
-30.17
-31.83
-31.31
-28.84
-25.02
-20.66
-16.51
-13.11
-10.73
-9.36
-8.78
-8.58
-8.19
-7.02
-4.63
-0.86
4.07
9.64
15.16
20.02
23.80
26.34
27.69
28.02
27.59
26.67
25.47
24.15
22.86
21.75
21.06
21.01
21.72
23.04
24.54
25.65
25.81
24.68
22.17
18.49
14.11
9.76
6.38
4.84
5.60
8.37
12.03
15.08
16.23
15.08
12.29
9.26
7.41
7.48
9.31
12.06
14.76
16.73
17.82
18.22
18.21
17.94
17.42
16.59
15.53
14.47
13.75
13.66
14.32
15.58
17.03
18.18
18.63
18.26
17.20
15.84
14.56
13.64
13.11
12.82
12.51
11.96
11.07
9.85
8.36
6.71
4.99
3.32
1.93
1.09
1.12
2.28
4.61
7.92
11.76
15.58
18.84
21.17
22.42
22.66
22.12
21.09
19.88
18.71
17.78
17.15
16.79
16.58
16.34
15.93
15.26
14.36
13.29
12.20
11.20
10.34
9.55
8.66
7.38
5.45
2.70
-0.76
-4.64
-8.58
-12.24
-15.45
-18.19
-20.34
-21.65
-21.63
-19.68
-15.39
-8.67
0.12
10.27
20.83
30.77
38.99
44.49
46.56
45.02
40.48
34.21
27.84
22.81
19.86
18.89
19.13
19.52
19.19
17.70
15.04
11.54
7.69
4.01
0.95
-1.18
-2.28
-2.51
-2.22
-1.87
-1.84
-2.39
-3.53
-5.13
-6.88
-8.51
-9.82
-10.80
-11.54
-12.21
-12.90
-13.49
-13.76
-13.44
-12.37
-10.60
-8.41
-6.13
-4.12
-2.59
-1.66
-1.35
-1.54
-2.05
-2.64
-3.05
-3.09
-2.68
-1.86
-0.78
0.38
1.46
2.34
2.92
3.19
3.20
3.11
3.14
3.51
4.27
5.34
6.44
7.24
7.47
7.10
6.25
5.16
4.05
3.00
1.92
0.63
-1.03
-3.14
-5.66
-8.45
-11.29
-13.89
-15.94
-17.12
-17.16
-16.01
-13.83
-11.05
-8.20
-5.74
-3.94
-2.79
-2.10
-1.64
-1.24
-0.86
-0.48
-0.09
0.40
1.09
2.02
3.10
4.14
4.97
5.51
5.79
5.94
6.05
6.17
6.25
6.25
6.18
6.13
6.22
6.56
7.14
7.91
8.81
9.86
11.11
12.62
14.39
16.27
18.06
19.60
20.85
21.81
22.52
22.96
23.02
22.60
21.69
20.40
18.93
17.46
16.05
14.64
13.09
11.28
9.10
6.43
3.18
-0.71
-5.17
-9.94
-14.58
-18.62
-21.68
-23.58
-24.37
-24.19
-23.27
-21.82
-20.07
-18.25
-16.64
-15.43
-14.72
-14.43
-14.37
-14.28
-13.97
-13.38
-12.57
-11.71
-10.96
-10.42
-10.06
-9.77
-9.40
-8.84
-8.02
-6.96
-5.73
-4.45
-3.32
-2.56
-2.37
-2.83
-3.78
-4.82
-5.43
-5.11
-3.66
-1.22
1.75
4.72
7.22
9.02
10.15
10.78
11.15
11.41
11.65
11.94
12.31
12.87
13.70
14.83
16.17
17.51
18.56
19.07
18.96
18.35
17.50
16.72
16.20
15.99
15.99
16.08
16.15
16.15
16.04
15.69
14.96
13.71
11.94
9.80
7.55
5.40
3.43
1.52
-0.59
-3.12
-6.14
-9.50
-12.88
-15.91
-18.28
-19.83
-20.54
-20.54
-20.03
-19.26
-18.42
-17.60
-16.85
-16.12
-15.40
-14.69
-14.06
-13.55
-13.15
-12.78
-12.32
-11.69
-10.91
-10.05
-9.23
-8.50
-7.86
-7.24
-6.55
-5.72
-4.76
-3.71
-2.68
-1.77
-1.06
-0.60
-0.37
-0.30
-0.23
-0.01
0.46
1.17
1.98
2.73
3.29
3.59
3.70
3.72
3.76
3.91
4.15
4.49
4.94
5.56
6.40
7.44
8.57
9.56
10.20
10.31
9.87
8.98
7.80
6.49
5.14
3.84
2.67
1.76
1.25
1.17
1.45
1.85
2.12
2.04
1.54
0.72
-0.22
-1.07
-1.67
-1.95
-1.95
-1.76
-1.52
-1.34
-1.36
-1.66
-2.28
-3.19
-4.30
-5.48
-6.55
-7.35
-7.76
-7.74
-7.34
-6.67
-5.88
-5.12
-4.48
-4.03
-3.79
-3.73
-3.79
-3.88
-3.90
-3.72
-3.24
-2.38
-1.12
0.46
2.24
4.01
5.57
6.72
7.32
7.31
6.71
5.62
4.24
2.79
1.56
0.75
0.45
0.60
0.98
1.29
1.35
1.08
0.55
-0.05
-0.58
-0.94
-1.12
-1.18
-1.21
-1.28
-1.43
-1.73
-2.17
-2.71
-3.25
-3.71
-4.01
-4.15
-4.19
-4.20
-4.26
-4.39
-4.64
-4.99
-5.40
-5.78
-5.98
-5.82
-5.18
-4.04
-2.50
-0.80
0.79
2.04
2.86
3.29
3.43
3.43
3.39
3.33
3.24
3.12
3.02
3.01
3.15
3.43
3.74
3.92
3.83
3.44
2.84
2.22
1.71
1.41
1.27
1.20
1.10
0.92
0.65
0.31
-0.06
-0.43
-0.77
-1.06
-1.28
-1.45
-1.61
-1.79
-2.05
-2.38
-2.75
-3.10
-3.35
-3.44
-3.38
-3.18
-2.94
-2.78
-2.79
-3.03
-3.48
-4.04
-4.50
-4.66
-4.36
-3.54
-2.30
-0.82
0.65
1.90
2.78
3.27
3.37
3.17
2.79
2.34
1.96
1.75
1.77
1.96
2.23
2.44
2.51
2.41
2.20
1.95
1.70
1.47
1.27
1.10
0.97
0.88
0.81
0.75
0.64
0.44
0.17
-0.14
-0.46
-0.70
-0.86
-0.93
-0.98
-1.05
-1.20
-1.41
-1.65
-1.90
-2.14
-2.41
-2.72
-3.07
-3.40
-3.67
-3.83
-3.93
-4.01
-4.13
-4.23
-4.20
-3.89
-3.22
-2.23
-1.06
0.14
1.22
2.11
2.77
3.16
3.24
3.00
2.51
1.94
1.50
1.36
1.59
2.10
2.69
3.18
3.39
3.31
2.97
2.45
1.85
1.23
0.65
0.15
-0.20
-0.38
-0.38
-0.26
-0.11
-0.01
-0.05
-0.23
-0.50
-0.80
-1.06
-1.27
-1.43
-1.55
-1.62
-1.64
-1.65
-1.72
-1.93
-2.28
-2.71
-3.07
-3.24
-3.16
-2.88
-2.48
-2.05
-1.61
-1.11
-0.53
0.10
0.68
1.13
1.40
1.53
1.59
1.64
1.70
1.74
1.73
1.65
1.54
1.42
1.31
1.21
1.05
0.79
0.44
0.06
-0.26
-0.40
-0.31
0.04
0.60
1.22
1.72
1.91
1.67
1.00
0.02
-0.99
-1.76
-2.12
-2.03
-1.65
-1.22
-0.95
-0.98
-1.24
-1.63
-1.99
-2.22
-2.33
-2.39
-2.50
-2.73
-3.05
-3.44
-3.80
-4.04
-4.04
-3.72
-3.02
-2.01
-0.82
0.33
1.19
1.63
1.65
1.36
0.99
0.69
0.54
0.47
0.39
0.21
-0.05
-0.26
-0.30
-0.11
0.27
0.70
1.06
1.25
1.28
1.21
1.12
1.04
0.96
0.85
0.71
0.54
0.38
0.26
0.22
0.25
0.35
0.49
0.64
0.76
0.81
0.75
0.59
0.35
0.05
-0.27
-0.61
-0.96
-1.30
-1.58
-1.81
-2.02
-2.28
-2.62
-3.04
-3.43
-3.63
-3.52
-3.08
-2.42
-1.68
-1.00
-0.43
0.07
0.58
1.11
1.60
1.93
1.98
1.69
1.14
0.49
-0.06
-0.33
-0.25
0.15
0.73
1.29
1.66
1.75
1.54
1.16
0.76
0.48
0.37
0.43
0.58
0.74
0.90
1.03
1.14
1.17
1.06
0.68
-0.01
-0.96
-1.99
-2.90
-3.51
-3.76
-3.69
-3.44
-3.18
-3.04
-3.04
-3.14
-3.24
-3.22
-3.01
-2.59
-2.01
-1.37
-0.78
-0.32
-0.05
0.08
0.11
0.15
0.26
0.49
0.83
1.23
1.65
2.03
2.31
2.45
2.42
2.24
1.95
1.63
1.34
1.12
0.96
0.81
0.60
0.31
-0.02
-0.32
-0.52
-0.61
-0.64
-0.68
-0.74
-0.80
-0.79
-0.67
-0.52
-0.45
-0.55
-0.83
-1.20
-1.54
-1.73
-1.72
-1.57
-1.32
-1.00
-0.63
-0.21
0.17
0.44
0.54
0.46
0.26
0.05
-0.14
-0.31
-0.47
-0.60
-0.62
-0.44
-0.04
0.49
1.03
1.42
1.59
1.59
1.54
1.57
1.71
1.94
2.16
2.25
2.14
1.84
1.38
0.84
0.30
-0.16
-0.50
-0.69
-0.74
-0.72
-0.70
-0.76
-0.95
-1.25
-1.60
-1.86
-1.93
-1.73
-1.31
-0.78
-0.31
-0.04
-0.05
-0.28
-0.62
-0.98
-1.30
-1.59
-1.86
-2.09
-2.21
-2.15
-1.85
-1.35
-0.76
-0.21
0.22
0.50
0.65
0.69
0.64
0.48
0.25
-0.01
-0.23
-0.33
-0.30
-0.17
-0.01
0.10
0.13
0.08
0.01
-0.02
0.06
0.26
0.53
0.79
0.95
0.96
0.81
0.59
0.41
0.36
0.54
0.95
1.55
2.26
2.99
3.67
4.26
4.71
4.99
5.04
4.82
4.30
3.54
2.69
1.92
1.38
1.14
1.09
1.06
0.84
0.33
-0.44
-1.33
-2.09
-2.56
-2.62
-2.33
-1.84
-1.38
-1.16
-1.26
-1.65
-2.13
-2.50
-2.62
-2.45
-2.09
-1.67
-1.28
-0.93
-0.58
-0.20
0.21
0.61
0.92
1.13
1.25
1.32
1.35
1.35
1.35
1.39
1.50
1.69
1.95
2.24
2.54
2.85
3.20
3.57
3.90
4.09
4.03
3.70
3.13
2.41
1.66
0.99
0.50
0.23
0.23
0.48
0.95
1.55
2.13
2.54
2.67
2.44
1.86
1.06
0.25
-0.39
-0.71
-0.72
-0.58
-0.48
-0.61
-1.00
-1.56
-2.13
-2.55
-2.75
-2.76
-2.69
-2.63
-2.62
-2.64
-2.64
-2.59
-2.52
-2.48
-2.57
-2.85
-3.35
-4.01
-4.77
-5.52
-6.13
-6.49
-6.52
-6.18
-5.50
-4.57
-3.51
-2.50
-1.66
-1.09
-0.81
-0.74
-0.77
-0.79
-0.76
-0.71
-0.72
-0.88
-1.19
-1.56
-1.86
-1.96
-1.82
-1.50
-1.16
-1.00
-1.12
-1.52
-2.05
-2.46
-2.54
-2.23
-1.62
-0.97
-0.58
-0.58
-0.91
-1.31
-1.48
-1.25
-0.61
0.20
0.92
1.35
1.45
1.31
1.04
0.71
0.34
-0.08
-0.45
-0.66
-0.56
-0.15
0.44
1.00
1.33
1.37
1.22
1.04
0.94
0.92
0.87
0.61
0.06
-0.76
-1.73
-2.70
-3.51
-4.07
-4.29
-4.13
-3.61
-2.84
-1.98
-1.26
-0.87
-0.93
-1.39
-2.06
-2.65
-2.86
-2.48
-1.49
-0.01
1.74
3.54
5.26
6.86
8.34
9.63
10.56
10.88
10.41
9.11
7.18
4.99
3.01
1.63
1.06
1.26
1.99
2.87
3.59
3.96
3.97
3.76
3.54
3.42
3.43
3.49
3.47
3.25
2.76
1.95
0.76
-0.86
-2.90
-5.24
-7.63
-9.73
-11.23
-11.93
-11.79
-10.97
-9.72
-8.35
-7.11
-6.17
-5.57
-5.25
-5.12
-5.07
-5.03
-4.95
-4.82
-4.65
-4.44
-4.18
-3.82
-3.33
-2.64
-1.75
-0.74
0.25
1.06
1.54
1.64
1.42
0.96
0.36
-0.30
-0.95
-1.50
-1.86
-1.98
-1.89
-1.73
-1.64
-1.74
-2.01
-2.31
-2.49
-2.45
-2.16
-1.69
-1.06
-0.30
0.61
1.64
2.68
3.54
4.06
4.18
3.99
3.66
3.37
3.17
3.04
2.89
2.68
2.44
2.26
2.21
2.25
2.27
2.11
1.72
1.18
0.68
0.44
0.54
0.92
1.37
1.64
1.56
1.11
0.46
-0.19
-0.61
-0.71
-0.55
-0.26
-0.01
0.12
0.07
-0.12
-0.38
-0.66
-0.88
-0.98
-0.91
-0.61
-0.07
0.65
1.47
2.26
2.94
3.43
3.74
3.87
3.82
3.59
3.21
2.72
2.22
1.84
1.68
1.76
2.01
2.29
2.42
2.30
1.96
1.48
1.01
0.63
0.33
0.05
-0.28
-0.66
-1.03
-1.30
-1.41
-1.39
-1.33
-1.33
-1.48
-1.74
-2.01
-2.21
-2.27
-2.22
-2.12
-2.04
-1.98
-1.91
-1.75
-1.42
-0.89
-0.18
0.64
1.48
2.25
2.88
3.32
3.56
3.62
3.52
3.27
2.88
2.34
1.71
1.11
0.63
0.38
0.34
0.47
0.65
0.75
0.68
0.44
0.07
-0.32
-0.59
-0.64
-0.44
-0.08
0.31
0.56
0.59
0.39
0.06
-0.30
-0.60
-0.81
-0.94
-0.98
-0.96
-0.93
-0.96
-1.13
-1.45
-1.87
-2.28
-2.52
-2.50
-2.19
-1.63
-0.93
-0.19
0.49
1.04
1.43
1.69
1.85
1.99
2.12
2.23
2.25
2.13
1.87
1.56
1.29
1.16
1.22
1.38
1.55
1.62
1.58
1.50
1.51
1.71
2.08
2.46
2.68
2.58
2.18
1.58
0.97
0.48
0.15
-0.09
-0.34
-0.65
-1.03
-1.41
-1.71
-1.86
-1.85
-1.72
-1.55
-1.42
-1.38
-1.45
-1.60
-1.80
-2.00
-2.15
-2.18
-2.04
-1.66
-1.05
-0.29
0.47
1.07
1.41
1.51
1.47
1.46
1.57
1.80
2.04
2.16
2.08
1.86
1.60
1.43
1.43
1.58
1.78
1.89
1.83
1.53
1.03
0.41
-0.21
-0.70
-1.02
-1.19
-1.26
-1.27
-1.23
-1.11
-0.88
-0.61
-0.40
-0.37
-0.59
-1.01
-1.49
-1.95
-2.33
-2.67
-3.05
-3.47
-3.90
-4.22
-4.37
-4.33
-4.16
-3.92
-3.69
-3.45
-3.18
-2.82
-2.35
-1.78
-1.19
-0.70
-0.41
-0.41
-0.71
-1.21
-1.79
-2.28
-2.65
-2.92
-3.20
-3.57
-4.06
-4.61
-5.16
-5.65
-6.12
-6.63
-7.23
-7.89
-8.50
-8.93
-9.13
-9.13
-9.03
-8.98
-9.07
-9.32
-9.69
-10.11
-10.48
-10.68
-10.59
-10.09
-9.03
-7.35
-4.99
-1.94
1.80
6.31
11.68
18.06
25.56
34.25
44.04
54.60
65.34
75.43
83.89
89.77
92.36
91.43
87.22
80.39
71.80
62.29
52.50
42.79
33.38
24.40
16.06
8.63
2.44
-2.25
-5.31
-6.79
-6.81
-5.59
-3.38
-0.55
2.38
4.82
6.15
6.04
4.52
2.08
-0.46
-2.23
-2.61
-1.39
1.23
4.75
8.63
12.42
15.86
18.81
21.20
22.96
24.10
24.82
25.63
27.31
30.58
35.66
41.77
47.18
49.55
46.89
38.35
24.72
8.20
-8.45
-22.91
-33.96
-41.55
-46.36
-49.22
-50.80
-51.67
-52.51
-54.10
-57.05
-61.28
-65.73
-68.60
-68.08
-63.17
-54.25
-42.90
-31.24
-21.14
-13.62
-8.69
-5.69
-3.60
-1.45
1.53
5.74
11.12
17.08
22.47
25.72
25.26
20.02
9.95
-3.70
-18.60
-31.98
-41.45
-45.80
-45.33
-41.60
-36.72
-32.59
-30.28
-29.86
-30.62
-31.50
-31.57
-30.34
-27.83
-24.57
-21.35
-18.87
-17.37
-16.46
-15.14
-12.21
-6.82
0.94
9.66
16.91
19.85
16.36
5.88
-10.18
-28.88
-46.63
-60.22
-67.75
-68.80
-64.32
-56.11
-46.20
-36.36
-27.73
-20.75
-15.30
-10.96
-7.31
-4.13
-1.23
1.77
5.58
11.06
18.77
28.54
39.26
49.03
55.62
57.09
52.17
40.68
23.61
3.01
-18.24
-36.87
-49.82
-54.88
-51.34
-40.34
-24.92
-9.37
1.92
5.82
1.57
-8.89
-21.67
-32.42
-37.87
-36.85
-30.26
-20.32
-9.59
-0.18
6.53
9.85
9.57
5.78
-1.25
-11.01
-22.54
-34.17
-43.54
-48.11
-46.01
-36.92
-22.29
-4.64
13.64
31.51
49.38
68.10
87.24
104.12
114.34
113.94
101.73
80.36
55.32
32.36
14.91
3.04
-5.68
-13.93
-22.85
-31.39
-37.31
-38.91
-36.20
-30.90
-25.46
-21.74
-20.30
-20.42
-20.91
-20.74
-19.60
-17.78
-15.95
-14.68
-14.16
-14.15
-14.13
-13.59
-12.31
-10.51
-8.69
-7.38
-6.79
-6.70
-6.55
-5.78
-4.10
-1.68
0.92
3.07
4.30
4.51
3.95
3.03
2.09
1.33
0.79
0.47
0.35
0.51
0.97
1.69
2.51
3.15
3.39
3.10
2.35
1.41
0.56
0.04
-0.03
0.29
0.83
1.39
1.77
1.84
1.53
0.88
-0.05
-1.11
-2.10
-2.83
-3.10
-2.77
-1.78
-0.15
1.95
4.31
6.70
8.93
10.89
12.61
14.16
15.61
16.95
18.12
19.01
19.57
19.82
19.88
19.93
20.13
20.60
21.39
22.49
23.84
25.26
26.48
27.14
26.90
25.57
23.13
19.86
16.12
12.36
8.94
6.10
3.93
2.39
1.35
0.63
-0.03
-0.85
-2.03
-3.62
-5.62
-7.91
-10.41
-13.06
-15.82
-18.64
-21.41
-23.98
-26.20
-27.93
-29.05
-29.42
-28.86
-27.24
-24.49
-20.74
-16.27
-11.47
-6.75
-2.39
1.40
4.54
6.92
8.46
9.10
8.94
8.22
7.28
6.48
6.05
6.05
6.39
6.93
7.49
7.95
8.20
8.09
7.52
6.37
4.71
2.73
0.78
-0.77
-1.61
-1.65
-1.03
-0.01
1.02
1.78
2.09
1.91
1.38
0.68
-0.00
-0.55
-0.95
-1.30
-1.71
-2.30
-3.07
-3.96
-4.88
-5.73
-6.43
-6.88
-7.01
-6.73
-5.99
-4.81
-3.29
-1.62
0.00
1.37
2.39
3.00
3.23
3.13
2.79
2.32
1.81
1.39
1.19
1.30
1.74
2.47
3.34
4.18
4.82
5.20
5.33
5.29
5.12
4.83
4.39
3.74
2.91
1.99
1.15
0.53
0.17
0.04
-0.01
-0.14
-0.45
-1.01
-1.77
-2.64
-3.51
-4.29
-4.88
-5.24
-5.35
-5.19
-4.75
-4.01
-3.01
-1.78
-0.43
0.91
2.17
3.24
4.10
4.68
4.93
4.82
4.39
3.76
3.13
2.71
2.60
2.77
3.09
3.39
3.53
3.43
3.14
2.70
2.20
1.73
1.36
1.12
0.98
0.90
0.76
0.52
0.14
-0.37
-0.95
-1.55
-2.12
-2.63
-3.04
-3.34
-3.56
-3.77
-4.08
-4.58
-5.26
-6.03
-6.68
-6.99
-6.82
-6.11
-4.98
-3.61
-2.20
-0.90
0.20
1.09
1.72
2.08
2.15
1.91
1.44
0.87
0.38
0.11
0.20
0.67
1.44
2.35
3.22
3.84
4.11
3.99
3.57
2.96
2.32
1.78
1.40
1.21
1.15
1.15
1.13
1.03
0.83
0.57
0.29
0.01
-0.27
-0.59
-1.02
-1.58
-2.25
-2.94
-3.55
-3.93
-3.97
-3.61
-2.87
-1.87
-0.77
0.30
1.22
1.98
2.62
3.15
3.55
3.77
3.76
3.52
3.13
2.71
2.38
2.20
2.13
2.09
2.00
1.84
1.65
1.50
1.45
1.50
1.57
1.55
1.37
1.02
0.58
0.13
-0.22
-0.43
-0.50
-0.46
-0.40
-0.42
-0.64
-1.12
-1.81
-2.62
-3.39
-3.96
-4.29
-4.34
-4.12
-3.65
-2.88
-1.83
-0.53
0.88
2.22
3.30
3.96
4.19
4.04
3.63
3.12
2.63
2.23
1.93
1.72
1.60
1.60
1.76
2.06
2.43
2.75
2.90
2.82
2.57
2.25
1.97
1.77
1.61
1.40
1.09
0.69
0.27
-0.08
-0.32
-0.48
-0.61
-0.74
-0.89
-1.06
-1.24
-1.48
-1.77
-2.14
-2.50
-2.74
-2.74
-2.42
-1.80
-0.97
-0.04
0.88
1.74
2.52
3.20
3.72
4.02
4.04
3.77
3.27
2.67
2.16
1.85
1.79
1.95
2.25
2.56
2.80
2.89
2.81
2.56
2.19
1.76
1.32
0.92
0.54
0.17
-0.17
-0.45
-0.64
-0.74
-0.81
-0.94
-1.24
-1.72
-2.35
-3.02
-3.63
-4.07
-4.30
-4.30
-4.04
-3.53
-2.79
-1.88
-0.90
0.06
0.92
1.63
2.18
2.53
2.69
2.64
2.40
2.04
1.67
1.42
1.35
1.47
1.74
2.05
2.33
2.57
2.76
2.92
3.03
3.07
2.97
2.73
2.33
1.82
1.27
0.74
0.29
-0.05
-0.27
-0.42
-0.52
-0.62
-0.76
-0.97
-1.24
-1.57
-1.94
-2.31
-2.57
-2.63
-2.38
-1.78
-0.89
0.16
1.17
1.99
2.53
2.79
2.86
2.85
2.83
2.81
2.77
2.73
2.71
2.77
2.95
3.23
3.53
3.73
3.75
3.57
3.22
2.81
2.42
2.13
1.96
1.88
1.84
1.81
1.75
1.66
1.55
1.46
1.36
1.23
1.03
0.74
0.37
-0.02
-0.37
-0.68
-1.00
-1.40
-1.87
-2.33
-2.62
-2.56
-2.05
-1.14
-0.00
1.09
1.89
2.26
2.21
1.89
1.52
1.27
1.21
1.28
1.38
1.42
1.40
1.35
1.35
1.41
1.47
1.47
1.38
1.24
1.18
1.29
1.58
1.94
2.18
2.14
1.75
1.11
0.41
-0.17
-0.51
-0.58
-0.49
-0.36
-0.30
-0.38
-0.60
-0.93
-1.32
-1.75
-2.17
-2.50
-2.63
-2.46
-1.91
-0.98
0.17
1.34
2.30
2.90
3.09
2.95
2.61
2.20
1.85
1.62
1.57
1.66
1.85
2.04
2.14
2.10
1.97
1.81
1.72
1.71
1.75
1.77
1.71
1.57
1.40
1.23
1.09
0.98
0.88
0.76
0.58
0.35
0.13
-0.02
-0.06
-0.00
0.06
0.00
-0.27
-0.77
-1.43
-2.12
-2.71
-3.12
-3.34
-3.35
-3.14
-2.67
-1.95
-1.07
-0.17
0.56
1.00
1.14
1.06
0.91
0.80
0.76
0.78
0.81
0.82
0.84
0.97
1.25
1.65
2.08
2.39
2.48
2.36
2.10
1.82
1.58
1.39
1.24
1.08
0.94
0.84
0.83
0.90
1.00
1.03
0.95
0.74
0.46
0.18
-0.00
-0.06
-0.00
0.08
0.06
-0.16
-0.59
-1.17
-1.74
-2.11
-2.13
-1.77
-1.10
-0.24
0.63
1.38
1.91
2.17
2.16
1.95
1.65
1.38
1.24
1.25
1.37
1.51
1.57
1.49
1.29
1.01
0.73
0.51
0.40
0.42
0.58
0.81
1.06
1.25
1.32
1.29
1.20
1.08
0.95
0.77
0.50
0.12
-0.31
-0.73
-1.04
-1.21
-1.23
-1.14
-1.01
-0.94
-1.02
-1.34
-1.90
-2.59
-3.22
-3.57
-3.49
-2.96
-2.16
-1.32
-0.65
-0.25
-0.12
-0.15
-0.26
-0.35
-0.42
-0.44
-0.43
-0.35
-0.18
0.12
0.54
1.00
1.42
1.68
1.71
1.55
1.28
1.02
0.87
0.82
0.84
0.87
0.87
0.86
0.82
0.74
0.56
0.24
-0.20
-0.69
-1.13
-1.47
-1.68
-1.80
-1.86
-1.88
-1.87
-1.80
-1.69
-1.56
-1.43
-1.28
-1.07
-0.77
-0.38
0.05
0.47
0.81
1.06
1.24
1.37
1.47
1.53
1.54
1.50
1.40
1.27
1.14
1.05
1.02
1.09
1.26
1.50
1.71
1.78
1.64
1.27
0.80
0.36
0.12
0.14
0.38
0.72
1.04
1.25
1.33
1.31
1.20
0.98
0.65
0.20
-0.31
-0.82
-1.22
-1.48
-1.62
-1.73
-1.89
-2.11
-2.34
-2.47
-2.41
-2.10
-1.61
-1.00
-0.38
0.16
0.57
0.83
0.92
0.86
0.68
0.48
0.33
0.27
0.26
0.24
0.18
0.09
0.07
0.21
0.54
0.95
1.30
1.46
1.43
1.29
1.19
1.21
1.31
1.37
1.27
0.96
0.50
0.01
-0.40
-0.68
-0.86
-0.98
-1.09
-1.20
-1.28
-1.29
-1.22
-1.08
-0.90
-0.72
-0.57
-0.53
-0.64
-0.91
-1.27
-1.59
-1.74
-1.57
-1.07
-0.31
0.52
1.23
1.66
1.75
1.58
1.26
0.93
0.68
0.55
0.53
0.62
0.77
0.96
1.14
1.28
1.33
1.27
1.12
0.88
0.59
0.28
-0.01
-0.26
-0.45
-0.60
-0.74
-0.88
-1.01
-1.06
-0.98
-0.75
-0.45
-0.20
-0.14
-0.31
-0.66
-1.08
-1.47
-1.76
-1.96
-2.11
-2.23
-2.32
-2.34
-2.24
-1.96
-1.50
-0.89
-0.22
0.41
0.88
1.12
1.14
0.99
0.78
0.62
0.57
0.68
0.92
1.24
1.58
1.90
2.14
2.26
2.23
2.00
1.59
1.00
0.31
-0.39
-0.96
-1.30
-1.41
-1.32
-1.18
-1.10
-1.19
-1.45
-1.80
-2.10
-2.28
-2.31
-2.28
-2.28
-2.38
-2.58
-2.80
-2.95
-2.98
-2.87
-2.64
-2.30
-1.83
-1.23
-0.58
0.02
0.45
0.65
0.66
0.60
0.57
0.62
0.69
0.66
0.48
0.17
-0.17
-0.46
-0.62
-0.70
-0.74
-0.81
-0.93
-1.09
-1.25
-1.38
-1.46
-1.47
-1.36
-1.09
-0.61
0.10
1.01
2.03
3.04
3.95
4.73
5.47
6.29
7.37
8.72
10.16
11.26
11.55
10.67
8.57
5.59
2.30
-0.70
-3.00
-4.51
-5.34
-5.71
-5.76
-5.54
-5.02
-4.24
-3.36
-2.60
-2.14
-2.04
-2.15
-2.22
-2.00
-1.41
-0.55
0.34
0.98
1.19
0.99
0.52
0.04
-0.25
-0.24
0.07
0.56
1.06
1.44
1.56
1.41
1.06
0.64
0.33
0.26
0.48
0.86
1.22
1.32
1.03
0.29
-0.81
-2.13
-3.45
-4.52
-5.13
-5.11
-4.43
-3.23
-1.75
-0.35
0.67
1.18
1.19
0.87
0.40
-0.09
-0.54
-0.91
-1.20
-1.39
-1.44
-1.35
-1.14
-0.89
-0.69
-0.59
-0.60
-0.67
-0.78
-0.90
-1.05
-1.26
-1.53
-1.83
-2.13
-2.38
-2.55
-2.64
-2.66
-2.61
-2.50
-2.35
-2.19
-2.08
-2.04
-2.12
-2.30
-2.60
-3.00
-3.49
-4.01
-4.43
-4.63
-4.52
-4.13
-3.59
-3.09
-2.81
-2.76
-2.87
-2.95
-2.83
-2.45
-1.85
-1.14
-0.46
0.13
0.64
1.15
1.70
2.33
3.01
3.67
4.24
4.66
4.92
5.00
4.92
4.72
4.46
4.20
3.95
3.70
3.40
3.01
2.53
1.99
1.45
0.95
0.50
0.10
-0.23
-0.47
-0.56
-0.50
-0.34
-0.18
-0.14
-0.30
-0.67
-1.15
-1.61
-1.94
-2.06
-1.99
-1.80
-1.54
-1.24
-0.91
-0.52
-0.06
0.43
0.91
1.31
1.61
1.79
1.87
1.84
1.70
1.43
1.06
0.66
0.31
0.11
0.10
0.29
0.60
0.92
1.16
1.24
1.13
0.87
0.51
0.14
-0.17
-0.39
-0.51
-0.54
-0.50
-0.42
-0.32
-0.23
-0.18
-0.22
-0.39
-0.65
-0.95
-1.17
-1.20
-1.01
-0.65
-0.26
-0.01
-0.01
-0.24
-0.50
-0.48
0.13
1.43
3.27
5.24
6.81
7.61
7.60
7.15
6.85
7.35
9.05
12.02
16.00
20.45
24.63
27.60
28.42
26.38
21.36
14.06
5.88
-1.56
-7.05
-10.21
-11.55
-12.11
-12.84
-14.19
-16.05
-17.95
-19.43
-20.28
-20.52
-20.34
-19.83
-18.99
-17.74
-16.04
-13.93
-11.61
-9.35
-7.35
-5.74
-4.49
-3.45
-2.45
-1.37
-0.18
0.97
1.92
2.45
2.45
1.94
1.08
0.10
-0.79
-1.49
-2.03
-2.50
-2.94
-3.28
-3.34
-2.87
-1.69
0.17
2.47
4.82
6.75
7.91
8.17
7.64
6.59
5.37
4.21
3.23
2.37
1.57
0.79
0.09
-0.41
-0.59
-0.43
-0.00
0.55
1.07
1.46
1.67
1.69
1.56
1.28
0.87
0.37
-0.19
-0.75
-1.28
-1.78
-2.25
-2.64
-2.86
-2.77
-2.29
-1.42
-0.27
1.01
2.28
3.41
4.33
4.96
5.28
5.26
4.94
4.37
3.61
2.72
1.76
0.85
0.14
-0.24
-0.25
0.01
0.32
0.44
0.24
-0.21
-0.74
-1.10
-1.19
-1.02
-0.75
-0.51
-0.40
-0.42
-0.53
-0.64
-0.70
-0.69
-0.59
-0.47
-0.41
-0.53
-0.89
-1.46
-2.11
-2.68
-3.03
-3.13
-3.05
-2.91
-2.79
-2.68
-2.51
-2.22
-1.83
-1.42
-1.12
-0.99
-1.04
-1.22
-1.43
-1.65
-1.90
-2.23
-2.64
-3.10
-3.51
-3.76
-3.77
-3.49
-2.96
-2.25
-1.45
-0.67
0.04
0.62
1.10
1.52
1.93
2.34
2.72
3.00
3.11
3.06
2.88
2.69
2.54
2.45
2.38
2.29
2.12
1.89
1.60
1.27
0.91
0.50
0.05
-0.41
-0.80
-1.03
-1.05
-0.84
-0.43
0.10
0.67
1.22
1.70
2.09
2.40
2.63
2.77
2.85
2.85
2.75
2.52
2.13
1.60
0.99
0.41
-0.01
-0.17
-0.06
0.25
0.65
1.01
1.20
1.17
0.93
0.58
0.23
0.03
0.03
0.21
0.45
0.65
0.69
0.54
0.19
-0.31
-0.89
-1.42
-1.80
-1.92
-1.79
-1.49
-1.20
-1.09
-1.24
-1.57
-1.90
-2.00
-1.73
-1.07
-0.15
0.82
1.65
2.20
2.45
2.45
2.29
2.03
1.67
1.24
0.77
0.35
0.05
-0.05
0.02
0.23
0.49
0.76
1.01
1.19
1.27
1.21
1.01
0.70
0.37
0.07
-0.19
-0.43
-0.70
-0.99
-1.25
-1.38
-1.35
-1.19
-0.98
-0.84
-0.87
-1.09
-1.45
-1.85
-2.20
-2.42
-2.46
-2.31
-1.95
-1.40
-0.69
0.09
0.85
1.45
1.84
1.97
1.89
1.65
1.29
0.83
0.31
-0.24
-0.70
-0.96
-0.94
-0.62
-0.12
0.44
0.89
1.12
1.11
0.86
0.45
-0.03
-0.45
-0.72
-0.83
-0.82
-0.77
-0.78
-0.88
-1.04
-1.17
-1.18
-1.07
-0.91
-0.83
-0.96
-1.30
-1.77
-2.24
-2.54
-2.57
-2.32
-1.82
-1.19
-0.53
0.09
0.62
1.05
1.39
1.61
1.69
1.65
1.55
1.44
1.41
1.46
1.54
1.54
1.39
1.11
0.79
0.54
0.44
0.46
0.50
0.45
0.26
-0.04
-0.39
-0.71
-0.95
-1.13
-1.23
-1.26
-1.21
-1.04
-0.79
-0.53
-0.33
-0.29
-0.43
-0.72
-1.06
-1.33
-1.45
-1.40
-1.21
-0.93
-0.58
-0.20
0.22
0.66
1.07
1.39
1.58
1.62
1.56
1.46
1.37
1.33
1.30
1.30
1.29
1.30
1.33
1.37
1.38
1.31
1.13
0.82
0.37
-0.16
-0.72
-1.22
-1.58
-1.78
-1.81
-1.72
-1.57
-1.42
-1.27
-1.17
-1.13
-1.18
-1.34
-1.60
-1.90
-2.15
-2.28
-2.26
-2.10
-1.83
-1.49
-1.06
-0.52
0.12
0.83
1.53
2.12
2.50
2.62
2.50
2.19
1.77
1.35
0.97
0.68
0.51
0.47
0.62
0.98
1.50
2.07
2.52
2.68
2.45
1.86
1.05
0.18
-0.59
-1.20
-1.67
-2.02
-2.28
-2.44
-2.43
-2.21
-1.79
-1.27
-0.77
-0.47
-0.42
-0.57
-0.77
-0.83
-0.62
-0.13
0.51
1.11
1.54
1.74
1.78
1.73
1.64
1.50
1.25
0.86
0.34
-0.19
-0.58
-0.70
-0.52
-0.10
0.42
0.89
1.21
1.34
1.33
1.20
0.96
0.60
0.07
-0.59
-1.31
-1.93
-2.32
-2.40
-2.19
-1.83
-1.46
-1.23
-1.20
-1.35
-1.55
-1.64
-1.54
-1.22
-0.74
-0.21
0.30
0.72
1.03
1.22
1.26
1.14
0.85
0.46
0.03
-0.31
-0.48
-0.42
-0.17
0.20
0.59
0.90
1.09
1.13
1.07
0.92
0.70
0.41
0.07
-0.32
-0.73
-1.12
-1.46
-1.75
-1.99
-2.18
-2.31
-2.39
-2.44
-2.51
-2.64
-2.80
-2.90
-2.81
-2.41
-1.70
-0.77
0.21
1.04
1.59
1.83
1.81
1.60
1.30
0.95
0.64
0.39
0.25
0.20
0.21
0.22
0.18
0.08
-0.07
-0.23
-0.36
-0.45
-0.51
-0.59
-0.75
-1.07
-1.58
-2.23
-2.85
-3.30
-3.46
-3.38
-3.25
-3.29
-3.63
-4.24
-4.93
-5.44
-5.62
-5.41
-4.91
-4.19
-3.32
-2.27
-1.02
0.36
1.76
2.98
3.90
4.47
4.76
4.91
5.02
5.14
5.24
5.26
5.14
4.87
4.45
3.93
3.38
2.86
2.44
2.19
2.10
2.10
2.08
1.92
1.58
1.14
0.71
0.42
0.33
0.40
0.50
0.52
0.39
0.12
-0.21
-0.53
-0.79
-0.96
-1.06
-1.08
-1.01
-0.82
-0.51
-0.09
0.39
0.89
1.36
1.79
2.17
2.49
2.70
2.75
2.58
2.18
1.61
1.02
0.53
0.23
0.13
0.15
0.21
0.27
0.31
0.37
0.44
0.51
0.53
0.44
0.22
-0.11
-0.47
-0.76
-0.89
-0.83
-0.63
-0.40
-0.23
-0.18
-0.20
-0.25
-0.30
-0.39
-0.56
-0.84
-1.16
-1.40
-1.40
-1.10
-0.54
0.14
0.75
1.19
1.40
1.40
1.26
1.07
0.89
0.73
0.56
0.34
0.09
-0.15
-0.28
-0.23
0.01
0.32
0.51
0.47
0.21
-0.14
-0.35
-0.29
0.03
0.46
0.75
0.72
0.34
-0.28
-0.89
-1.27
-1.31
-1.07
-0.78
-0.68
-0.93
-1.50
-2.13
-2.53
-2.49
-2.03
-1.35
-0.75
-0.40
-0.24
-0.05
0.47
1.42
2.70
3.98
4.93
5.33
5.19
4.67
4.03
3.48
3.14
3.07
3.27
3.70
4.30
4.94
5.51
5.93
6.19
6.33
6.46
6.63
6.87
7.20
7.58
8.02
8.49
8.94
9.31
9.49
9.40
8.96
8.16
6.98
5.41
3.45
1.16
-1.37
-3.97
-6.43
-8.55
-10.20
-11.33
-11.98
-12.27
-12.29
-12.09
-11.68
-11.05
-10.21
-9.19
-8.12
-7.12
-6.32
-5.78
-5.48
-5.35
-5.27
-5.11
-4.81
-4.35
-3.76
-3.13
-2.53
-2.02
-1.66
-1.45
-1.41
-1.50
-1.69
-1.89
-2.04
-2.07
-1.98
-1.83
-1.72
-1.72
-1.85
-2.07
-2.31
-2.48
-2.56
-2.53
-2.42
-2.23
-2.02
-1.83
-1.74
-1.80
-2.01
-2.30
-2.55
-2.63
-2.44
-1.96
-1.25
-0.47
0.23
0.73
0.99
1.07
1.08
1.11
1.13
1.09
0.89
0.49
-0.06
-0.63
-1.07
-1.31
-1.35
-1.29
-1.23
-1.23
-1.27
-1.30
-1.26
-1.12
-0.91
-0.72
-0.65
-0.76
-1.01
-1.34
-1.63
-1.80
-1.87
-1.86
-1.83
-1.75
-1.53
-1.06
-0.29
0.70
1.74
2.60
3.13
3.27
3.09
2.68
2.14
1.51
0.88
0.35
0.06
0.15
0.66
1.53
2.57
3.54
4.28
4.68
4.72
4.45
3.88
3.04
2.02
0.95
0.03
-0.56
-0.73
-0.51
-0.08
0.37
0.65
0.69
0.51
0.19
-0.16
-0.49
-0.75
-0.89
-0.90
-0.77
-0.52
-0.21
0.11
0.37
0.52
0.60
0.63
0.65
0.68
0.69
0.68
0.64
0.56
0.46
0.26
-0.06
-0.53
-1.03
-1.39
-1.38
-0.90
-0.03
0.95
1.70
1.96
1.70
1.08
0.41
-0.07
-0.27
-0.25
-0.17
-0.15
-0.20
-0.26
-0.23
-0.07
0.23
0.59
0.95
1.27
1.54
1.78
1.97
2.07
2.04
1.80
1.36
0.80
0.24
-0.21
-0.47
-0.55
-0.53
-0.51
-0.60
-0.80
-1.10
-1.40
-1.59
-1.61
-1.45
-1.18
-0.95
-0.90
-1.09
-1.46
-1.84
-2.07
-2.03
-1.76
-1.36
-0.93
-0.52
-0.08
0.43
0.97
1.45
1.71
1.69
1.43
1.08
0.82
0.71
0.75
0.81
0.81
0.70
0.56
0.47
0.48
0.54
0.53
0.37
0.04
-0.37
-0.74
-0.99
-1.14
-1.29
-1.57
-2.01
-2.57
-3.11
-3.51
-3.68
-3.65
-3.48
-3.28
-3.12
-3.08
-3.23
-3.57
-4.12
-4.76
-5.37
-5.75
-5.77
-5.33
-4.45
-3.21
-1.74
-0.20
1.28
2.59
3.64
4.39
4.85
5.02
4.93
4.58
4.03
3.35
2.69
2.20
1.99
2.06
2.32
2.59
2.75
2.73
2.59
2.39
2.18
1.96
1.68
1.32
0.90
0.50
0.21
0.07
0.04
0.05
-0.02
-0.21
-0.54
-0.93
-1.32
-1.62
-1.83
-1.98
-2.14
-2.33
-2.54
-2.71
-2.75
-2.62
-2.26
-1.69
-0.94
-0.08
0.80
1.57
2.12
2.40
2.42
2.26
2.01
1.72
1.39
1.02
0.64
0.35
0.27
0.46
0.86
1.34
1.69
1.80
1.63
1.28
0.89
0.57
0.38
0.30
0.28
0.26
0.20
0.09
-0.05
-0.23
-0.44
-0.67
-0.91
-1.12
-1.29
-1.39
-1.42
-1.41
-1.40
-1.42
-1.47
-1.53
-1.53
-1.40
-1.12
-0.67
-0.10
0.54
1.20
1.82
2.34
2.72
2.89
2.81
2.52
2.07
1.60
1.22
0.98
0.89
0.89
0.94
1.02
1.13
1.24
1.30
1.26
1.08
0.83
0.58
0.43
0.41
0.44
0.45
0.39
0.30
0.24
0.25
0.34
0.41
0.38
0.23
-0.03
-0.33
-0.64
-0.95
-1.25
-1.51
-1.65
-1.61
-1.36
-0.95
-0.44
0.09
0.64
1.19
1.75
2.24
2.60
2.76
2.72
2.52
2.25
1.96
1.67
1.40
1.15
0.96
0.84
0.78
0.70
0.55
0.33
0.08
-0.11
-0.19
-0.18
-0.16
-0.20
-0.37
-0.63
-0.94
-1.22
-1.44
-1.61
-1.74
-1.83
-1.87
-1.85
-1.76
-1.64
-1.52
-1.47
-1.51
-1.67
-1.87
-2.04
-2.06
-1.82
-1.29
-0.54
0.32
1.11
1.70
2.01
2.03
1.83
1.50
1.14
0.82
0.56
0.34
0.12
-0.11
-0.32
-0.45
-0.42
-0.19
0.19
0.65
1.03
1.21
1.11
0.75
0.20
-0.42
-0.99
-1.40
-1.61
-1.64
-1.52
-1.33
-1.17
-1.10
-1.16
-1.33
-1.57
-1.80
-1.97
-2.06
-2.04
-1.91
-1.60
-1.04
-0.23
0.77
1.78
2.58
2.98
2.95
2.56
2.00
1.44
1.01
0.73
0.60
0.61
0.73
0.93
1.13
1.23
1.17
0.93
0.58
0.20
-0.16
-0.47
-0.75
-1.00
-1.20
-1.35
-1.46
-1.57
-1.70
-1.85
-1.95
-1.92
-1.71
-1.37
-1.03
-0.83
-0.88
-1.19
-1.66
-2.11
-2.34
-2.21
-1.67
-0.84
0.11
0.99
1.66
2.09
2.30
2.32
2.19
1.89
1.46
0.97
0.53
0.22
0.06
-0.01
-0.05
-0.11
-0.17
-0.19
-0.19
-0.21
-0.37
-0.67
-1.10
-1.53
-1.89
-2.18
-2.44
-2.75
-3.13
-3.49
-3.74
-3.82
-3.75
-3.59
-3.41
-3.21
-2.91
-2.45
-1.84
-1.11
-0.38
0.26
0.80
1.26
1.73
2.29
2.95
3.69
4.43
5.07
5.52
5.73
5.70
5.49
5.12
4.62
4.00
3.30
2.60
2.03
1.66
1.52
1.55
1.62
1.61
1.47
1.25
0.99
0.74
0.50
0.22
-0.10
-0.47
-0.80
-1.02
-1.07
-0.96
-0.74
-0.51
-0.36
-0.37
-0.55
-0.88
-1.30
-1.75
-2.16
-2.49
-2.69
-2.70
-2.46
-1.97
-1.24
-0.39
0.45
1.12
1.56
1.75
1.75
1.66
1.55
1.45
1.37
1.34
1.37
1.49
1.69
1.91
2.07
2.09
1.93
1.65
1.33
1.00
0.68
0.32
-0.11
-0.58
-1.00
-1.26
-1.31
-1.19
-1.03
-0.95
-1.01
-1.18
-1.36
-1.45
-1.45
-1.42
-1.46
-1.67
-2.06
-2.54
-2.98
-3.24
-3.22
-2.90
-2.34
-1.60
-0.78
0.06
0.86
1.55
2.04
2.30
2.32
2.20
2.07
2.03
2.11
2.26
2.34
2.24
1.95
1.52
1.08
0.75
0.57
0.48
0.41
0.26
0.02
-0.25
-0.47
-0.56
-0.53
-0.45
-0.44
-0.57
-0.84
-1.20
-1.55
-1.82
-1.99
-2.05
-2.02
-1.91
-1.74
-1.57
-1.48
-1.53
-1.73
-2.03
-2.27
-2.31
-2.01
-1.32
-0.31
0.91
2.12
3.13
3.78
4.02
3.89
3.51
3.02
2.55
2.16
1.87
1.69
1.59
1.55
1.50
1.38
1.15
0.82
0.45
0.16
0.01
0.03
0.16
0.27
0.25
0.05
-0.27
-0.64
-0.94
-1.12
-1.16
-1.09
-0.97
-0.87
-0.82
-0.85
-0.97
-1.15
-1.35
-1.51
-1.58
-1.54
-1.38
-1.15
-0.89
-0.62
-0.32
0.01
0.40
0.82
1.24
1.61
1.89
2.04
2.04
1.88
1.57
1.14
0.66
0.22
-0.11
-0.27
-0.24
-0.09
0.14
0.34
0.44
0.39
0.13
-0.28
-0.79
-1.28
-1.66
-1.92
-2.07
-2.19
-2.32
-2.48
-2.64
-2.79
-2.97
-3.24
-3.64
-4.19
-4.83
-5.43
-5.90
-6.14
-6.13
-5.86
-5.35
-4.60
-3.67
-2.59
-1.41
-0.22
0.92
1.94
2.79
3.45
3.92
4.24
4.42
4.48
4.43
4.27
4.02
3.75
3.51
3.36
3.32
3.33
3.32
3.21
2.96
2.59
2.14
1.69
1.31
1.01
0.75
0.47
0.13
-0.28
-0.70
-1.03
-1.20
-1.20
-1.10
-1.05
-1.18
-1.53
-2.02
-2.44
-2.57
-2.29
-1.62
-0.74
0.13
0.80
1.23
1.48
1.71
1.98
2.26
2.45
2.44
2.21
1.81
1.39
1.05
0.84
0.70
0.57
0.44
0.34
0.36
0.55
0.83
1.07
1.12
0.91
0.49
0.02
-0.32
-0.45
-0.36
-0.15
0.09
0.24
0.25
0.07
-0.33
-0.93
-1.65
-2.34
-2.83
-2.99
-2.78
-2.30
-1.72
-1.20
-0.87
-0.75
-0.77
-0.81
-0.76
-0.54
-0.13
0.45
1.15
1.87
2.48
2.87
2.96
2.72
2.25
1.71
1.28
1.04
1.01
1.09
1.16
1.10
0.88
0.53
0.12
-0.24
-0.48
-0.57
-0.52
-0.38
-0.24
-0.17
-0.20
-0.31
-0.42
-0.48
-0.45
-0.34
-0.23
-0.18
-0.24
-0.42
-0.70
-1.02
-1.31
-1.50
-1.52
-1.33
-0.90
-0.28
0.43
1.14
1.74
2.18
2.40
2.41
2.18
1.75
1.16
0.51
-0.05
-0.42
-0.54
-0.43
-0.17
0.13
0.37
0.48
0.41
0.18
-0.20
-0.62
-0.99
-1.22
-1.30
-1.28
-1.27
-1.34
-1.52
-1.77
-2.00
-2.16
-2.20
-2.08
-1.81
-1.38
-0.81
-0.19
0.40
0.86
1.16
1.32
1.44
1.61
1.88
2.22
2.51
2.63
2.47
2.03
1.34
0.52
-0.30
-1.01
-1.52
-1.80
-1.80
-1.52
-0.98
-0.29
0.36
0.80
0.89
0.66
0.24
-0.14
-0.30
-0.16
0.23
0.69
1.02
1.07
0.77
0.21
-0.46
-1.07
-1.45
-1.53
-1.34
-1.00
-0.63
-0.39
-0.34
-0.50
-0.80
-1.15
-1.42
-1.53
-1.45
-1.23
-0.94
-0.68
-0.53
-0.49
-0.55
-0.68
-0.90
-1.27
-1.84
-2.60
-3.44
-4.20
-4.73
-4.94
-4.90
-4.74
-4.55
-4.39
-4.19
-3.86
-3.36
-2.72
-2.08
-1.56
-1.26
-1.19
-1.23
-1.24
-1.10
-0.74
-0.17
0.50
1.15
1.68
2.05
2.25
2.30
2.24
2.09
1.92
1.82
1.92
2.27
2.83
3.46
3.97
4.23
4.19
3.90
3.45
2.90
2.32
1.74
1.26
0.97
0.92
1.07
1.29
1.44
1.41
1.22
0.93
0.64
0.33
-0.02
-0.47
-1.00
-1.51
-1.89
-2.08
-2.11
-2.10
-2.13
-2.26
-2.45
-2.63
-2.74
-2.77
-2.75
-2.71
-2.70
-2.70
-2.68
-2.57
-2.30
-1.80
-1.08
-0.20
0.66
1.37
1.83
2.11
2.32
2.58
2.92
3.23
3.37
3.28
2.97
2.56
2.16
1.81
1.49
1.17
0.88
0.72
0.78
1.08
1.50
1.90
2.11
2.08
1.84
1.49
1.15
0.88
0.73
0.71
0.80
0.98
1.24
1.52
1.74
1.82
1.67
1.24
0.56
-0.24
-0.95
-1.38
-1.39
-0.96
-0.17
0.83
1.93
3.02
4.01
4.81
5.35
5.55
5.41
5.02
4.50
3.96
3.44
2.92
2.35
1.69
0.97
0.27
-0.32
-0.76
-1.06
-1.28
-1.43
-1.47
-1.34
-0.98
-0.39
0.35
1.08
1.66
2.01
2.06
1.84
1.40
0.82
0.24
-0.18
-0.31
-0.13
0.31
0.86
1.39
1.78
2.01
2.09
2.04
1.88
1.64
1.40
1.27
1.35
1.65
2.11
2.64
3.10
3.45
3.73
4.00
4.36
4.91
5.75
6.96
8.60
10.60
12.72
14.61
15.78
15.85
14.59
12.03
8.38
3.98
-0.78
-5.50
-9.74
-13.03
-14.95
-15.29
-14.18
-12.09
-9.78
-7.97
-7.17
-7.47
-8.62
-10.11
-11.41
-12.10
-12.01
-11.19
-9.90
-8.53
-7.46
-6.89
-6.81
-7.01
-7.23
-7.25
-7.02
-6.59
-6.03
-5.39
-4.61
-3.69
-2.65
-1.69
-1.05
-0.91
-1.30
-2.02
-2.78
-3.24
-3.19
-2.60
-1.57
-0.20
1.42
3.31
5.50
7.93
10.41
12.58
14.06
14.56
14.05
12.66
10.68
8.37
5.91
3.37
0.82
-1.65
-3.89
-5.77
-7.18
-8.12
-8.61
-8.72
-8.47
-7.87
-6.95
-5.76
-4.46
-3.21
-2.16
-1.37
-0.84
-0.50
-0.29
-0.21
-0.29
-0.54
-0.92
-1.29
-1.46
-1.28
-0.73
0.03
0.69
0.96
0.68
-0.08
-1.07
-1.97
-2.52
-2.62
-2.35
-1.86
-1.35
-0.97
-0.78
-0.81
-1.05
-1.52
-2.26
-3.31
-4.69
-6.28
-7.90
-9.24
-10.02
-10.01
-9.13
-7.44
-5.12
-2.41
0.44
3.18
5.61
7.60
9.15
10.44
11.76
13.44
15.64
18.32
21.19
23.89
26.09
27.60
28.36
28.38
27.66
26.19
23.90
20.79
16.87
12.24
7.03
1.41
-4.42
-10.21
-15.75
-20.82
-25.29
-29.06
-32.00
-33.93
-34.64
-34.01
-32.11
-29.21
-25.72
-22.00
-18.29
-14.65
-11.06
-7.55
-4.26
-1.40
0.86
2.47
3.57
4.41
5.25
6.23
7.32
8.40
9.29
9.89
10.18
10.26
10.25
10.28
10.40
10.59
10.76
