1527299971.00
64.000000
-0.00
-0.00
-0.00
-0.00
-0.00
-0.00
-0.00
-0.00
-0.00
-0.00
0.00
0.01
0.01
-0.00
-0.03
-0.05
-0.05
0.00
0.13
0.36
0.66
1.01
1.37
1.72
2.06
2.40
2.79
3.24
3.80
4.42
5.06
5.66
6.20
6.68
7.15
7.68
8.31
9.15
10.09
11.05
11.89
12.56
13.13
13.75
14.66
15.99
17.97
20.38
22.93
25.31
27.36
29.16
31.06
33.54
36.92
41.60
47.18
53.10
58.74
63.74
68.18
72.57
77.66
83.99
92.07
101.33
110.90
119.83
127.52
134.07
140.20
147.35
154.28
163.20
174.56
188.24
202.87
215.52
221.98
217.89
200.15
168.04
123.88
71.17
13.82
-45.29
-104.68
-163.83
-222.34
-279.35
-333.72
-384.07
-430.00
-471.52
-508.65
-540.67
-565.81
-581.55
-585.33
-575.54
-551.95
-516.23
-471.24
-420.44
-367.29
-314.61
-264.07
-215.79
-168.31
-119.04
-65.65
-7.28
54.50
115.83
171.81
218.27
253.07
276.44
290.21
296.50
296.82
291.99
282.52
269.32
253.87
237.85
222.62
208.70
195.81
183.23
170.29
156.74
142.74
128.68
114.87
101.46
88.50
76.00
64.15
53.25
43.62
35.45
28.75
23.41
19.25
16.13
13.77
11.81
9.86
7.62
4.95
1.97
-1.00
-3.52
-5.20
-5.84
-5.48
-4.39
-3.03
-1.91
-1.39
-1.63
-2.47
-3.60
-4.66
-5.42
-5.82
-5.94
-5.93
-5.86
-5.76
-5.54
-5.15
-4.52
-3.67
-2.66
-1.58
-0.58
0.20
0.62
0.63
0.26
-0.36
-1.09
-1.80
-2.45
-3.06
-3.64
-4.16
-4.54
-4.69
-4.54
-4.13
-3.55
-2.93
-2.38
-1.94
-1.59
-1.30
-1.08
-0.95
-0.95
-1.08
-1.31
-1.57
-1.81
-1.93
-1.87
-1.58
-1.05
-0.33
0.47
1.17
1.64
1.81
1.69
1.36
0.95
0.56
0.28
0.11
0.04
0.02
0.07
0.19
0.44
0.87
1.53
2.37
3.31
4.19
4.84
5.16
5.08
4.66
4.00
3.21
2.34
1.43
0.40
-0.80
-2.14
-3.55
-4.84
-5.87
-6.55
-6.92
-7.06
-7.15
-7.25
-7.37
-7.44
-7.35
-7.05
-6.57
-5.98
-5.40
-4.89
-4.48
-4.13
-3.87
-3.68
-3.53
-3.35
-3.02
-2.40
-1.46
-0.30
0.86
1.76
2.19
2.15
1.79
1.35
1.02
0.82
0.66
0.40
0.03
-0.32
-0.46
-0.22
0.34
1.00
1.48
1.57
1.27
0.79
0.36
0.14
0.09
0.08
-0.04
-0.29
-0.61
-0.86
-0.96
-0.92
-0.83
-0.81
-0.94
-1.26
-1.72
-2.25
-2.81
-3.37
-3.91
-4.42
-4.92
-5.46
-6.06
-6.73
-7.41
-7.95
-8.14
-7.78
-6.76
-5.12
-3.01
-0.67
1.64
3.73
5.47
6.80
7.71
8.22
8.37
8.24
7.92
7.56
7.28
7.20
7.31
7.56
7.81
7.92
7.82
7.51
7.07
6.59
6.14
5.74
5.38
5.02
4.64
4.22
3.72
3.12
2.45
1.77
1.22
0.92
0.95
1.26
1.70
2.03
2.01
1.47
0.42
-1.00
-2.49
-3.68
-4.22
-3.86
-2.50
-0.26
2.64
5.84
9.02
11.89
14.31
16.28
17.85
19.16
20.28
21.28
22.16
22.91
23.56
24.15
24.77
25.50
26.37
27.35
28.36
29.31
30.12
30.70
30.96
30.79
30.00
28.46
26.13
23.17
19.84
16.50
13.40
10.62
8.02
5.40
2.60
-0.36
-3.29
-5.93
-8.07
-9.65
-10.72
-11.32
-11.44
-11.07
-10.23
-9.08
-7.87
-6.75
-5.67
-4.32
-2.29
0.69
4.50
8.61
12.21
14.51
14.96
13.38
9.95
5.05
-0.87
-7.41
-14.24
-21.18
-28.14
-35.16
-42.32
-49.74
-57.41
-65.17
-72.68
-79.54
-85.38
-90.01
-93.40
-95.57
-96.40
-95.55
-92.52
-86.84
-78.36
-67.44
-54.91
-41.84
-29.30
-18.13
-8.90
-1.93
2.68
5.10
5.82
5.64
5.49
6.17
8.01
10.82
13.98
16.80
18.80
19.88
20.32
20.48
20.69
21.11
21.78
22.68
23.77
24.85
25.51
25.10
22.90
18.39
11.53
2.92
-6.35
-14.92
-21.50
-25.25
-25.87
-23.68
-19.41
-13.99
-8.22
-2.63
2.62
7.58
12.33
16.75
20.51
23.16
24.29
23.73
21.54
18.01
13.56
8.69
3.89
-0.36
-3.69
-5.86
-6.87
-6.94
-6.45
-5.87
-5.53
-5.54
-5.67
-5.40
-4.14
-1.38
3.04
8.91
15.69
22.74
29.41
35.21
39.79
43.02
44.97
45.94
46.41
46.86
47.64
48.84
50.39
52.14
54.06
56.19
58.52
60.67
61.78
60.55
55.65
46.26
32.42
15.19
-3.63
-22.05
-38.42
-51.89
-62.47
-70.78
-77.73
-84.17
-90.68
-97.59
-104.84
-111.98
-118.06
-121.69
-121.41
-116.22
-106.04
-91.89
-75.67
-59.49
-45.07
-33.32
-24.31
-17.60
-12.57
-8.65
-5.35
-2.30
0.82
4.17
7.72
11.25
14.43
16.95
18.68
19.66
20.09
20.19
20.16
20.14
20.22
20.46
20.84
21.29
21.58
21.50
20.84
19.64
18.15
16.79
15.96
15.85
16.29
16.85
17.08
16.71
15.72
14.37
12.94
11.65
10.56
9.65
8.93
8.53
8.65
9.45
10.95
12.96
15.14
17.06
18.36
18.83
18.44
17.30
15.60
13.63
11.62
9.80
8.28
7.08
6.12
5.31
4.55
3.85
3.25
2.84
2.67
2.67
2.72
2.65
2.31
1.58
0.47
-0.94
-2.44
-3.73
-4.49
-4.45
-3.47
-1.65
0.72
3.28
5.66
7.65
9.19
10.36
11.28
12.05
12.71
13.23
13.59
13.79
13.88
13.88
13.80
13.65
13.39
13.06
12.68
12.31
11.98
11.66
11.31
10.88
10.35
9.73
9.06
8.35
7.60
6.78
5.92
5.05
4.21
3.42
2.64
1.82
0.96
0.09
-0.73
-1.49
-2.26
-3.15
-4.26
-5.50
-6.66
-7.40
-7.41
-6.57
-4.95
-2.84
-0.58
1.55
3.40
4.93
6.15
7.09
7.75
8.11
8.15
7.92
7.46
6.89
6.32
5.88
5.65
5.64
5.78
5.94
6.00
5.89
5.62
5.26
4.87
4.45
3.97
3.37
2.67
1.95
1.34
0.89
0.54
0.18
-0.33
-0.97
-1.67
-2.30
-2.82
-3.32
-3.93
-4.75
-5.69
-6.53
-6.93
-6.61
-5.50
-3.69
-1.44
0.95
3.24
5.24
6.89
8.17
9.10
9.74
10.16
10.40
10.52
10.54
10.44
10.19
9.75
9.13
8.33
7.38
6.29
5.07
3.79
2.54
1.49
0.75
0.37
0.26
0.23
0.10
-0.25
-0.77
-1.29
-1.62
-1.63
-1.23
-0.44
0.70
2.02
3.25
3.94
3.59
1.75
-1.71
-6.55
-12.18
-17.91
-23.20
-27.81
-31.77
-35.17
-37.92
-39.70
-40.03
-38.53
-35.14
-30.21
-24.38
-18.34
-12.71
-7.90
-4.20
-1.73
-0.43
-0.01
0.12
0.67
2.27
5.18
9.18
13.59
17.64
20.70
22.56
23.35
23.38
22.96
22.27
21.38
20.38
19.38
18.57
18.10
17.97
18.09
18.26
18.28
18.05
17.55
16.82
15.87
14.69
13.27
11.55
9.54
7.27
4.83
2.30
-0.20
-2.58
-4.78
-6.80
-8.66
-10.42
-12.13
-13.74
-15.10
-15.98
-16.14
-15.46
-13.99
-11.93
-9.58
-7.22
-5.04
-3.12
-1.45
-0.02
1.20
2.19
2.96
3.55
4.00
4.37
4.70
5.03
5.32
5.55
5.65
5.56
5.23
4.69
4.05
3.47
3.09
2.98
3.08
3.26
3.37
3.28
2.97
2.44
1.73
0.86
-0.10
-1.07
-1.93
-2.55
-2.89
-2.96
-2.90
-2.88
-3.04
-3.44
-4.06
-4.81
-5.57
-6.22
-6.72
-7.04
-7.25
-7.44
-7.71
-8.11
-8.59
-9.00
-9.13
-8.79
-7.89
-6.52
-4.84
-3.06
-1.37
0.09
1.25
2.01
2.33
2.19
1.70
1.05
0.48
0.17
0.15
0.31
0.47
0.48
0.30
0.01
-0.28
-0.46
-0.51
-0.53
-0.60
-0.76
-0.99
-1.19
-1.28
-1.27
-1.29
-1.52
-2.09
-3.00
-4.10
-5.15
-5.94
-6.38
-6.56
-6.60
-6.64
-6.72
-6.83
-6.90
-6.89
-6.79
-6.57
-6.18
-5.48
-4.38
-2.84
-0.96
1.07
2.99
4.60
5.78
6.53
6.86
6.83
6.52
5.99
5.34
4.67
4.09
3.65
3.39
3.27
3.25
3.25
3.16
2.91
2.47
1.86
1.22
0.71
0.43
0.40
0.48
0.46
0.17
-0.43
-1.20
-1.92
-2.39
-2.52
-2.39
-2.19
-2.08
-2.16
-2.40
-2.73
-3.06
-3.39
-3.79
-4.36
-5.18
-6.21
-7.27
-8.07
-8.31
-7.76
-6.43
-4.56
-2.48
-0.57
0.95
2.04
2.76
3.23
3.50
3.59
3.49
3.24
2.94
2.71
2.65
2.81
3.09
3.37
3.51
3.43
3.13
2.72
2.34
2.14
2.17
2.41
2.73
2.97
2.99
2.77
2.37
1.91
1.51
1.21
0.98
0.71
0.33
-0.22
-0.91
-1.68
-2.48
-3.26
-4.02
-4.77
-5.52
-6.27
-7.04
-7.82
-8.59
-9.30
-9.83
-10.02
-9.73
-8.86
-7.44
-5.57
-3.47
-1.35
0.62
2.30
3.63
4.59
5.18
5.46
5.52
5.46
5.36
5.29
5.27
5.30
5.38
5.54
5.75
5.99
6.19
6.29
6.24
6.06
5.75
5.37
4.92
4.38
3.73
3.00
2.22
1.50
0.91
0.51
0.25
0.05
-0.23
-0.67
-1.25
-1.88
-2.43
-2.83
-3.08
-3.32
-3.70
-4.32
-5.20
-6.23
-7.28
-8.19
-8.78
-8.92
-8.50
-7.48
-5.96
-4.11
-2.18
-0.39
1.12
2.33
3.24
3.87
4.20
4.22
3.97
3.56
3.15
2.87
2.79
2.85
2.98
3.09
3.16
3.21
3.27
3.33
3.30
3.11
2.67
2.03
1.28
0.58
0.04
-0.32
-0.59
-0.87
-1.26
-1.77
-2.36
-2.92
-3.36
-3.63
-3.77
-3.84
-3.96
-4.22
-4.66
-5.22
-5.76
-6.09
-6.03
-5.49
-4.51
-3.28
-2.00
-0.84
0.14
0.98
1.75
2.44
2.99
3.30
3.29
3.00
2.59
2.26
2.19
2.44
2.93
3.48
3.92
4.14
4.15
4.02
3.82
3.59
3.36
3.10
2.79
2.45
2.12
1.83
1.60
1.39
1.14
0.78
0.31
-0.25
-0.81
-1.27
-1.60
-1.83
-2.00
-2.18
-2.37
-2.57
-2.78
-3.07
-3.55
-4.29
-5.24
-6.21
-6.92
-7.09
-6.58
-5.45
-3.86
-2.04
-0.17
1.58
3.10
4.29
5.10
5.55
5.71
5.71
5.68
5.67
5.67
5.70
5.77
5.95
6.26
6.67
7.04
7.20
7.03
6.54
5.81
5.02
4.29
3.65
3.09
2.53
1.98
1.48
1.12
0.95
0.96
1.07
1.14
1.07
0.80
0.31
-0.36
-1.18
-2.09
-3.00
-3.83
-4.52
-5.04
-5.37
-5.59
-5.79
-6.09
-6.60
-7.36
-8.33
-9.34
-10.13
-10.42
-10.03
-8.95
-7.37
-5.56
-3.78
-2.20
-0.85
0.30
1.27
2.05
2.60
2.90
2.99
2.99
3.02
3.16
3.39
3.65
3.82
3.88
3.86
3.87
3.98
4.24
4.59
4.90
5.04
4.89
4.47
3.84
3.11
2.41
1.81
1.32
0.94
0.61
0.29
-0.07
-0.52
-1.04
-1.60
-2.12
-2.54
-2.88
-3.18
-3.57
-4.10
-4.77
-5.52
-6.23
-6.82
-7.25
-7.48
-7.47
-7.15
-6.50
-5.55
-4.40
-3.19
-2.05
-1.02
-0.09
0.80
1.65
2.41
3.01
3.39
3.57
3.58
3.50
3.39
3.26
3.12
2.98
2.86
2.76
2.70
2.67
2.64
2.57
2.43
2.17
1.78
1.29
0.75
0.26
-0.11
-0.35
-0.53
-0.74
-1.06
-1.49
-1.95
-2.34
-2.61
-2.77
-2.88
-3.05
-3.37
-3.86
-4.52
-5.33
-6.17
-6.87
-7.22
-7.05
-6.26
-4.95
-3.34
-1.71
-0.29
0.83
1.67
2.31
2.79
3.14
3.30
3.25
3.05
2.83
2.72
2.77
2.96
3.19
3.38
3.53
3.68
3.90
4.16
4.36
4.35
4.05
3.49
2.84
2.29
1.96
1.80
1.69
1.48
1.13
0.69
0.27
-0.06
-0.31
-0.55
-0.87
-1.28
-1.72
-2.14
-2.52
-2.90
-3.37
-4.00
-4.78
-5.67
-6.64
-7.66
-8.70
-9.66
-10.35
-10.48
-9.81
-8.26
-6.02
-3.45
-1.00
0.99
2.41
3.33
3.93
4.34
4.64
4.81
4.82
4.70
4.56
4.49
4.57
4.79
5.06
5.31
5.46
5.51
5.48
5.42
5.38
5.36
5.34
5.26
5.04
4.64
4.09
3.53
3.09
2.88
2.86
2.87
2.68
2.14
1.25
0.21
-0.75
-1.42
-1.79
-1.96
-2.12
-2.41
-2.89
-3.45
-3.99
-4.45
-4.82
-5.22
-5.73
-6.42
-7.28
-8.27
-9.35
-10.46
-11.52
-12.38
-12.86
-12.75
-11.94
-10.43
-8.39
-6.09
-3.82
-1.82
-0.22
0.95
1.76
2.29
2.70
3.09
3.51
3.95
4.37
4.69
4.88
4.93
4.90
4.81
4.73
4.66
4.61
4.56
4.50
4.42
4.31
4.14
3.88
3.50
2.94
2.23
1.43
0.70
0.15
-0.13
-0.20
-0.22
-0.34
-0.69
-1.21
-1.78
-2.26
-2.58
-2.82
-3.10
-3.53
-4.18
-4.99
-5.89
-6.82
-7.68
-8.36
-8.68
-8.48
-7.68
-6.34
-4.64
-2.86
-1.21
0.20
1.39
2.44
3.40
4.21
4.80
5.10
5.12
4.99
4.89
4.97
5.29
5.80
6.36
6.82
7.06
7.05
6.83
6.49
6.13
5.80
5.49
5.16
4.78
4.34
3.85
3.39
2.99
2.67
2.38
2.02
1.52
0.85
0.08
-0.69
-1.33
-1.76
-1.99
-2.12
-2.30
-2.70
-3.42
-4.47
-5.73
-7.04
-8.16
-8.90
-9.09
-8.66
-7.62
-6.08
-4.18
-2.16
-0.25
1.40
2.67
3.55
4.09
4.34
4.39
4.31
4.23
4.30
4.60
5.14
5.83
6.48
6.94
7.12
7.03
6.79
6.52
6.32
6.20
6.07
5.85
5.43
4.82
4.10
3.41
2.90
2.65
2.64
2.74
2.77
2.57
2.06
1.31
0.45
-0.35
-0.97
-1.38
-1.64
-1.85
-2.12
-2.54
-3.14
-3.90
-4.78
-5.69
-6.56
-7.31
-7.89
-8.31
-8.68
-9.13
-9.76
-10.57
-11.42
-12.05
-12.21
-11.75
-10.63
-8.99
-7.03
-4.98
-3.01
-1.23
0.29
1.52
2.44
3.09
3.51
3.76
3.92
4.06
4.22
4.44
4.70
4.94
5.10
5.15
5.11
5.07
5.10
5.20
5.30
5.30
5.11
4.72
4.19
3.64
3.16
2.78
2.47
2.18
1.84
1.45
1.03
0.65
0.32
0.05
-0.22
-0.55
-1.02
-1.69
-2.52
-3.43
-4.29
-4.98
-5.44
-5.68
-5.81
-5.93
-6.15
-6.55
-7.14
-7.88
-8.64
-9.26
-9.54
-9.34
-8.59
-7.34
-5.74
-3.98
-2.23
-0.62
0.77
1.90
2.74
3.29
3.58
3.69
3.74
3.82
3.95
4.11
4.28
4.45
4.65
4.89
5.15
5.35
5.34
5.03
4.44
3.71
3.05
2.64
2.51
2.54
2.53
2.31
1.83
1.18
0.53
0.03
-0.30
-0.53
-0.77
-1.12
-1.63
-2.26
-2.99
-3.79
-4.69
-5.68
-6.72
-7.72
-8.59
-9.25
-9.65
-9.78
-9.62
-9.17
-8.38
-7.26
-5.88
-4.38
-2.93
-1.65
-0.60
0.27
1.05
1.85
2.69
3.57
4.40
5.16
5.85
6.51
7.23
8.01
8.81
9.57
10.16
10.56
10.74
10.75
10.60
10.30
9.83
9.20
8.46
7.67
6.91
6.25
5.71
5.25
4.81
4.31
3.69
2.95
2.12
1.33
0.67
0.22
-0.02
-0.14
-0.28
-0.55
-1.03
-1.70
-2.50
-3.33
-4.15
-4.89
-5.56
-6.19
-6.81
-7.46
-8.16
-8.87
-9.49
-9.87
-9.84
-9.28
-8.12
-6.46
-4.47
-2.41
-0.54
0.95
2.00
2.70
3.20
3.64
4.10
4.56
4.96
5.28
5.50
5.64
5.71
5.69
5.54
5.26
4.91
4.61
4.46
4.53
4.74
4.96
5.03
4.83
4.34
3.63
2.82
2.07
1.47
1.10
0.91
0.81
0.68
0.42
-0.02
-0.59
-1.18
-1.71
-2.14
-2.52
-2.94
-3.48
-4.15
-4.87
-5.55
-6.11
-6.56
-6.96
-7.42
-8.04
-8.82
-9.69
-10.51
-11.14
-11.41
-11.23
-10.53
-9.30
-7.61
-5.62
-3.53
-1.57
0.12
1.43
2.38
3.01
3.41
3.60
3.64
3.54
3.37
3.25
3.28
3.52
3.92
4.38
4.74
4.87
4.78
4.55
4.32
4.18
4.13
4.06
3.80
3.27
2.45
1.48
0.52
-0.29
-0.89
-1.29
-1.56
-1.75
-1.90
-2.01
-2.11
-2.26
-2.52
-2.91
-3.41
-4.00
-4.66
-5.41
-6.26
-7.19
-8.06
-8.61
-8.58
-7.79
-6.28
-4.29
-2.16
-0.22
1.37
2.58
3.47
4.13
4.57
4.76
4.71
4.51
4.30
4.21
4.33
4.59
4.89
5.08
5.11
5.03
4.94
4.92
5.01
5.12
5.16
5.01
4.66
4.13
3.49
2.80
2.10
1.45
0.89
0.45
0.16
-0.01
-0.15
-0.35
-0.69
-1.19
-1.83
-2.56
-3.31
-4.06
-4.79
-5.49
-6.18
-6.88
-7.62
-8.36
-9.04
-9.46
-9.43
-8.81
-7.57
-5.85
-3.90
-1.98
-0.25
1.22
2.42
3.40
4.11
4.55
4.70
4.63
4.49
4.43
4.58
4.93
5.44
5.98
6.46
6.84
7.11
7.27
7.30
7.19
6.92
6.51
6.00
5.42
4.83
4.25
3.72
3.28
2.95
2.69
2.42
2.04
1.47
0.74
-0.07
-0.81
-1.42
-1.89
-2.35
-2.94
-3.75
-4.72
-5.71
-6.52
-7.06
-7.42
-7.80
-8.39
-9.25
-10.20
-10.91
-11.02
-10.34
-8.92
-7.03
-5.00
-3.11
-1.48
-0.11
1.03
1.93
2.57
2.89
2.92
2.80
2.70
2.77
3.06
3.51
3.98
4.31
4.41
4.31
4.11
3.96
3.92
3.99
4.06
4.01
3.78
3.39
2.97
2.61
2.36
2.14
1.84
1.33
0.61
-0.23
-1.02
-1.61
-1.97
-2.17
-2.40
-2.84
-3.55
-4.50
-5.53
-6.51
-7.36
-8.05
-8.57
-8.85
-8.77
-8.15
-6.93
-5.17
-3.12
-1.10
0.63
1.98
3.00
3.83
4.54
5.11
5.48
5.58
5.44
5.21
5.03
5.03
5.21
5.47
5.66
5.68
5.55
5.32
5.06
4.81
4.55
4.26
3.92
3.56
3.21
2.85
2.45
1.91
1.17
0.27
-0.70
-1.61
-2.33
-2.83
-3.16
-3.40
-3.67
-4.04
-4.55
-5.17
-5.85
-6.48
-6.89
-6.94
-6.56
-5.72
-4.51
-3.06
-1.52
-0.01
1.38
2.60
3.60
4.36
4.91
5.27
5.49
5.58
5.54
5.40
5.20
5.05
5.05
5.24
5.57
5.90
6.07
6.01
5.70
5.25
4.73
4.18
3.57
2.90
2.22
1.66
1.30
1.16
1.11
0.96
0.55
-0.18
-1.13
-2.15
-3.06
-3.76
-4.25
-4.60
-4.90
-5.21
-5.59
-6.09
-6.72
-7.49
-8.35
-9.18
-9.80
-10.04
-9.76
-8.94
-7.65
-6.02
-4.20
-2.34
-0.54
1.08
2.40
3.32
3.80
3.92
3.82
3.65
3.55
3.55
3.66
3.86
4.12
4.45
4.80
5.07
5.19
5.09
4.79
4.37
3.93
3.51
3.11
2.68
2.21
1.72
1.29
0.98
0.77
0.58
0.26
-0.29
-1.09
-2.04
-2.99
-3.83
-4.47
-4.94
-5.29
-5.60
-5.91
-6.26
-6.70
-7.27
-7.99
-8.82
-9.63
-10.23
-10.42
-10.03
-9.01
-7.42
-5.45
-3.35
-1.40
0.23
1.46
2.33
2.92
3.31
3.55
3.66
3.66
3.60
3.57
3.62
3.76
3.93
4.05
4.09
4.04
3.91
3.73
3.46
3.09
2.61
2.08
1.57
1.18
0.94
0.82
0.75
0.60
0.32
-0.11
-0.65
-1.21
-1.72
-2.17
-2.57
-2.97
-3.39
-3.83
-4.28
-4.74
-5.25
-5.85
-6.54
-7.16
-7.45
-7.16
-6.15
-4.48
-2.43
-0.35
1.46
2.86
3.84
4.51
4.92
5.12
5.10
4.87
4.51
4.17
4.01
4.13
4.53
5.10
5.69
6.13
6.34
6.33
6.21
6.10
6.07
6.13
6.15
5.97
5.45
4.57
3.43
2.21
1.14
0.32
-0.21
-0.55
-0.81
-1.06
-1.35
-1.71
-2.13
-2.63
-3.18
-3.75
-4.29
-4.78
-5.28
-5.89
-6.73
-7.81
-9.02
-10.09
-10.72
-10.69
-9.91
-8.48
-6.62
-4.59
-2.61
-0.82
0.75
2.08
3.20
4.12
4.84
5.34
5.63
5.76
5.79
5.80
5.87
6.05
6.34
6.71
7.09
7.38
7.53
7.48
7.27
6.93
6.55
6.18
5.82
5.45
5.03
4.56
4.09
3.69
3.37
3.09
2.73
2.19
1.42
0.51
-0.41
-1.19
-1.77
-2.20
-2.60
-3.08
-3.73
-4.53
-5.43
-6.35
-7.28
-8.23
-9.26
-10.33
-11.36
-12.12
-12.40
-12.03
-10.97
-9.35
-7.38
-5.28
-3.22
-1.31
0.37
1.75
2.74
3.27
3.36
3.13
2.76
2.47
2.42
2.67
3.16
3.79
4.43
4.98
5.39
5.64
5.71
5.60
5.25
4.67
3.89
3.02
2.23
1.64
1.29
1.10
0.95
0.71
0.32
-0.21
-0.85
-1.53
-2.21
-2.85
-3.43
-3.90
-4.28
-4.61
-4.98
-5.52
-6.30
-7.33
-8.52
-9.65
-10.48
-10.75
-10.32
-9.19
-7.55
-5.66
-3.82
-2.23
-0.94
0.10
1.01
1.84
2.58
3.16
3.50
3.63
3.63
3.67
3.85
4.17
4.56
4.88
5.02
5.00
4.88
4.76
4.71
4.71
4.68
4.55
4.26
3.80
3.24
2.64
2.09
1.63
1.27
0.98
0.70
0.39
0.03
-0.38
-0.81
-1.27
-1.78
-2.37
-3.05
-3.82
-4.65
-5.52
-6.33
-6.99
-7.33
-7.15
-6.33
-4.88
-2.94
-0.81
1.22
2.90
4.11
4.89
5.35
5.63
5.84
6.03
6.21
6.34
6.41
6.41
6.38
6.36
6.36
6.35
6.29
6.14
5.91
5.65
5.43
5.25
5.12
4.94
4.66
4.22
3.63
2.95
2.25
1.60
1.01
0.46
-0.09
-0.69
-1.33
-1.98
-2.60
-3.17
-3.71
-4.29
-4.95
-5.69
-6.50
-7.31
-8.13
-8.98
-9.89
-10.83
-11.65
-12.13
-12.00
-11.10
-9.43
-7.18
-4.61
-2.04
0.27
2.16
3.55
4.48
5.02
5.32
5.52
5.73
6.01
6.36
6.71
7.03
7.31
7.54
7.74
7.91
8.02
8.04
7.94
7.74
7.48
7.21
6.95
6.67
6.27
5.67
4.82
3.79
2.70
1.75
1.07
0.66
0.42
0.17
-0.26
-0.93
-1.81
-2.77
-3.64
-4.31
-4.75
-5.00
-5.20
-5.49
-6.03
-6.90
-8.12
-9.56
-11.02
-12.25
-12.99
-13.06
-12.40
-11.04
-9.14
-6.90
-4.58
-2.40
-0.49
1.09
2.33
3.25
3.89
4.24
4.32
4.20
4.03
3.92
3.98
4.20
4.52
4.83
5.04
5.12
5.05
4.88
4.62
4.30
3.91
3.43
2.86
2.19
1.43
0.62
-0.16
-0.83
-1.36
-1.73
-2.01
-2.30
-2.65
-3.12
-3.67
-4.29
-4.91
-5.51
-6.09
-6.68
-7.31
-8.02
-8.78
-9.48
-9.97
-10.06
-9.63
-8.64
-7.13
-5.22
-3.09
-0.95
1.02
2.63
3.74
4.29
4.34
4.00
3.49
2.98
2.61
2.43
2.46
2.69
3.10
3.62
4.16
4.57
4.72
4.57
4.13
3.51
2.83
2.15
1.50
0.82
0.06
-0.77
-1.63
-2.45
-3.17
-3.75
-4.23
-4.64
-5.03
-5.46
-5.94
-6.50
-7.15
-7.83
-8.45
-8.87
-8.93
-8.47
-7.39
-5.68
-3.47
-0.93
1.71
4.28
6.61
8.57
10.07
10.99
11.30
11.01
10.29
9.36
8.47
7.82
7.49
7.45
7.63
7.91
8.19
8.38
8.37
8.12
7.64
7.00
6.34
5.78
5.41
5.18
5.01
4.75
4.30
3.62
2.76
1.79
0.81
-0.12
-0.96
-1.71
-2.38
-2.98
-3.57
-4.18
-4.87
-5.68
-6.66
-7.80
-9.06
-10.28
-11.27
-11.81
-11.70
-10.85
-9.28
-7.15
-4.69
-2.15
0.24
2.29
3.91
5.02
5.60
5.73
5.55
5.25
5.02
4.97
5.10
5.35
5.60
5.74
5.75
5.64
5.48
5.34
5.26
5.27
5.31
5.28
5.08
4.61
3.87
2.93
1.91
0.98
0.22
-0.36
-0.86
-1.39
-2.03
-2.82
-3.69
-4.51
-5.18
-5.64
-5.94
-6.26
-6.80
-7.66
-8.84
-10.13
-11.25
-11.92
-12.01
-11.50
-10.47
-9.02
-7.23
-5.21
-3.05
-0.96
0.87
2.27
3.15
3.55
3.61
3.49
3.33
3.24
3.25
3.35
3.47
3.53
3.48
3.32
3.09
2.89
2.82
2.92
3.12
3.31
3.34
3.12
2.67
2.08
1.45
0.89
0.40
-0.06
-0.55
-1.15
-1.90
-2.76
-3.71
-4.67
-5.57
-6.35
-7.02
-7.64
-8.33
-9.16
-10.07
-10.88
-11.32
-11.16
-10.28
-8.76
-6.84
-4.81
-2.95
-1.43
-0.33
0.37
0.75
0.92
0.96
0.95
0.93
0.92
0.96
1.08
1.34
1.76
2.35
3.10
3.99
4.94
5.87
6.69
7.29
7.58
7.56
7.24
6.70
6.03
5.31
4.57
3.84
3.11
2.38
1.63
0.91
0.26
-0.29
-0.76
-1.25
-1.91
-2.83
-4.01
-5.26
-6.28
-6.76
-6.50
-5.50
-3.94
-2.10
-0.27
1.36
2.67
3.62
4.19
4.37
4.19
3.72
3.12
2.55
2.22
2.26
2.67
3.40
4.30
5.21
6.03
6.69
7.21
7.57
7.76
7.75
7.52
7.09
6.52
5.88
5.22
4.55
3.83
3.02
2.09
1.06
-0.04
-1.13
-2.16
-3.04
-3.71
-4.21
-4.61
-5.09
-5.83
-6.92
-8.27
-9.63
-10.64
-10.97
-10.44
-9.08
-7.07
-4.75
-2.41
-0.29
1.49
2.91
4.01
4.83
5.38
5.68
5.74
5.62
5.46
5.38
5.48
5.76
6.12
6.42
6.58
6.55
6.38
6.14
5.87
5.56
5.19
4.74
4.20
3.58
2.92
2.25
1.60
1.01
0.47
-0.06
-0.66
-1.36
-2.15
-2.98
-3.76
-4.44
-5.07
-5.71
-6.44
-7.27
-8.19
-9.15
-10.13
-11.09
-11.90
-12.33
-12.09
-10.95
-8.88
-6.13
-3.15
-0.43
1.68
3.04
3.76
4.03
4.02
3.86
3.58
3.23
2.92
2.78
2.90
3.32
3.98
4.71
5.30
5.57
5.43
4.89
4.08
3.18
2.36
1.75
1.37
1.15
0.99
0.82
0.56
0.20
-0.28
-0.90
-1.65
-2.48
-3.29
-3.96
-4.46
-4.80
-5.13
-5.59
-6.29
-7.23
-8.24
-9.07
-9.47
-9.23
-8.30
-6.80
-4.96
-3.08
-1.35
0.14
1.39
2.46
3.33
3.93
4.14
3.90
3.32
2.62
2.08
1.90
2.10
2.58
3.14
3.59
3.84
3.92
3.91
3.88
3.86
3.83
3.73
3.47
3.01
2.36
1.59
0.80
0.10
-0.45
-0.85
-1.22
-1.63
-2.19
-2.92
-3.77
-4.67
-5.54
-6.33
-6.97
-7.35
-7.34
-6.80
-5.66
-3.99
-1.97
0.14
2.06
3.61
4.70
5.35
5.65
5.71
5.63
5.51
5.39
5.32
5.34
5.47
5.69
5.98
6.24
6.37
6.30
6.01
5.56
5.04
4.53
4.06
3.59
3.06
2.43
1.73
1.06
0.46
-0.05
-0.55
-1.14
-1.86
-2.63
-3.35
-3.88
-4.23
-4.51
-4.93
-5.65
-6.74
-8.13
-9.65
-11.11
-12.34
-13.19
-13.50
-13.14
-12.03
-10.22
-7.91
-5.42
-3.07
-1.08
0.48
1.72
2.75
3.70
4.62
5.53
6.38
7.15
7.83
8.43
8.93
9.35
9.68
9.90
10.01
9.98
9.78
9.39
8.82
8.09
7.26
6.37
5.43
4.45
3.44
2.50
1.69
1.11
0.70
0.35
-0.11
-0.83
-1.82
-2.97
-4.07
-5.01
-5.77
-6.46
-7.26
-8.26
-9.43
-10.60
-11.53
-11.96
-11.73
-10.79
-9.18
-7.05
-4.59
-2.07
0.29
2.27
3.75
4.69
5.14
5.19
4.99
4.69
4.45
4.39
4.57
4.94
5.41
5.82
6.05
6.00
5.68
5.13
4.48
3.84
3.26
2.77
2.31
1.84
1.29
0.67
0.04
-0.57
-1.11
-1.59
-2.03
-2.49
-2.97
-3.44
-3.85
-4.18
-4.42
-4.64
-4.94
-5.44
-6.22
-7.30
-8.59
-9.86
-10.79
-11.06
-10.43
-8.88
-6.58
-3.88
-1.18
1.18
2.95
4.08
4.64
4.77
4.62
4.34
4.04
3.81
3.76
3.94
4.35
4.89
5.38
5.63
5.51
5.03
4.32
3.59
3.02
2.68
2.51
2.39
2.18
1.82
1.30
0.68
0.03
-0.61
-1.23
-1.84
-2.43
-2.97
-3.41
-3.70
-3.88
-4.06
-4.39
-4.99
-5.86
-6.86
-7.72
-8.15
-7.91
-6.93
-5.28
-3.18
-0.91
1.27
3.15
4.58
5.49
5.90
5.88
5.57
5.15
4.76
4.52
4.45
4.51
4.64
4.79
4.93
5.09
5.29
5.53
5.75
5.86
5.75
5.36
4.69
3.81
2.86
2.01
1.36
0.96
0.75
0.61
0.44
0.13
-0.36
-1.01
-1.78
-2.59
-3.35
-4.04
-4.67
-5.32
-6.06
-6.96
-7.98
-9.03
-9.89
-10.34
-10.19
-9.32
-7.77
-5.68
-3.30
-0.88
1.31
3.11
4.46
5.35
5.85
6.05
6.03
5.91
5.79
5.76
5.86
6.10
6.43
6.73
6.89
6.80
6.45
5.89
5.28
4.77
4.41
4.18
3.94
3.54
2.91
2.09
1.24
0.53
0.07
-0.16
-0.28
-0.43
-0.74
-1.24
-1.93
-2.80
-3.79
-4.86
-5.93
-6.87
-7.60
-8.12
-8.57
-9.13
-10.00
-11.15
-12.35
-13.19
-13.22
-12.17
-10.05
-7.16
-3.96
-0.88
1.74
3.75
5.12
5.86
6.06
5.78
5.17
4.45
3.85
3.55
3.65
4.10
4.74
5.38
5.85
6.07
6.08
5.95
5.78
5.59
5.32
4.90
4.27
3.46
2.56
1.69
0.88
0.15
-0.56
-1.26
-1.93
-2.50
-2.93
-3.24
-3.51
-3.83
-4.23
-4.67
-5.12
-5.60
-6.24
-7.22
-8.62
-10.29
-11.89
-12.93
-13.06
-12.12
-10.26
-7.84
-5.25
-2.77
-0.53
1.42
3.05
4.28
5.03
5.28
5.13
4.77
4.42
4.22
4.18
4.26
4.40
4.62
4.94
5.33
5.70
5.87
5.71
5.16
4.35
3.46
2.67
2.06
1.59
1.18
0.76
0.31
-0.13
-0.53
-0.88
-1.23
-1.64
-2.14
-2.73
-3.38
-4.06
-4.77
-5.53
-6.40
-7.39
-8.41
-9.29
-9.78
-9.61
-8.63
-6.88
-4.58
-2.08
0.26
2.22
3.71
4.76
5.43
5.75
5.75
5.51
5.18
4.97
5.02
5.35
5.88
6.42
6.84
7.08
7.15
7.11
6.99
6.76
6.39
5.92
5.35
4.73
4.06
3.35
2.61
1.91
1.35
0.96
0.70
0.42
-0.04
-0.78
-1.75
-2.79
-3.70
-4.39
-4.89
-5.33
-5.89
-6.68
-7.71
-8.84
-9.90
-10.62
-10.80
-10.28
-9.03
-7.12
-4.73
-2.11
0.50
2.84
4.74
6.05
6.75
6.90
6.69
6.37
6.12
6.08
6.24
6.53
6.86
7.16
7.40
7.53
7.48
7.20
6.66
5.93
5.12
4.36
3.68
3.08
2.48
1.85
1.19
0.61
0.15
-0.18
-0.44
-0.76
-1.21
-1.83
-2.54
-3.27
-3.93
-4.52
-5.06
-5.61
-6.24
-7.01
-7.97
-9.09
-10.33
-11.54
-12.51
-12.96
-12.66
-11.49
-9.47
-6.85
-3.95
-1.15
1.27
3.19
4.59
5.50
5.98
6.07
5.81
5.33
4.81
4.48
4.45
4.74
5.24
5.75
6.08
6.15
5.94
5.53
5.01
4.45
3.90
3.36
2.84
2.29
1.67
0.97
0.22
-0.51
-1.11
-1.58
-1.96
-2.38
-2.95
-3.67
-4.45
-5.12
-5.55
-5.74
-5.81
-6.01
-6.56
-7.52
-8.75
-9.94
-10.69
-10.66
-9.68
-7.82
-5.36
-2.67
-0.13
2.00
3.63
4.75
5.42
5.70
5.65
5.37
4.97
4.62
4.43
4.48
4.72
5.07
5.42
5.70
5.87
5.94
5.89
5.70
5.32
4.74
4.02
3.31
2.75
2.43
2.36
2.41
2.43
2.35
2.18
2.01
1.97
2.08
2.24
2.28
2.05
1.51
0.75
0.01
-0.47
-0.49
0.05
1.16
2.78
4.84
7.27
10.03
13.09
16.45
20.06
23.86
27.73
31.43
34.57
36.59
36.84
34.77
30.15
23.22
14.67
5.50
-3.34
-11.13
-17.56
-22.53
-26.05
-28.03
-28.34
-27.03
-24.40
-21.13
-17.99
-15.59
-14.14
-13.40
-12.92
-12.29
-11.33
-10.15
-9.04
-8.29
-7.99
-8.09
-8.42
-8.80
-9.21
-9.73
-10.58
-11.94
-13.87
-16.13
-18.24
-19.54
-19.48
-17.83
-14.81
-11.00
-7.10
-3.63
-0.79
1.53
3.53
5.33
6.86
7.95
8.46
8.48
8.24
8.07
8.20
8.62
9.17
9.61
9.72
9.45
8.81
7.89
6.80
5.64
4.53
3.59
2.89
2.45
2.16
1.91
1.60
1.19
0.72
0.23
-0.29
-0.87
-1.59
-2.44
-3.37
-4.28
-5.11
-5.91
-6.78
-7.84
-9.11
-10.50
-11.85
-12.94
-13.61
-13.72
-13.15
-11.84
-9.79
-7.13
-4.16
-1.30
1.03
2.57
3.28
3.34
3.08
2.77
2.61
2.63
2.78
3.01
3.26
3.52
3.81
4.13
4.48
4.81
5.05
5.14
5.03
4.71
4.22
3.59
2.88
2.12
1.29
0.40
-0.53
-1.43
-2.22
-2.84
-3.31
-3.71
-4.16
-4.74
-5.50
-6.41
-7.40
-8.45
-9.60
-10.86
-12.21
-13.50
-14.49
-14.88
-14.47
-13.23
-11.34
-9.09
-6.76
-4.58
-2.62
-0.94
0.41
1.30
1.63
1.37
0.63
-0.31
-1.10
-1.48
-1.35
-0.79
-0.02
0.71
1.21
1.40
1.32
1.08
0.79
0.57
0.50
0.61
0.90
1.36
1.95
2.63
3.42
4.34
5.50
7.00
8.86
10.95
12.97
14.43
14.88
13.98
11.69
8.30
4.29
0.23
-3.41
-6.39
-8.67
-10.37
-11.66
-12.60
-13.17
-13.31
-13.01
-12.38
-11.72
-11.42
-11.81
-13.07
-15.12
-17.65
-20.25
-22.48
-23.96
-24.47
-23.82
-21.91
-18.76
-14.52
-9.55
-4.36
0.51
4.61
7.71
9.82
11.19
12.12
12.89
13.69
14.55
15.45
16.29
16.98
17.45
17.62
17.39
16.66
15.34
13.42
11.06
8.55
6.25
4.53
3.59
3.49
4.12
5.28
6.71
8.17
9.45
10.38
10.92
11.13
11.14
11.13
11.24
11.47
11.76
12.05
12.27
12.43
12.53
12.58
12.54
12.34
11.92
11.27
10.39
9.34
8.17
6.96
5.78
4.67
3.65
2.70
1.81
0.99
0.28
-0.30
-0.76
-1.20
-1.75
-2.51
-3.49
-4.64
-5.88
-7.15
-8.47
-9.84
-11.22
-12.46
-13.33
-13.61
-13.13
-11.87
-9.91
-7.44
-4.67
-1.87
0.75
3.02
4.87
6.27
7.27
7.89
8.15
8.10
7.81
7.41
7.04
6.79
6.69
6.68
6.67
6.62
6.51
6.34
6.10
5.77
5.28
4.61
3.79
2.94
2.17
1.61
1.28
1.12
0.97
0.66
0.11
-0.70
-1.64
-2.57
-3.39
-4.13
-4.88
-5.75
-6.83
-8.12
-9.51
-10.84
-11.87
-12.35
-12.06
-10.88
-8.89
-6.37
-3.69
-1.23
0.83
2.43
3.64
4.50
4.96
4.96
4.47
3.63
2.71
2.01
1.76
1.98
2.52
3.16
3.69
4.00
4.08
3.93
3.61
3.14
2.57
1.96
1.35
0.81
0.35
-0.01
-0.29
-0.56
-0.84
-1.21
-1.66
-2.22
-2.85
-3.52
-4.21
-4.95
-5.82
-6.89
-8.11
-9.31
-10.20
-10.43
-9.81
-8.32
-6.16
-3.64
-1.14
1.10
2.96
4.38
5.37
5.94
6.10
5.92
5.53
5.10
4.81
4.78
5.03
5.45
5.85
6.03
5.85
5.33
4.62
3.90
3.39
3.14
3.11
3.16
3.11
2.83
2.31
1.61
0.84
0.10
-0.53
-1.02
-1.42
-1.83
-2.33
-2.99
-3.80
-4.70
-5.57
-6.28
-6.78
-7.11
-7.42
-7.94
-8.81
-10.04
-11.44
-12.60
-13.07
-12.52
-10.82
-8.18
-5.00
-1.73
1.26
3.76
5.69
7.04
7.81
8.00
7.69
7.05
6.38
5.93
5.89
6.24
6.80
7.31
7.57
7.49
7.15
6.68
6.21
5.83
5.54
5.31
5.08
4.81
4.47
4.02
3.44
2.73
1.93
1.14
0.45
-0.07
-0.43
-0.73
-1.10
-1.66
-2.45
-3.43
-4.47
-5.46
-6.31
-7.04
-7.69
-8.38
-9.18
-10.15
-11.27
-12.46
-13.60
-14.51
-14.97
-14.79
-13.81
-11.99
-9.49
-6.57
-3.57
-0.83
1.42
3.06
4.09
4.62
4.76
4.66
4.45
4.22
4.03
3.91
3.89
3.93
4.02
4.14
4.26
4.38
4.50
4.62
4.74
4.82
4.81
4.61
4.16
3.47
2.58
1.61
0.69
-0.06
-0.60
-0.95
-1.20
-1.49
-1.92
-2.52
-3.22
-3.93
-4.54
-5.03
-5.46
-5.96
-6.65
-7.62
-8.83
-10.15
-11.39
-12.31
-12.68
-12.31
-11.12
-9.14
-6.57
-3.71
-0.91
1.54
3.43
4.73
5.47
5.79
5.82
5.68
5.46
5.25
5.13
5.17
5.43
5.84
6.28
6.62
6.74
6.68
6.53
6.41
6.35
6.25
5.96
5.37
4.51
3.58
2.78
2.23
1.93
1.71
1.43
1.00
0.43
-0.20
-0.83
-1.44
-2.08
-2.76
-3.48
-4.23
-4.99
-5.79
-6.68
-7.71
-8.80
-9.79
-10.45
-10.46
-9.64
-7.89
-5.35
-2.33
0.75
3.46
5.46
6.63
6.99
6.75
6.19
5.56
5.09
4.90
5.02
5.40
5.94
6.50
7.01
7.40
7.63
7.68
7.54
7.22
6.76
6.25
5.76
5.30
4.85
4.31
3.60
2.72
1.74
0.83
0.15
-0.22
-0.36
-0.43
-0.65
-1.13
-1.87
-2.74
-3.59
-4.29
-4.80
-5.18
-5.54
-5.99
-6.62
-7.50
-8.65
-10.05
-11.50
-12.73
-13.38
-13.15
-11.94
-9.82
-7.07
-4.06
-1.11
1.48
3.58
5.11
6.13
6.71
6.97
7.03
6.97
6.88
6.86
6.97
7.22
7.52
7.74
7.76
7.57
7.26
6.99
6.88
6.93
7.03
7.01
6.75
6.23
5.55
4.82
4.10
3.44
2.83
2.26
1.70
1.14
0.55
-0.10
-0.81
-1.57
-2.36
-3.14
-3.90
-4.62
-5.31
-5.95
-6.57
-7.19
-7.89
-8.72
-9.71
-10.77
-11.67
-12.12
-11.83
-10.66
-8.67
-6.13
-3.44
-0.98
1.02
2.52
3.59
4.30
4.70
4.77
4.52
4.04
3.53
3.23
3.27
3.65
4.20
4.68
4.94
4.95
4.84
4.77
4.78
4.79
4.62
4.15
3.37
2.44
1.55
0.84
0.32
-0.10
-0.57
-1.17
-1.86
-2.61
-3.35
-4.06
-4.75
-5.42
-6.02
-6.54
-6.99
-7.47
-8.07
-8.88
-9.86
-10.83
-11.49
-11.52
-10.72
-9.08
-6.82
-4.28
-1.86
0.17
1.67
2.66
3.23
3.48
3.49
3.34
3.10
2.85
2.70
2.69
2.87
3.21
3.68
4.20
4.68
5.03
5.18
5.12
4.89
4.57
4.22
3.85
3.41
2.87
2.19
1.41
0.64
-0.00
-0.45
-0.69
-0.78
-0.85
-1.05
-1.49
-2.18
-3.08
-4.04
-4.96
-5.72
-6.28
-6.61
-6.66
-6.36
-5.61
-4.34
-2.59
-0.55
1.50
3.26
4.56
5.34
5.70
5.77
5.69
5.58
5.50
5.53
5.73
6.08
6.55
7.00
7.27
7.26
6.96
6.47
5.94
5.50
5.19
4.95
4.67
4.24
3.60
2.81
1.97
1.22
0.60
0.11
-0.31
-0.77
-1.31
-1.96
-2.69
-3.46
-4.23
-5.01
-5.77
-6.53
-7.32
-8.15
-9.02
-9.85
-10.48
-10.69
-10.31
-9.23
-7.50
-5.29
-2.84
-0.37
1.93
3.91
5.43
6.41
6.81
6.71
6.31
5.87
5.60
5.63
5.91
6.31
6.68
6.91
6.96
6.82
6.54
6.12
5.57
4.92
4.22
3.51
2.82
2.14
1.48
0.88
0.40
0.09
-0.08
-0.23
-0.53
-1.12
-2.00
-3.04
-4.04
-4.83
-5.36
-5.70
-6.01
-6.43
-7.04
-7.88
-8.90
-10.05
-11.19
-12.07
-12.43
-12.01
-10.69
-8.55
-5.85
-2.98
-0.32
1.86
3.39
4.26
4.52
4.30
3.79
3.22
2.78
2.61
2.73
3.06
3.47
3.87
4.21
4.51
4.78
4.97
5.00
4.79
4.31
3.62
2.85
2.12
1.45
0.81
0.14
-0.59
-1.35
-2.04
-2.58
-2.95
-3.19
-3.41
-3.70
-4.13
-4.72
-5.44
-6.25
-7.13
-8.03
-8.91
-9.68
-10.20
-10.32
-9.90
-8.89
-7.36
-5.47
-3.41
-1.39
0.41
1.86
2.91
3.53
3.75
3.67
3.43
3.19
3.07
3.14
3.42
3.89
4.48
5.12
5.67
6.03
6.13
5.97
5.62
5.21
4.81
4.43
4.03
3.57
3.03
2.45
1.88
1.36
0.85
0.35
-0.17
-0.67
-1.11
-1.51
-1.92
-2.45
-3.18
-4.11
-5.07
-5.82
-6.09
-5.70
-4.59
-2.86
-0.74
1.51
3.61
5.35
6.61
7.32
7.52
7.31
6.79
6.09
5.33
4.65
4.17
3.98
4.14
4.60
5.26
5.93
6.41
6.56
6.31
5.69
4.86
4.01
3.33
2.91
2.71
2.62
2.48
2.17
1.63
0.90
0.04
-0.87
-1.78
-2.65
-3.39
-3.91
-4.18
-4.20
-4.14
-4.17
-4.51
-5.28
-6.44
-7.80
-9.01
-9.67
-9.47
-8.29
-6.23
-3.61
-0.82
1.79
4.00
5.69
6.89
7.62
7.93
7.90
7.65
7.31
7.05
6.93
6.91
6.87
6.72
6.39
5.94
5.45
5.00
4.61
4.28
3.96
3.62
3.27
2.92
2.56
2.14
1.58
0.85
-0.04
-1.03
-2.02
-2.92
-3.68
-4.30
-4.82
-5.27
-5.71
-6.14
-6.57
-7.01
-7.51
-8.14
-8.98
-10.00
-11.07
-11.92
-12.26
-11.82
-10.53
-8.52
-6.09
-3.60
-1.35
0.49
1.87
2.84
3.44
3.74
3.76
3.59
3.33
3.11
3.06
3.22
3.54
3.88
4.07
4.04
3.81
3.52
3.32
3.29
3.38
3.43
3.27
2.81
2.06
1.14
0.20
-0.62
-1.24
-1.66
-1.92
-2.08
-2.23
-2.44
-2.79
-3.32
-4.01
-4.82
-5.69
-6.56
-7.44
-8.34
-9.26
-10.13
-10.74
-10.85
-10.20
-8.73
-6.59
-4.13
-1.75
0.22
1.62
2.48
2.92
3.05
2.94
2.64
2.26
1.94
1.88
2.18
2.82
3.62
4.36
4.86
5.03
4.93
4.71
4.51
4.42
4.44
4.46
4.37
4.10
3.63
3.04
2.41
1.83
1.30
0.81
0.33
-0.14
-0.59
-0.99
-1.37
-1.76
-2.25
-2.92
-3.81
-4.87
-5.99
-6.99
-7.64
-7.75
-7.17
-5.88
-4.00
-1.80
0.41
2.32
3.74
4.58
4.89
4.81
4.53
4.22
4.04
4.07
4.26
4.55
4.80
4.91
4.87
4.73
4.57
4.47
4.46
4.49
4.47
4.33
4.02
3.54
2.95
2.28
1.57
0.85
0.15
-0.51
-1.07
-1.53
-1.93
-2.34
-2.81
-3.37
-3.98
-4.56
-5.04
-5.40
-5.72
-6.11
-6.69
-7.52
-8.60
-9.86
-11.13
-12.14
-12.58
-12.15
-10.72
-8.38
-5.48
-2.49
0.15
2.21
3.65
4.60
5.19
5.50
5.56
5.39
5.10
4.85
4.84
5.13
5.68
6.31
6.85
7.14
7.18
7.03
6.76
6.43
6.07
5.67
5.27
4.88
4.52
4.19
3.81
3.33
2.72
2.05
1.39
0.80
0.28
-0.27
-0.95
-1.80
-2.79
-3.76
-4.56
-5.15
-5.58
-6.02
-6.59
-7.38
-8.35
-9.40
-10.44
-11.35
-11.97
-12.10
-11.49
-10.02
-7.72
-4.89
-1.99
0.53
2.34
3.37
3.77
3.77
3.58
3.32
3.04
2.76
2.56
2.51
2.67
3.05
3.55
4.04
4.38
4.47
4.34
4.06
3.74
3.46
3.21
2.94
2.52
1.90
1.11
0.27
-0.47
-1.03
-1.40
-1.69
-2.06
-2.58
-3.23
-3.92
-4.50
-4.91
-5.17
-5.42
-5.80
-6.43
-7.36
-8.53
-9.81
-11.03
-11.93
-12.29
-11.90
-10.71
-8.81
-6.45
-3.97
-1.71
0.13
1.44
2.28
2.75
2.98
3.04
3.00
2.91
2.84
2.85
2.97
3.20
3.47
3.68
3.77
3.73
3.58
3.40
3.24
3.10
2.93
2.67
2.29
1.80
1.24
0.70
0.28
0.05
0.05
0.25
0.55
0.83
0.93
0.77
0.35
-0.27
-0.97
-1.68
-2.37
-3.10
-3.92
-4.83
-5.71
-6.33
-6.45
-5.88
-4.61
-2.80
-0.71
1.37
3.25
4.85
6.15
7.15
7.80
8.05
7.89
7.40
6.76
6.17
5.77
5.62
5.69
5.87
6.05
6.19
6.27
6.27
6.21
6.06
5.82
5.49
5.11
4.69
4.23
3.72
3.18
2.63
2.11
1.66
1.26
0.82
0.25
-0.46
-1.26
-1.99
-2.52
-2.80
-2.89
-2.94
-3.11
-3.45
-3.99
-4.70
-5.60
-6.73
-8.09
-9.58
-10.91
-11.72
-11.67
-10.62
-8.69
-6.19
-3.57
-1.20
0.75
2.29
3.55
4.64
5.60
6.39
6.91
7.11
7.05
6.87
6.73
6.77
6.98
7.32
7.64
7.84
7.87
7.78
7.65
7.55
7.46
7.35
7.11
6.69
6.05
5.26
4.40
3.58
2.87
2.32
1.92
1.62
1.29
0.81
0.12
-0.76
-1.72
-2.61
-3.31
-3.81
-4.18
-4.54
-5.01
-5.60
-6.32
-7.16
-8.12
-9.22
-10.40
-11.52
-12.33
-12.56
-12.04
-10.73
-8.79
-6.46
-4.02
-1.68
0.42
2.20
3.59
4.52
4.97
4.98
4.70
4.32
4.07
4.05
4.28
4.63
4.97
5.16
5.21
5.15
5.09
5.05
4.99
4.80
4.43
3.84
3.10
2.29
1.51
0.83
0.32
0.02
-0.11
-0.14
-0.22
-0.50
-1.07
-1.87
-2.71
-3.39
-3.80
-4.02
-4.27
-4.84
-5.87
-7.31
-8.95
-10.43
-11.46
-11.81
-11.39
-10.24
-8.52
-6.41
-4.15
-1.96
-0.02
1.56
2.75
3.56
4.06
4.28
4.29
4.13
3.90
3.67
3.53
3.49
3.54
3.62
3.70
3.77
3.86
4.00
4.19
4.36
4.43
4.31
3.97
3.46
2.91
2.43
2.12
1.95
1.84
1.66
1.29
0.70
-0.04
-0.79
-1.42
-1.88
-2.20
-2.45
-2.72
-3.03
-3.40
-3.85
-4.43
-5.12
-5.83
-6.33
-6.34
-5.63
-4.19
-2.24
-0.14
1.75
3.25
4.34
5.15
5.82
6.35
6.67
6.67
6.31
5.70
5.07
4.65
4.57
4.81
5.20
5.56
5.74
5.73
5.59
5.37
5.09
4.75
4.30
3.77
3.21
2.69
2.25
1.88
1.53
1.15
0.70
0.21
-0.29
-0.76
-1.20
-1.62
-2.08
-2.61
-3.23
-3.89
-4.53
-5.10
-5.58
-6.05
-6.61
-7.36
-8.30
-9.34
-10.25
-10.79
-10.73
-9.95
-8.48
-6.45
-4.08
-1.62
0.71
2.73
4.29
5.34
5.87
5.97
5.78
5.47
5.18
5.00
4.94
4.95
4.98
4.99
4.96
4.88
4.78
4.65
4.49
4.27
3.98
3.66
3.33
3.00
2.68
2.29
1.78
1.10
0.28
-0.57
-1.29
-1.77
-2.01
-2.10
-2.21
-2.46
-2.91
-3.51
-4.17
-4.85
-5.53
-6.29
-7.15
-8.12
-9.13
-10.11
-10.97
-11.70
-12.24
-12.50
-12.34
-11.59
-10.20
-8.26
-5.98
-3.66
-1.54
0.21
1.56
2.50
3.06
3.30
3.25
3.01
2.71
2.47
2.39
2.46
2.63
2.81
2.94
3.01
3.04
3.07
3.06
2.98
2.76
2.39
1.86
1.24
0.57
-0.09
-0.73
-1.35
-1.93
-2.44
-2.89
-3.29
-3.69
-4.10
-4.55
-5.00
-5.42
-5.80
-6.21
-6.76
-7.56
-8.63
-9.87
-11.05
-11.88
-12.10
-11.56
-10.30
-8.49
-6.37
-4.16
-2.04
-0.13
1.49
2.79
3.76
4.41
4.81
5.07
5.30
5.59
5.96
6.42
6.90
7.35
7.68
7.86
7.88
7.76
7.53
7.24
6.87
6.43
5.89
5.26
4.57
3.89
3.28
2.78
2.41
2.14
1.93
1.70
1.37
0.91
0.29
-0.44
-1.20
-1.90
-2.53
-3.09
-3.69
-4.40
-5.27
-6.23
-7.11
-7.67
-7.68
-7.05
-5.79
-4.03
-1.98
0.15
2.16
3.88
5.19
6.02
6.37
6.34
6.08
5.78
5.61
5.65
5.92
6.34
6.79
7.15
7.36
7.39
7.31
7.17
7.02
6.86
6.65
6.34
5.86
5.24
4.53
3.86
3.29
2.86
2.48
2.03
1.39
0.52
-0.48
-1.47
-2.27
-2.84
-3.22
-3.55
-3.99
-4.60
-5.39
-6.32
-7.35
-8.42
-9.41
-10.13
-10.33
-9.80
-8.44
-6.32
-3.70
-0.91
1.73
3.97
5.71
6.91
7.58
7.74
7.41
6.69
5.76
4.88
4.29
4.16
4.44
4.96
5.48
5.84
5.97
5.94
5.80
5.58
5.24
4.67
3.85
2.81
1.68
0.63
-0.22
-0.85
-1.29
-1.64
-2.01
-2.47
-3.07
-3.76
-4.50
-5.21
-5.84
-6.38
-6.90
-7.51
-8.27
-9.20
-10.18
-11.03
-11.52
-11.46
-10.73
-9.34
-7.42
-5.17
-2.87
-0.76
0.95
2.18
2.96
3.39
3.59
3.66
3.65
3.58
3.51
3.50
3.64
3.98
4.47
4.99
5.36
5.44
5.19
4.64
3.92
3.20
2.59
2.11
1.73
1.35
0.92
0.40
-0.18
-0.78
-1.39
-2.03
-2.71
-3.44
-4.21
-4.97
-5.72
-6.47
-7.26
-8.07
-8.80
-9.26
-9.25
-8.63
-7.40
-5.69
-3.71
-1.65
0.31
2.04
3.43
4.37
4.84
4.91
4.72
4.50
4.40
4.51
4.82
5.21
5.60
5.92
6.16
6.32
6.39
6.36
6.17
5.80
5.24
4.51
3.68
2.82
2.05
1.41
0.91
0.47
0.01
-0.54
-1.16
-1.75
-2.28
-2.74
-3.25
-3.94
-4.89
-6.04
-7.15
-7.90
-8.03
-7.43
-6.18
-4.50
-2.61
-0.71
1.09
2.74
4.16
5.30
6.06
6.42
6.44
6.22
5.92
5.64
5.42
5.25
5.12
5.02
5.01
5.14
5.41
5.74
5.99
6.01
5.72
5.14
4.39
3.66
3.05
2.60
2.23
1.80
1.21
0.38
-0.67
-1.80
-2.86
-3.68
-4.19
-4.48
-4.71
-5.08
-5.70
-6.55
-7.49
-8.33
-8.88
-9.00
-8.63
-7.69
-6.19
-4.21
-1.96
0.26
2.18
3.64
4.64
5.28
5.66
5.82
5.77
5.55
5.29
5.16
5.31
5.73
6.29
6.77
6.97
6.83
6.37
5.70
4.95
4.20
3.49
2.88
2.39
2.01
1.68
1.31
0.80
0.10
-0.74
-1.61
-2.40
-3.01
-3.45
-3.80
-4.19
-4.68
-5.32
-6.12
-7.03
-8.02
-8.96
-9.67
-9.91
-9.47
-8.30
-6.51
-4.37
-2.20
-0.21
1.45
2.76
3.67
4.14
4.11
3.61
2.80
1.96
1.40
1.30
1.65
2.26
2.87
3.29
3.45
3.38
3.18
2.87
2.44
1.85
1.10
0.30
-0.41
-0.90
-1.21
-1.48
-1.89
-2.54
-3.40
-4.29
-5.05
-5.55
-5.87
-6.16
-6.59
-7.26
-8.10
-8.93
-9.52
-9.68
-9.31
-8.39
-7.00
-5.29
-3.41
-1.53
0.20
1.67
2.79
3.53
3.91
3.97
3.76
3.41
3.04
2.79
2.78
3.05
3.52
4.06
4.47
4.64
4.53
4.18
3.69
3.10
2.44
1.72
0.99
0.32
-0.17
-0.41
-0.43
-0.35
-0.29
-0.41
-0.76
-1.33
-2.02
-2.75
-3.42
-3.99
-4.46
-4.79
-4.94
-4.81
-4.30
-3.35
-2.02
-0.45
1.15
2.64
3.96
5.12
6.17
7.08
7.75
8.07
8.02
7.64
7.10
6.54
6.05
5.65
5.35
5.14
5.01
4.94
4.84
4.63
4.22
3.64
2.98
2.33
1.74
1.20
0.67
0.15
-0.32
-0.72
-1.03
-1.33
-1.71
-2.24
-2.90
-3.59
-4.20
-4.63
-4.89
-5.02
-5.15
-5.38
-5.80
-6.46
-7.36
-8.43
-9.51
-10.35
-10.70
-10.34
-9.24
-7.52
-5.43
-3.24
-1.15
0.73
2.38
3.79
4.95
5.83
6.44
6.83
7.11
7.36
7.57
7.72
7.71
7.55
7.28
6.99
6.72
6.45
6.11
5.66
5.11
4.50
3.90
3.36
2.85
2.34
1.80
1.23
0.65
0.09
-0.47
-1.05
-1.66
-2.34
-3.07
-3.86
-4.70
-5.59
-6.46
-7.26
-7.93
-8.44
-8.85
-9.24
-9.75
-10.45
-11.30
-12.15
-12.76
-12.91
-12.40
-11.17
-9.25
-6.82
-4.14
-1.48
0.91
2.85
4.24
5.02
5.24
4.98
4.41
3.76
3.28
3.11
3.26
3.59
3.90
4.02
3.94
3.73
3.57
3.55
3.66
3.75
3.68
3.34
2.74
1.98
1.19
0.45
-0.23
-0.87
-1.49
-2.08
-2.64
-3.12
-3.56
-4.00
-4.52
-5.15
-5.89
-6.69
-7.51
-8.34
-9.21
-10.10
-10.91
-11.44
-11.41
-10.60
-8.94
-6.58
-3.87
-1.23
0.99
2.63
3.71
4.44
5.02
5.57
6.09
6.49
6.70
6.72
6.65
6.63
6.76
7.05
7.42
7.70
7.76
7.55
7.13
6.61
6.15
5.85
5.71
5.64
5.50
5.19
4.68
4.06
3.43
2.87
2.34
1.76
1.06
0.26
-0.50
-1.07
-1.38
-1.49
-1.62
-2.00
-2.80
-4.02
-5.53
-7.09
-8.48
-9.49
-9.95
-9.76
-8.88
-7.36
-5.36
-3.13
-0.95
0.95
2.41
3.43
4.08
4.48
4.75
4.96
5.12
5.21
5.24
5.22
5.20
5.19
5.17
5.12
4.99
4.84
4.72
4.71
4.83
5.02
5.16
5.14
4.92
4.51
3.99
3.45
2.97
2.59
2.28
1.99
1.65
1.18
0.59
-0.10
-0.79
-1.39
-1.85
-2.19
-2.49
-2.87
-3.42
-4.19
-5.12
-6.16
-7.24
-8.31
-9.34
-10.29
-11.03
-11.37
-11.10
-10.09
-8.35
-6.08
-3.62
-1.32
0.59
2.06
3.14
3.92
4.48
4.81
4.89
4.76
4.50
4.21
4.03
4.03
4.20
4.49
4.80
5.02
5.11
5.03
4.80
4.43
3.94
3.37
2.74
2.09
1.44
0.83
0.27
-0.22
-0.61
-0.92
-1.22
-1.58
-2.06
-2.64
-3.24
-3.76
-4.10
-4.29
-4.45
-4.75
-5.32
-6.22
-7.38
-8.64
-9.87
-10.88
-11.53
-11.66
-11.15
-9.97
-8.19
-6.03
-3.74
-1.59
0.21
1.59
2.56
3.17
3.53
3.68
3.67
3.52
3.29
3.08
2.94
2.90
2.94
2.97
2.94
2.83
2.72
2.68
2.75
2.89
2.96
2.83
2.41
1.73
0.94
0.21
-0.31
-0.58
-0.65
-0.61
-0.57
-0.62
-0.77
-1.05
-1.46
-2.01
-2.72
-3.57
-4.50
-5.45
-6.35
-7.16
-7.83
-8.26
-8.33
-7.92
-6.94
-5.41
-3.47
-1.32
0.82
2.77
4.42
5.72
6.62
7.11
7.21
7.01
6.67
6.31
6.03
5.84
5.71
5.61
5.54
5.51
5.54
5.55
5.47
5.20
4.74
4.10
3.38
2.64
1.94
1.31
0.80
0.46
0.32
0.37
0.52
0.61
0.54
0.23
-0.28
-0.92
-1.60
-2.27
-2.93
-3.62
-4.37
-5.21
-6.16
-7.19
-8.24
-9.19
-9.84
-9.95
-9.27
-7.73
-5.45
-2.76
-0.10
2.16
3.83
4.95
5.65
6.10
6.37
6.46
6.36
6.15
5.99
6.06
6.46
7.14
7.90
8.52
8.87
8.90
8.68
8.30
7.84
7.31
6.70
5.98
5.17
4.31
3.47
2.68
1.95
1.27
0.63
0.04
-0.49
-1.00
-1.51
-2.12
-2.88
-3.82
-4.91
-6.05
-7.16
-8.21
-9.21
-10.20
-11.17
-12.01
-12.50
-12.40
-11.56
-9.99
-7.88
-5.53
-3.22
-1.18
0.51
1.83
2.80
3.42
3.72
3.76
3.60
3.36
3.15
3.05
3.10
3.26
3.47
3.65
3.72
3.59
3.26
2.76
2.19
1.65
1.26
1.06
1.00
0.96
0.80
0.39
-0.31
-1.25
-2.30
-3.34
-4.28
-5.04
-5.62
-6.05
-6.41
-6.81
-7.37
-8.16
-9.13
-10.09
-10.76
-10.88
-10.31
-9.04
-7.22
-5.05
-2.76
-0.59
1.24
2.53
3.16
3.16
2.71
2.10
1.61
1.39
1.49
1.82
2.31
2.86
3.43
3.98
4.42
4.69
4.75
4.65
4.46
4.25
4.05
3.80
3.45
2.94
2.31
1.66
1.06
0.60
0.29
0.11
-0.02
-0.22
-0.61
-1.30
-2.33
-3.58
-4.80
-5.64
-5.79
-5.07
-3.57
-1.55
0.64
2.65
4.24
5.33
5.97
6.25
6.31
6.25
6.08
5.81
5.42
4.95
4.49
4.16
4.03
4.12
4.34
4.57
4.69
4.62
4.38
4.01
3.56
3.06
2.51
1.93
1.33
0.73
0.11
-0.55
-1.25
-1.95
-2.54
-2.92
-3.03
-2.93
-2.76
-2.74
-3.04
-3.70
-4.59
-5.47
-6.03
-6.04
-5.38
-4.07
-2.25
-0.13
2.06
4.07
5.71
6.85
7.45
7.52
7.16
6.52
5.73
4.91
4.19
3.69
3.45
3.47
3.62
3.73
3.67
3.39
2.94
2.50
2.19
2.06
2.03
1.97
1.72
1.18
0.38
-0.59
-1.61
-2.56
-3.37
-4.04
-4.62
-5.17
-5.80
-6.55
-7.42
-8.35
-9.22
-9.84
-10.03
-9.65
-8.65
-7.08
-5.10
-2.94
-0.87
0.88
2.16
2.91
3.17
3.06
2.74
2.38
2.11
2.01
2.06
2.20
2.31
2.27
2.00
1.52
0.90
0.30
-0.15
-0.36
-0.37
-0.29
-0.26
-0.41
-0.80
-1.40
-2.14
-2.93
-3.68
-4.34
-4.88
-5.33
-5.75
-6.21
-6.78
-7.48
-8.26
-8.99
-9.47
-9.51
-8.99
-7.86
-6.19
-4.15
-1.99
0.03
1.66
2.79
3.40
3.58
3.47
3.20
2.89
2.58
2.31
2.12
2.03
2.07
2.21
2.42
2.65
2.89
3.14
3.42
3.67
3.81
3.72
3.31
2.61
1.72
0.80
0.03
-0.49
-0.74
-0.79
-0.80
-0.95
-1.36
-2.09
-3.04
-4.00
-4.68
-4.84
-4.35
-3.22
-1.64
0.16
1.95
3.52
4.77
5.66
6.20
6.44
6.42
6.21
5.86
5.45
5.06
4.79
4.69
4.79
5.03
5.30
5.48
5.48
5.28
4.93
4.49
4.02
3.54
3.01
2.40
1.66
0.81
-0.15
-1.14
-2.08
-2.85
-3.35
-3.57
-3.55
-3.46
-3.48
-3.78
-4.43
-5.42
-6.63
-7.86
-8.83
-9.25
-8.90
-7.66
-5.63
-3.08
-0.42
1.99
3.91
5.28
6.20
6.77
7.05
7.05
6.80
6.40
6.04
5.91
6.10
6.55
7.07
7.47
7.59
7.40
6.94
6.29
5.49
4.55
3.52
2.43
1.36
0.39
-0.47
-1.23
-1.94
-2.65
-3.40
-4.16
-4.89
-5.57
-6.20
-6.82
-7.50
-8.27
-9.08
-9.78
-10.20
-10.16
-9.54
-8.35
-6.65
-4.61
-2.45
-0.41
1.30
2.53
3.27
3.58
3.58
3.38
3.02
2.56
2.06
1.63
1.43
1.54
1.91
2.40
2.79
2.94
2.83
2.52
2.10
1.63
1.11
0.52
-0.18
-0.97
-1.78
-2.57
-3.29
-3.93
-4.48
-4.95
-5.36
-5.77
-6.27
-6.96
-7.86
-8.85
-9.65
-9.97
-9.53
-8.27
-6.35
-4.07
-1.80
0.18
1.73
2.85
3.57
3.91
3.90
3.62
3.22
2.90
2.82
3.00
3.31
3.60
3.74
3.74
3.68
3.61
3.55
3.43
3.18
2.80
2.40
2.05
1.83
1.67
1.51
1.26
0.90
0.43
-0.12
-0.73
-1.42
-2.19
-3.02
-3.92
-4.82
-5.64
-6.21
-6.31
-5.76
-4.50
-2.63
-0.44
1.74
3.62
5.04
5.95
6.39
6.46
6.27
5.92
5.55
5.24
5.04
4.95
4.95
5.00
5.12
5.25
5.34
5.28
4.98
4.40
3.62
2.81
2.14
1.71
1.51
1.45
1.39
1.19
0.76
0.10
-0.73
-1.64
-2.54
-3.37
-4.13
-4.80
-5.41
-5.95
-6.45
-6.90
-7.33
-7.71
-7.98
-8.00
-7.64
-6.78
-5.39
-3.57
-1.50
0.62
2.60
4.31
5.68
6.69
7.34
7.66
7.72
7.57
7.26
6.84
6.39
6.03
5.93
6.17
6.71
7.39
7.87
7.90
7.36
6.35
5.16
4.09
3.34
2.89
2.62
2.33
1.90
1.30
0.57
-0.24
-1.11
-2.02
-2.97
-3.91
-4.80
-5.60
-6.31
-6.98
-7.68
-8.50
-9.45
-10.44
-11.22
-11.46
-10.87
-9.38
-7.17
-4.66
-2.31
-0.45
0.84
1.70
2.36
2.94
3.43
3.71
3.69
3.42
3.10
2.94
3.08
3.46
3.93
4.28
4.35
4.13
3.67
3.09
2.48
1.89
1.31
0.74
0.15
-0.48
-1.14
-1.83
-2.49
-3.07
-3.53
-3.86
-4.13
-4.41
-4.82
-5.39
-6.16
-7.08
-8.09
-9.09
-9.95
-10.52
-10.62
-10.12
-8.96
-7.19
-5.02
-2.69
-0.49
1.43
3.01
4.30
5.34
6.14
6.62
6.72
6.44
5.88
5.28
4.87
4.81
5.09
5.57
6.02
6.26
6.19
5.85
5.37
4.87
4.38
3.88
3.32
2.66
1.95
1.30
0.81
0.49
0.26
-0.01
-0.41
-0.93
-1.46
-1.83
-1.98
-1.97
-2.00
-2.29
-3.01
-4.17
-5.59
-6.97
-8.01
-8.46
-8.18
-7.19
-5.59
-3.59
-1.42
0.71
2.59
4.12
5.27
6.06
6.53
6.73
6.68
6.44
6.09
5.74
5.50
5.44
5.53
5.73
5.96
6.14
6.25
6.28
6.22
6.05
5.72
5.25
4.65
4.02
3.44
2.99
2.62
2.26
1.81
1.21
0.49
-0.29
-1.03
-1.68
-2.25
-2.78
-3.32
-3.88
-4.45
-5.00
-5.54
-6.12
-6.80
-7.62
-8.59
-9.62
-10.57
-11.19
-11.28
-10.71
-9.47
-7.72
-5.67
-3.57
-1.62
0.06
1.43
2.48
3.20
3.58
3.64
3.44
3.03
2.53
2.06
1.73
1.64
1.82
2.20
2.61
2.88
2.89
2.60
2.10
1.51
0.89
0.28
-0.33
-0.93
-1.48
-1.92
-2.22
-2.41
-2.54
-2.71
-2.96
-3.33
-3.79
-4.33
-4.92
-5.53
-6.14
-6.75
-7.41
-8.18
-9.10
-10.12
-11.05
-11.63
-11.56
-10.71
-9.12
-7.03
-4.81
-2.75
-1.03
0.31
1.35
2.22
2.97
3.62
4.14
4.50
4.70
4.78
4.81
4.86
4.96
5.09
5.18
5.19
5.11
4.95
4.79
4.69
4.69
4.74
4.77
4.70
4.50
4.16
3.72
3.24
2.73
2.17
1.54
0.88
0.24
-0.26
-0.57
-0.69
-0.76
-0.95
-1.46
-2.41
-3.74
-5.32
-6.88
-8.13
-8.78
-8.66
-7.68
-5.94
-3.64
-1.08
1.42
3.62
5.37
6.60
7.35
7.68
7.74
7.67
7.58
7.55
7.55
7.54
7.46
7.28
7.07
6.87
6.73
6.67
6.64
6.59
6.45
6.18
5.77
5.24
4.63
4.00
3.39
2.85
2.35
1.89
1.43
0.97
0.54
0.14
-0.24
-0.63
-1.08
-1.61
-2.23
-2.91
-3.64
-4.44
-5.34
-6.37
-7.49
-8.64
-9.68
-10.48
-10.94
-10.96
-10.47
-9.45
-7.88
-5.86
-3.57
-1.23
0.89
2.60
3.76
4.36
4.47
4.25
3.88
3.55
3.34
3.29
3.33
3.40
3.43
3.43
3.41
3.39
3.31
3.12
2.74
2.16
1.46
0.74
0.14
-0.25
-0.43
-0.47
-0.50
-0.71
-1.21
-2.04
-3.10
-4.22
-5.17
-5.81
-6.13
-6.22
-6.25
-6.39
-6.75
-7.36
-8.17
-9.09
-9.97
-10.66
-10.97
-10.74
-9.89
-8.42
-6.49
-4.34
-2.28
-0.52
0.82
1.74
2.35
2.76
3.05
3.24
3.33
3.36
3.33
3.28
3.24
3.18
3.10
2.98
2.82
2.65
2.52
2.47
2.54
2.71
2.95
3.21
3.42
3.48
3.31
2.84
2.08
1.14
0.22
-0.46
-0.76
-0.71
-0.50
-0.39
-0.60
-1.22
-2.15
-3.22
-4.25
-5.11
-5.72
-6.01
-5.84
-5.07
-3.59
-1.50
0.99
3.48
5.63
7.19
8.09
8.42
8.33
7.99
7.50
6.95
6.40
5.97
5.73
5.73
5.93
6.20
6.41
6.44
6.26
5.92
5.54
5.19
4.88
4.55
4.11
3.52
2.80
2.01
1.25
0.56
-0.07
-0.70
-1.36
-2.07
-2.75
-3.32
-3.70
-3.89
-3.98
-4.08
-4.29
-4.70
-5.33
-6.14
-7.07
-7.94
-8.54
-8.64
-8.05
-6.71
-4.73
-2.36
0.10
2.35
4.23
5.64
6.60
7.13
7.29
7.16
6.82
6.38
5.96
5.64
5.46
5.39
5.35
5.23
4.97
4.52
3.90
3.25
2.72
2.42
2.38
2.50
2.56
2.33
1.68
0.68
-0.49
-1.58
-2.40
-2.93
-3.29
-3.62
-4.00
-4.43
-4.83
-5.17
-5.53
-6.05
-6.92
-8.19
-9.74
-11.24
-12.28
-12.51
-11.76
-10.10
-7.79
-5.18
-2.64
-0.46
1.21
2.31
2.90
3.08
3.01
2.82
2.62
2.47
2.40
2.37
2.38
2.40
2.43
2.45
2.48
2.49
2.47
2.35
2.09
1.66
1.10
0.49
-0.08
-0.60
-1.15
-1.84
-2.75
-3.84
-4.91
-5.74
-6.17
-6.26
-6.20
-6.28
-6.68
-7.40
-8.25
-8.96
-9.33
-9.31
-8.96
-8.39
-7.64
-6.62
-5.23
-3.40
-1.23
1.04
3.09
4.65
5.65
6.14
6.30
6.32
6.30
6.27
6.22
6.16
6.12
6.13
6.20
6.27
6.25
6.06
5.69
5.19
4.65
4.14
3.68
3.22
2.69
2.03
1.26
0.45
-0.31
-0.95
-1.47
-1.94
-2.42
-2.97
-3.54
-4.09
-4.58
-5.04
-5.54
-6.16
-6.82
-7.35
-7.47
-6.95
-5.72
-3.87
-1.66
0.63
2.73
4.48
5.75
6.51
6.77
6.65
6.28
5.89
5.63
5.59
5.78
6.13
6.55
6.95
7.27
7.45
7.51
7.48
7.40
7.30
7.13
6.86
6.38
5.65
4.66
3.47
2.20
0.96
-0.13
-0.99
-1.59
-1.98
-2.26
-2.55
-3.01
-3.74
-4.76
-6.02
-7.41
-8.79
-10.02
-10.94
-11.40
-11.25
-10.39
-8.82
-6.65
-4.18
-1.76
0.25
1.63
2.42
2.79
3.01
3.24
3.49
3.64
3.55
3.21
2.73
2.35
2.23
2.42
2.79
3.14
3.27
3.15
2.82
2.44
2.09
1.77
1.38
0.83
0.07
-0.85
-1.80
-2.64
-3.25
-3.64
-3.85
-3.99
-4.17
-4.46
-4.92
-5.60
-6.47
-7.49
-8.49
-9.28
-9.65
-9.44
-8.61
-7.24
-5.48
-3.51
-1.50
0.38
2.00
3.21
3.89
3.98
3.56
2.82
2.02
1.43
1.22
1.46
2.04
2.77
3.47
3.94
4.11
3.96
3.55
2.99
2.41
1.91
1.57
1.39
1.29
1.16
0.91
0.53
0.07
-0.39
-0.78
-1.09
-1.38
-1.76
-2.27
-2.90
-3.55
-4.10
-4.43
-4.50
-4.31
-3.89
-3.24
-2.30
-1.00
0.68
2.63
4.63
6.35
7.52
7.99
7.81
7.21
6.48
5.83
5.39
5.17
5.14
5.26
5.50
5.77
5.95
5.94
5.67
5.17
4.56
3.97
3.47
3.08
2.73
2.33
1.81
1.19
0.50
-0.19
-0.83
-1.38
-1.82
-2.14
-2.38
-2.60
-2.88
-3.26
-3.77
-4.40
-5.13
-5.97
-6.85
-7.70
-8.33
-8.48
-7.92
-6.56
-4.54
-2.18
0.11
2.00
3.38
4.30
4.93
5.38
5.67
5.77
5.63
5.31
4.97
4.82
4.96
5.37
5.92
6.41
6.71
6.80
6.73
6.55
6.27
5.84
5.20
4.38
3.49
2.69
2.10
1.73
1.41
0.92
0.10
-1.01
-2.21
-3.21
-3.86
-4.19
-4.41
-4.81
-5.55
-6.64
-7.91
-9.13
-10.07
-10.58
-10.54
-9.92
-8.72
-7.03
-5.02
-2.91
-0.93
0.76
2.06
2.91
3.32
3.30
2.93
2.32
1.65
1.11
0.85
0.93
1.31
1.85
2.36
2.69
2.74
2.51
2.09
1.61
1.21
0.95
0.78
0.59
0.27
-0.26
-0.98
-1.81
-2.61
-3.26
-3.74
-4.09
-4.39
-4.75
-5.21
-5.84
-6.66
-7.65
-8.70
-9.57
-9.99
-9.72
-8.64
-6.85
-4.60
-2.23
-0.04
1.79
3.18
4.12
4.62
4.72
4.50
4.10
3.71
3.49
3.52
3.79
4.16
4.46
4.56
4.42
4.09
3.72
3.44
3.33
3.37
3.47
3.49
3.30
2.89
2.30
1.64
1.01
0.48
0.03
-0.37
-0.78
-1.20
-1.67
-2.18
-2.77
-3.53
-4.49
-5.65
-6.87
-7.89
-8.39
-8.14
-7.06
-5.25
-2.99
-0.59
1.70
3.68
5.22
6.27
6.81
6.86
6.51
5.90
5.16
4.46
3.88
3.50
3.35
3.42
3.64
3.91
4.14
4.23
4.14
3.89
3.50
2.99
2.39
1.71
1.00
0.36
-0.12
-0.44
-0.65
-0.89
-1.24
-1.75
-2.37
-2.98
-3.51
-3.94
-4.34
-4.83
-5.50
-6.39
-7.39
-8.33
-8.96
-9.06
-8.49
-7.25
-5.47
-3.35
-1.12
0.98
2.79
4.18
5.10
5.61
5.79
5.81
5.76
5.68
5.56
5.36
5.08
4.78
4.54
4.40
4.29
4.12
3.77
3.24
2.64
2.10
1.70
1.41
1.09
0.61
-0.06
-0.85
-1.64
-2.31
-2.83
-3.27
-3.70
-4.18
-4.68
-5.17
-5.64
-6.13
-6.68
-7.32
-8.00
-8.55
-8.73
-8.36
-7.37
-5.83
-3.96
-2.00
-0.16
1.45
2.76
3.79
4.54
5.01
5.20
5.14
4.90
4.54
4.18
3.88
3.68
3.54
3.43
3.25
2.96
2.55
2.06
1.61
1.29
1.10
0.96
0.75
0.33
-0.30
-1.08
-1.85
-2.46
-2.84
-3.01
-3.09
-3.26
-3.67
-4.45
-5.59
-6.99
-8.43
-9.63
-10.31
-10.26
-9.38
-7.72
-5.45
-2.84
-0.24
2.06
3.80
4.88
5.31
5.21
4.75
4.12
3.48
2.98
2.71
2.71
2.92
3.22
3.45
3.52
3.41
3.20
2.99
2.82
2.68
2.44
1.99
1.29
0.38
-0.59
-1.49
-2.20
-2.72
-3.10
-3.46
-3.90
-4.47
-5.19
-6.04
-6.95
-7.78
-8.36
-8.44
-7.83
-6.47
-4.52
-2.32
-0.24
1.40
2.50
3.17
3.60
3.96
4.28
4.55
4.67
4.61
4.38
4.04
3.65
3.29
3.03
2.94
3.07
3.40
3.81
4.12
4.14
3.77
3.01
2.01
0.92
-0.08
-0.94
-1.64
-2.22
-2.72
-3.17
-3.61
-4.08
-4.67
-5.39
-6.22
-7.02
-7.59
-7.71
-7.22
-6.04
-4.21
-1.93
0.49
2.72
4.47
5.58
6.08
6.13
5.92
5.63
5.33
5.05
4.79
4.61
4.56
4.65
4.85
5.05
5.11
4.95
4.57
4.06
3.52
3.04
2.65
2.33
2.00
1.57
0.99
0.26
-0.56
-1.36
-1.99
-2.38
-2.55
-2.64
-2.85
-3.36
-4.22
-5.36
-6.60
-7.74
-8.58
-8.98
-8.82
-8.04
-6.65
-4.73
-2.50
-0.23
1.84
3.51
4.73
5.52
5.99
6.19
6.20
6.05
5.78
5.45
5.14
4.93
4.88
5.00
5.25
5.57
5.85
6.00
5.96
5.71
5.26
4.68
4.07
3.50
3.01
2.54
2.04
1.41
0.62
-0.26
-1.13
-1.89
-2.49
-2.95
-3.32
-3.68
-4.04
-4.44
-4.92
-5.52
-6.27
-7.15
-8.04
-8.68
-8.80
-8.16
-6.72
-4.60
-2.13
0.32
2.42
3.99
5.04
5.68
6.07
6.29
6.37
6.28
6.05
5.73
5.46
5.33
5.33
5.43
5.52
5.52
5.43
5.23
4.95
4.55
4.02
3.35
2.61
1.91
1.38
1.09
0.98
0.92
0.77
0.41
-0.17
-0.88
-1.62
-2.27
-2.79
-3.22
-3.62
-4.06
-4.54
-5.07
-5.65
-6.30
-7.03
-7.83
-8.55
-8.97
-8.80
-7.88
-6.26
-4.20
-2.05
-0.14
1.38
2.55
3.53
4.43
5.23
5.80
5.99
5.76
5.23
4.61
4.16
3.98
4.02
4.13
4.14
3.99
3.77
3.59
3.57
3.70
3.83
3.78
3.44
2.80
2.01
1.23
0.59
0.14
-0.19
-0.49
-0.83
-1.25
-1.76
-2.34
-2.93
-3.49
-3.98
-4.37
-4.66
-4.90
-5.18
-5.61
-6.24
-7.05
-7.94
-8.73
-9.20
-9.17
-8.56
-7.38
-5.78
-3.97
-2.16
-0.51
0.90
2.06
2.95
3.57
3.92
4.05
4.03
3.97
3.98
4.08
4.20
4.26
4.20
4.02
3.78
3.56
3.40
3.31
3.27
3.26
3.22
3.10
2.79
2.21
1.40
0.47
-0.38
-1.01
-1.39
-1.63
-1.89
-2.30
-2.88
-3.52
-4.09
-4.49
-4.73
-4.87
-5.00
-5.20
-5.54
-6.07
-6.85
-7.86
-8.98
-9.97
-10.56
-10.53
-9.76
-8.33
-6.42
-4.32
-2.29
-0.54
0.81
1.71
2.22
2.42
2.43
2.40
2.44
2.64
3.00
3.46
3.90
4.17
4.19
3.95
3.57
3.19
2.94
2.86
2.89
2.95
2.93
2.80
2.52
2.08
1.45
0.66
-0.20
-1.00
-1.61
-1.98
-2.21
-2.45
-2.85
-3.42
-4.05
-4.59
-4.92
-5.09
-5.25
-5.58
-6.19
-7.08
-8.15
-9.31
-10.40
-11.30
-11.81
-11.75
-10.94
-9.35
-7.11
-4.51
-1.91
0.37
2.11
3.23
3.78
3.90
3.77
3.60
3.56
3.74
4.13
4.63
5.11
5.47
5.65
5.68
5.61
5.48
5.32
5.15
5.00
4.89
4.82
4.70
4.44
3.96
3.25
2.41
1.59
0.92
0.40
-0.04
-0.52
-1.10
-1.74
-2.34
-2.80
-3.15
-3.51
-4.04
-4.84
-5.88
-7.03
-8.15
-9.12
-9.91
-10.44
-10.63
-10.33
-9.41
-7.87
-5.83
-3.55
-1.28
0.79
2.57
4.05
5.25
6.13
6.66
6.83
6.73
6.53
6.39
6.43
6.62
6.86
7.01
6.96
6.67
6.19
5.60
5.02
4.55
4.30
4.31
4.53
4.86
5.14
5.21
4.98
4.44
3.65
2.67
1.59
0.47
-0.63
-1.64
-2.47
-3.07
-3.45
-3.68
-3.88
-4.22
-4.79
-5.66
-6.75
-7.91
-8.92
-9.50
-9.44
-8.60
-7.00
-4.79
-2.25
0.31
2.57
4.32
5.50
6.13
6.35
6.28
6.10
5.92
5.87
6.03
6.40
6.91
7.44
7.88
8.16
8.29
8.26
8.08
7.69
7.04
6.14
5.13
4.19
3.52
3.19
3.15
3.19
3.10
2.72
2.06
1.23
0.39
-0.34
-0.98
-1.60
-2.33
-3.24
-4.26
-5.28
-6.19
-6.95
-7.65
-8.38
-9.15
-9.81
-10.06
-9.63
-8.36
-6.34
-3.88
-1.37
0.85
2.61
3.90
4.80
5.41
5.76
5.88
5.78
5.54
5.28
5.13
5.12
5.25
5.44
5.58
5.65
5.62
5.53
5.41
5.28
5.09
4.82
4.43
3.92
3.32
2.67
2.03
1.42
0.84
0.28
-0.29
-0.88
-1.48
-2.03
-2.51
-2.90
-3.24
-3.61
-4.07
-4.66
-5.38
-6.19
-7.00
-7.67
-8.08
-8.11
-7.67
-6.75
-5.40
-3.72
-1.88
-0.05
1.57
2.83
3.68
4.13
4.29
4.29
4.25
4.24
4.26
4.32
4.39
4.46
4.51
4.52
4.47
4.41
4.40
4.47
4.60
4.71
4.67
4.42
3.98
3.45
2.93
2.48
2.09
1.66
1.13
0.48
-0.25
-0.98
-1.65
-2.22
-2.67
-3.03
-3.35
-3.74
-4.32
-5.17
-6.28
-7.48
-8.48
-8.95
-8.66
-7.58
-5.87
-3.85
-1.84
-0.10
1.29
2.33
3.10
3.66
4.03
4.18
4.11
3.85
3.50
3.15
2.92
2.86
2.99
3.28
3.65
4.00
4.26
4.33
4.18
3.81
3.26
2.63
2.00
1.44
1.00
0.67
0.47
0.34
0.22
0.02
-0.37
-0.99
-1.78
-2.62
-3.31
-3.75
-3.95
-4.09
-4.40
-5.09
-6.18
-7.49
-8.71
-9.46
-9.47
-8.62
-6.99
-4.85
-2.51
-0.33
1.47
2.72
3.43
3.67
3.60
3.37
3.11
2.92
2.84
2.92
3.16
3.55
4.05
4.53
4.85
4.88
4.57
3.98
3.28
2.65
2.21
2.00
1.91
1.85
1.70
1.42
1.03
0.52
-0.10
-0.82
-1.58
-2.30
-2.85
-3.20
-3.38
-3.49
-3.70
-4.15
-4.88
-5.86
-6.97
-8.01
-8.81
-9.20
-9.07
-8.40
-7.24
-5.74
-4.06
-2.37
-0.82
0.49
1.51
2.21
2.62
2.82
2.89
2.90
2.87
2.83
2.77
2.72
2.74
2.86
3.14
3.58
4.11
4.66
5.08
5.26
5.10
4.54
3.61
2.43
1.17
0.01
-0.88
-1.43
-1.65
-1.66
-1.61
-1.63
-1.80
-2.14
-2.61
-3.18
-3.79
-4.43
-5.10
-5.81
-6.61
-7.52
-8.52
-9.48
-10.14
-10.24
-9.57
-8.12
-6.08
-3.78
-1.57
0.29
1.67
2.57
3.04
3.17
3.07
2.86
2.72
2.74
2.95
3.25
3.54
3.73
3.84
3.95
4.12
4.33
4.46
4.43
4.18
3.80
3.42
3.11
2.85
2.52
2.02
1.35
0.64
0.04
-0.36
-0.62
-0.88
-1.31
-1.94
-2.71
-3.47
-4.13
-4.63
-5.06
-5.52
-6.15
-6.99
-8.02
-9.09
-10.03
-10.56
-10.47
-9.63
-8.09
-6.04
-3.79
-1.66
0.14
1.54
2.59
3.40
4.04
4.55
4.93
5.13
5.17
5.09
4.99
4.98
5.11
5.35
5.63
5.85
5.96
5.97
5.91
5.82
5.68
5.44
5.05
4.47
3.75
2.98
2.28
1.73
1.39
1.21
1.11
0.96
0.67
0.19
-0.47
-1.24
-2.04
-2.78
-3.46
-4.09
-4.72
-5.37
-6.07
-6.82
-7.59
-8.35
-9.04
-9.52
-9.66
-9.33
-8.46
-7.08
-5.31
-3.32
-1.31
0.57
2.19
3.45
4.35
4.89
5.18
5.34
5.50
5.75
6.10
6.50
6.88
7.19
7.41
7.52
7.53
7.41
7.14
6.73
6.22
5.64
5.06
4.51
4.01
3.58
3.21
2.88
2.55
2.19
1.79
1.36
0.95
0.62
0.36
0.17
-0.01
-0.27
-0.66
-1.23
-1.95
-2.80
-3.70
-4.58
-5.36
-5.98
-6.46
-6.87
-7.29
-7.82
-8.44
-9.02
-9.32
-9.04
-7.99
-6.17
-3.80
-1.29
0.93
2.59
3.60
4.11
4.35
4.55
4.80
5.09
5.33
5.47
5.54
5.60
5.74
5.97
6.22
6.40
6.43
6.24
5.90
5.47
5.05
4.71
4.46
4.23
3.94
3.49
2.86
2.14
1.46
0.95
0.72
0.72
0.83
0.90
0.83
0.57
0.13
-0.46
-1.16
-1.92
-2.69
-3.41
-4.03
-4.55
-5.01
-5.51
-6.11
-6.85
-7.68
-8.53
-9.26
-9.76
-9.89
-9.53
-8.64
-7.25
-5.50
-3.57
-1.70
-0.01
1.42
2.58
3.51
4.22
4.74
5.07
5.28
5.45
5.63
5.85
6.06
6.16
6.09
5.84
5.52
5.23
5.05
4.96
4.88
4.72
4.45
4.11
3.77
3.49
3.25
3.01
2.70
2.31
1.84
1.33
0.82
0.34
-0.10
-0.50
-0.89
-1.30
-1.75
-2.21
-2.63
-2.95
-3.20
-3.42
-3.73
-4.22
-4.86
-5.58
-6.25
-6.82
-7.29
-7.75
-8.27
-8.86
-9.40
-9.70
-9.58
-8.90
-7.64
-5.89
-3.86
-1.79
0.12
1.72
2.95
3.83
4.39
4.67
4.73
4.66
4.56
4.57
4.76
5.10
5.50
5.78
5.85
5.67
5.28
4.81
4.36
4.00
3.78
3.66
3.61
3.55
3.41
3.13
2.67
2.04
1.29
0.51
-0.22
-0.83
-1.29
-1.60
-1.76
-1.83
-1.90
-2.05
-2.35
-2.84
-3.50
-4.22
-4.91
-5.48
-5.92
-6.28
-6.65
-7.13
-7.75
-8.52
-9.39
-10.26
-10.97
-11.30
-11.04
-10.06
-8.38
-6.21
-3.89
-1.78
-0.13
1.02
1.80
2.41
2.96
3.46
3.85
4.04
4.05
3.99
4.03
4.26
4.68
5.13
5.43
5.45
5.20
4.79
4.36
4.01
3.74
3.47
3.10
2.60
2.00
1.43
1.02
0.81
0.79
0.81
0.74
0.50
0.12
-0.28
-0.56
-0.62
-0.49
-0.29
-0.16
-0.24
-0.56
-1.08
-1.72
-2.40
-3.08
-3.77
-4.50
-5.28
-6.12
-7.00
-7.92
-8.86
-9.79
-10.63
-11.23
-11.40
-10.98
-9.93
-8.34
-6.40
-4.38
-2.50
-0.89
0.40
1.43
2.26
2.96
3.54
3.97
4.23
4.31
4.25
4.15
4.13
4.27
4.61
5.11
5.66
6.17
6.56
6.77
6.77
6.53
6.04
5.35
4.56
3.81
3.25
2.96
2.91
2.96
2.97
2.80
2.44
1.95
1.44
1.00
0.61
0.21
-0.25
-0.81
-1.43
-2.05
-2.63
-3.18
-3.74
-4.36
-5.04
-5.76
-6.51
-7.29
-8.10
-8.93
-9.68
-10.18
-10.28
-9.85
-8.92
-7.57
-5.95
-4.19
-2.38
-0.55
1.21
2.82
4.12
5.03
5.53
5.72
5.76
5.84
6.07
6.46
6.94
7.38
7.68
7.77
7.66
7.37
6.97
6.53
6.10
5.73
5.42
5.19
5.01
4.87
4.75
4.60
4.38
4.05
3.55
2.90
2.16
1.42
0.80
0.35
0.04
-0.22
-0.55
-0.99
-1.51
-2.05
-2.56
-3.03
-3.53
-4.13
-4.84
-5.65
-6.52
-7.38
-8.15
-8.80
-9.24
-9.41
-9.21
-8.58
-7.47
-5.87
-3.90
-1.75
0.34
2.09
3.37
4.14
4.53
4.73
4.89
5.07
5.26
5.42
5.55
5.69
5.88
6.11
6.30
6.37
6.29
6.08
5.83
5.60
5.40
5.16
4.82
4.34
3.76
3.17
2.65
2.23
1.87
1.51
1.08
0.61
0.12
-0.33
-0.72
-1.03
-1.29
-1.51
-1.72
-1.97
-2.28
-2.70
-3.24
-3.92
-4.74
-5.68
-6.71
-7.75
-8.71
-9.42
-9.73
-9.52
-8.74
-7.44
-5.74
-3.82
-1.86
-0.02
1.59
2.91
3.90
4.59
4.99
5.18
5.23
5.23
5.28
5.44
5.69
5.99
6.29
6.50
6.59
6.54
6.33
5.99
5.56
5.08
4.62
4.24
3.93
3.66
3.39
3.09
2.76
2.43
2.13
1.80
1.36
0.75
-0.05
-0.94
-1.78
-2.45
-2.91
-3.19
-3.41
-3.64
-3.93
-4.31
-4.82
-5.49
-6.34
-7.32
-8.23
-8.84
-8.89
-8.25
-6.99
-5.32
-3.53
-1.86
-0.45
0.71
1.68
2.54
3.32
3.99
4.51
4.83
5.01
5.14
5.31
5.51
5.70
5.75
5.61
5.31
5.02
4.89
4.99
5.24
5.40
5.26
4.72
3.90
3.00
2.22
1.62
1.17
0.76
0.35
-0.03
-0.31
-0.50
-0.64
-0.87
-1.29
-1.90
-2.63
-3.34
-3.95
-4.44
-4.85
-5.20
-5.56
-5.96
-6.44
-7.04
-7.74
-8.42
-8.85
-8.79
-8.04
-6.61
-4.66
-2.53
-0.54
1.07
2.20
2.91
3.32
3.55
3.70
3.84
4.00
4.15
4.29
4.42
4.55
4.73
4.99
5.28
5.52
5.56
5.33
4.84
4.19
3.55
3.05
2.73
2.52
2.31
2.00
1.55
1.03
0.51
0.07
-0.29
-0.59
-0.93
-1.35
-1.85
-2.37
-2.84
-3.23
-3.55
-3.89
-4.34
-4.93
-5.64
-6.41
-7.20
-7.93
-8.56
-8.96
-8.99
-8.50
-7.43
-5.89
-4.08
-2.29
-0.69
0.61
1.66
2.52
3.23
3.81
4.22
4.48
4.62
4.72
4.88
5.09
5.31
5.43
5.36
5.10
4.73
4.38
4.16
4.10
4.13
4.14
4.05
3.83
3.51
3.14
2.73
2.23
1.59
0.81
0.01
-0.67
-1.10
-1.26
-1.25
-1.25
-1.43
-1.83
-2.42
-3.06
-3.62
-4.05
-4.34
-4.61
-4.95
-5.42
-6.05
-6.79
-7.58
-8.32
-8.90
-9.18
-9.02
-8.34
-7.13
-5.49
-3.60
-1.69
0.02
1.43
2.51
3.33
3.99
4.57
5.04
5.37
5.48
5.34
4.99
4.53
4.09
3.81
3.74
3.86
4.06
4.21
4.19
3.97
3.55
2.99
2.39
1.81
1.33
0.97
0.78
0.76
0.88
1.04
1.11
0.99
0.61
0.04
-0.60
-1.16
-1.56
-1.81
-2.02
-2.25
-2.52
-2.79
-3.00
-3.12
-3.27
-3.57
-4.18
-5.15
-6.40
-7.77
-9.04
-9.96
-10.37
-10.20
-9.48
-8.30
-6.82
-5.18
-3.47
-1.78
-0.21
1.14
2.17
2.81
3.09
3.11
3.01
2.95
2.98
3.13
3.37
3.67
4.02
4.41
4.80
5.15
5.38
5.40
5.18
4.77
4.28
3.88
3.66
3.60
3.61
3.52
3.26
2.80
2.24
1.68
1.15
0.63
0.05
-0.66
-1.48
-2.33
-3.15
-3.90
-4.58
-5.22
-5.85
-6.43
-6.95
-7.38
-7.77
-8.19
-8.74
-9.44
-10.26
-11.04
-11.53
-11.51
-10.83
-9.50
-7.69
-5.65
-3.65
-1.85
-0.27
1.15
2.50
3.81
5.06
6.13
6.93
7.41
7.60
7.59
7.51
7.45
7.48
7.58
7.71
7.77
7.69
7.40
6.92
6.30
5.64
5.00
4.37
3.72
2.97
2.11
1.19
0.30
-0.43
-0.93
-1.24
-1.44
-1.66
-1.97
-2.36
-2.72
-2.97
-3.04
-2.96
-2.87
-2.86
-3.04
-3.40
-3.90
-4.47
-5.09
-5.76
-6.44
-7.05
-7.43
-7.37
-6.75
-5.56
-3.95
-2.16
-0.47
0.93
1.93
2.55
2.89
3.05
3.13
3.18
3.24
3.33
3.46
3.65
3.91
4.21
4.52
4.78
4.90
4.86
4.67
4.38
4.06
3.74
3.40
2.95
2.34
1.60
0.83
0.18
-0.25
-0.46
-0.55
-0.67
-0.94
-1.35
-1.82
-2.21
-2.46
-2.59
-2.69
-2.83
-3.08
-3.43
-3.90
-4.47
-5.15
-5.92
-6.66
-7.18
-7.27
-6.80
-5.74
-4.20
-2.41
-0.60
1.03
2.36
3.34
3.98
4.29
4.36
4.27
4.14
4.09
4.16
4.38
4.70
5.06
5.37
5.56
5.54
5.28
4.80
4.23
3.74
3.48
3.51
3.73
3.96
3.97
3.65
3.04
2.29
1.60
1.12
0.88
0.79
0.72
0.54
0.18
-0.39
-1.12
-1.96
-2.81
-3.60
-4.30
-4.91
-5.53
-6.22
-7.02
-7.81
-8.42
-8.64
-8.27
-7.30
-5.78
-3.90
-1.89
0.03
1.68
2.92
3.69
4.01
3.99
3.79
3.59
3.55
3.76
4.20
4.82
5.46
5.96
6.17
6.05
5.65
5.15
4.75
4.56
4.56
4.61
4.54
4.22
3.64
2.93
2.22
1.65
1.28
1.06
0.93
0.78
0.57
0.24
-0.21
-0.74
-1.32
-1.85
-2.26
-2.52
-2.67
-2.82
-3.10
-3.61
-4.34
-5.18
-5.93
-6.38
-6.37
-5.86
-4.87
-3.51
-1.95
-0.35
1.10
2.28
3.10
3.58
3.79
3.82
3.77
3.69
3.64
3.65
3.75
3.95
4.22
4.45
4.50
4.28
3.79
3.14
2.49
1.99
1.70
1.60
1.60
1.61
1.55
1.42
1.20
0.91
0.54
0.10
-0.42
-1.01
-1.64
-2.29
-2.89
-3.37
-3.67
-3.78
-3.74
-3.65
-3.61
-3.70
-3.98
-4.46
-5.10
-5.84
-6.50
-6.90
-6.86
-6.26
-5.16
-3.74
-2.24
-0.88
0.25
1.17
1.95
2.65
3.27
3.71
3.94
3.93
3.78
3.61
3.53
3.61
3.81
4.05
4.20
4.18
3.99
3.67
3.34
3.05
2.83
2.65
2.47
2.21
1.86
1.41
0.88
0.31
-0.25
-0.72
-1.03
-1.16
-1.16
-1.15
-1.22
-1.43
-1.74
-2.08
-2.40
-2.70
-3.04
-3.43
-3.88
-4.34
-4.77
-5.16
-5.56
-6.05
-6.67
-7.36
-7.98
-8.36
-8.35
-7.89
-7.01
-5.84
-4.52
-3.22
-2.00
-0.91
0.10
1.05
1.90
2.60
3.05
3.22
3.17
3.01
2.91
2.98
3.23
3.56
3.83
3.95
3.89
3.74
3.59
3.48
3.38
3.18
2.79
2.21
1.55
0.93
0.49
0.26
0.19
0.20
0.18
0.08
-0.12
-0.42
-0.82
-1.32
-1.91
-2.56
-3.19
-3.72
-4.07
-4.23
-4.24
-4.23
-4.34
-4.66
-5.24
-6.02
-6.88
-7.73
-8.46
-8.98
-9.22
-9.10
-8.53
-7.47
-5.98
-4.20
-2.39
-0.77
0.48
1.30
1.73
1.92
2.05
2.22
2.50
2.83
3.13
3.32
3.38
3.36
3.38
3.56
3.90
4.33
4.67
4.75
4.55
4.16
3.74
3.45
3.30
3.21
3.04
2.72
2.27
1.79
1.37
1.03
0.71
0.34
-0.12
-0.60
-1.04
-1.37
-1.62
-1.89
-2.26
-2.74
-3.27
-3.76
-4.16
-4.51
-4.92
-5.47
-6.17
-6.97
-7.76
-8.42
-8.87
-9.03
-8.80
-8.11
-6.93
-5.34
-3.53
-1.74
-0.17
1.05
1.93
2.54
2.98
3.31
3.59
3.83
4.05
4.27
4.51
4.81
5.20
5.66
6.14
6.53
6.71
6.63
6.33
5.94
5.59
5.36
5.19
4.97
4.58
3.99
3.26
2.53
1.92
1.50
1.26
1.16
1.14
1.13
1.06
0.86
0.46
-0.15
-0.91
-1.70
-2.41
-3.01
-3.52
-4.06
-4.72
-5.51
-6.35
-7.09
-7.56
-7.61
-7.19
-6.33
-5.12
-3.72
-2.31
-0.99
0.19
1.25
2.28
3.30
4.29
5.17
5.82
6.21
6.33
6.27
6.12
5.97
5.89
5.88
5.91
5.98
6.03
6.06
6.04
5.95
5.77
5.48
5.07
4.54
3.92
3.22
2.48
1.74
1.09
0.59
0.29
0.19
0.20
0.18
0.04
-0.28
-0.75
-1.28
-1.80
-2.24
-2.61
-2.94
-3.26
-3.63
-4.10
-4.72
-5.45
-6.18
-6.71
-6.81
-6.35
-5.32
-3.89
-2.31
-0.81
0.47
1.52
2.40
3.14
3.78
4.27
4.62
4.81
4.90
4.97
5.08
5.25
5.48
5.74
6.02
6.28
6.49
6.55
6.38
5.93
5.25
4.44
3.67
3.04
2.56
2.15
1.73
1.27
0.76
0.23
-0.29
-0.83
-1.46
-2.15
-2.83
-3.35
-3.62
-3.66
-3.62
-3.70
-4.02
-4.60
-5.28
-5.85
-6.11
-5.98
-5.46
-4.60
-3.51
-2.30
-1.11
-0.04
0.81
1.45
1.95
2.42
2.91
3.39
3.75
3.92
3.86
3.65
3.42
3.28
3.29
3.39
3.53
3.66
3.80
3.95
4.09
4.13
3.95
3.47
2.72
1.81
0.95
0.27
-0.13
-0.33
-0.45
-0.64
-1.00
-1.52
-2.13
-2.71
-3.17
-3.48
-3.68
-3.85
-4.09
-4.46
-4.98
-5.58
-6.14
-6.52
-6.55
-6.15
-5.30
-4.10
-2.71
-1.33
-0.13
0.81
1.46
1.86
2.07
2.15
2.16
2.14
2.10
2.07
2.05
2.11
2.30
2.65
3.11
3.58
3.91
3.98
3.75
3.31
2.77
2.26
1.80
1.34
0.78
0.10
-0.65
-1.36
-1.90
-2.23
-2.36
-2.40
-2.47
-2.64
-2.96
-3.41
-3.98
-4.63
-5.30
-5.98
-6.59
-7.09
-7.36
-7.34
-6.96
-6.22
-5.16
-3.89
-2.53
-1.18
0.05
1.09
1.86
2.28
2.35
2.13
1.79
1.52
1.50
1.80
2.34
2.97
3.49
3.76
3.71
3.35
2.76
2.02
1.27
0.61
0.19
0.04
0.14
0.36
0.53
0.51
0.23
-0.25
-0.85
-1.46
-2.08
-2.69
-3.31
-3.89
-4.36
-4.68
-4.87
-5.05
-5.34
-5.80
-6.35
-6.79
-6.90
-6.55
-5.76
-4.66
-3.44
-2.25
-1.19
-0.29
0.49
1.16
1.75
2.25
2.67
2.98
3.18
3.28
3.34
3.44
3.64
3.92
4.17
4.26
4.06
3.57
2.92
2.28
1.77
1.44
1.24
1.09
0.92
0.75
0.62
0.53
0.45
0.29
-0.05
-0.60
-1.31
-2.06
-2.75
-3.28
-3.67
-3.97
-4.27
-4.64
-5.08
-5.54
-5.91
-6.08
-5.96
-5.50
-4.75
-3.78
-2.70
-1.62
-0.58
0.39
1.33
2.25
3.12
3.87
4.42
4.73
4.83
4.80
4.75
4.78
4.88
4.98
5.00
4.89
4.70
4.51
4.44
4.47
4.54
4.50
4.24
3.75
3.16
2.63
2.26
2.09
2.01
1.91
1.71
1.41
1.10
0.86
0.67
0.43
0.03
-0.60
-1.40
-2.22
-2.89
-3.32
-3.54
-3.63
-3.68
-3.68
-3.54
-3.13
-2.41
-1.40
-0.21
0.99
2.07
2.95
3.58
3.95
4.04
3.87
3.52
3.06
2.65
2.39
2.36
2.57
2.93
3.31
3.57
3.60
3.38
2.98
2.52
2.11
1.81
1.60
1.43
1.23
0.99
0.69
0.37
0.03
-0.33
-0.71
-1.10
-1.49
-1.86
-2.20
-2.48
-2.66
-2.72
-2.66
-2.51
-2.37
-2.37
-2.62
-3.21
-4.10
-5.19
-6.28
-7.12
-7.53
-7.34
-6.50
-5.08
-3.25
-1.25
0.59
2.04
2.93
3.26
3.17
2.85
2.48
2.15
1.88
1.62
1.36
1.13
1.00
1.05
1.28
1.64
2.05
2.44
2.79
3.11
3.40
3.65
3.78
3.71
3.38
2.86
2.24
1.64
1.14
0.71
0.30
-0.14
-0.61
-1.06
-1.42
-1.70
-1.97
-2.35
-2.93
-3.73
-4.69
-5.66
-6.52
-7.13
-7.38
-7.19
-6.48
-5.25
-3.62
-1.78
0.02
1.56
2.73
3.55
4.09
4.47
4.73
4.90
4.99
4.97
4.87
4.65
4.33
3.92
3.49
3.13
2.90
2.82
2.81
2.76
2.58
2.29
1.95
1.64
1.38
1.14
0.90
0.66
0.49
0.43
0.47
0.50
0.41
0.11
-0.36
-0.92
-1.46
-1.95
-2.40
-2.85
-3.32
-3.78
-4.21
-4.59
-4.90
-5.11
-5.13
-4.85
-4.16
-3.11
-1.85
-0.65
0.26
0.78
0.95
0.94
0.95
1.09
1.39
1.79
2.17
2.45
2.61
2.65
2.62
2.58
2.58
2.64
2.73
2.82
2.84
2.77
2.58
2.30
1.96
1.62
1.30
1.02
0.77
0.50
0.19
-0.17
-0.60
-1.07
-1.58
-2.10
-2.61
-3.09
-3.52
-3.92
-4.32
-4.77
-5.32
-5.92
-6.48
-6.82
-6.80
-6.38
-5.62
-4.67
-3.67
-2.72
-1.84
-1.00
-0.19
0.57
1.20
1.63
1.79
1.70
1.44
1.13
0.87
0.72
0.65
0.57
0.42
0.18
-0.12
-0.36
-0.48
-0.45
-0.35
-0.30
-0.41
-0.75
-1.28
-1.91
-2.51
-3.00
-3.35
-3.62
-3.90
-4.29
-4.81
-5.44
-6.06
-6.56
-6.90
-7.12
-7.27
-7.40
-7.44
-7.25
-6.70
-5.74
-4.48
-3.13
-1.92
-0.95
-0.22
0.37
0.91
1.38
1.72
1.87
1.83
1.74
1.76
2.02
2.50
3.10
3.61
3.91
3.95
3.80
3.58
3.40
3.32
3.32
3.34
3.30
3.15
2.86
2.46
1.95
1.36
0.69
-0.04
-0.81
-1.55
-2.22
-2.77
-3.19
-3.52
-3.85
-4.21
-4.59
-4.89
-4.93
-4.54
-3.64
-2.29
-0.64
1.10
2.72
4.11
5.22
6.07
6.72
7.25
7.79
8.46
9.34
10.43
11.62
12.71
13.55
14.12
14.51
14.92
15.57
16.54
17.81
19.23
20.64
21.95
23.14
24.30
25.57
27.14
29.20
31.86
34.96
37.98
39.93
39.56
35.70
27.75
15.97
1.52
-13.86
-28.32
-40.32
-48.85
-53.46
-54.12
-51.24
-45.60
-38.39
-30.98
-24.60
-19.98
-17.21
-15.82
-15.09
-14.42
-13.54
-12.50
-11.49
-10.68
-10.14
-9.80
-9.54
-9.26
-8.87
-8.32
-7.63
-6.81
-5.92
-4.99
-3.99
-2.89
-1.67
-0.42
0.73
1.60
2.12
2.33
2.35
2.34
2.36
2.37
2.27
1.93
1.34
0.55
-0.32
-1.17
-1.94
-2.62
-3.22
-3.69
-3.96
-3.94
-3.55
-2.79
-1.72
-0.47
0.80
1.94
2.86
3.54
4.02
4.36
4.63
4.89
5.17
5.46
5.73
5.92
5.97
5.88
5.72
5.53
5.36
5.18
4.93
4.54
3.99
3.35
2.69
2.11
1.60
1.15
0.70
0.26
-0.15
-0.48
-0.74
-0.99
-1.36
-1.90
-2.65
-3.54
-4.50
-5.41
-6.21
-6.80
-7.12
-7.11
-6.78
-6.15
-5.25
-4.13
-2.79
-1.26
0.33
1.81
2.96
3.65
3.89
3.84
3.76
3.85
4.19
4.75
5.40
6.04
6.58
7.00
7.31
7.54
7.73
7.94
8.25
8.65
9.10
9.51
9.80
9.99
10.21
10.66
11.53
12.88
14.58
16.30
17.68
18.42
18.51
18.23
18.11
18.64
20.09
22.34
24.95
27.39
29.34
30.90
32.52
34.78
38.17
42.94
49.10
56.47
64.47
71.91
76.88
77.10
70.70
57.07
37.43
14.57
-8.11
-27.75
-42.94
-53.76
-61.33
-67.01
-71.87
-76.59
-81.58
-87.15
-93.36
-99.82
-105.62
-109.40
-109.76
-105.74
-97.13
-84.67
-69.92
-54.97
-41.93
-32.42
-27.04
-25.20
-25.37
-25.71
-24.82
-22.29
-18.73
-15.31
-13.11
-12.58
-13.39
-14.72
-15.70
-15.76
-14.73
-12.64
-9.55
-5.37
0.02
6.62
14.11
21.81
28.80
34.19
37.41
38.32
37.29
34.98
32.11
29.21
26.53
24.03
21.57
19.05
16.58
14.38
12.74
11.74
11.28
11.06
10.73
10.12
9.22
8.19
7.21
6.40
5.71
5.03
4.28
3.39
2.41
1.35
0.25
-0.86
-1.92
-2.82
-3.37
-3.42
-2.93
-1.95
-0.67
0.68
1.91
2.90
3.61
4.09
4.46
4.86
5.37
6.02
6.73
7.35
7.79
8.07
8.35
8.81
9.57
10.55
11.51
12.16
12.34
12.10
11.69
11.42
11.51
11.98
12.69
13.47
14.18
14.82
15.45
16.14
16.94
17.83
18.76
19.62
20.33
20.76
20.81
20.46
19.82
19.19
19.00
19.75
21.80
25.24
29.76
34.62
38.74
40.99
40.52
37.04
30.91
23.01
14.45
6.21
-0.94
-6.58
-10.53
-12.88
-13.89
-14.09
-14.11
-14.54
-15.81
-18.02
-21.08
-24.71
-28.61
-32.42
-35.76
-38.18
-39.39
-39.33
-38.29
-36.76
-35.23
-33.96
-32.87
-31.79
-30.60
-29.51
-28.97
-29.39
-30.85
-33.04
-35.46
-37.71
-39.75
-41.78
-44.01
-46.39
-48.61
-50.30
-51.38
-52.12
-52.91
-53.83
-54.34
-53.28
-49.40
-41.93
-30.99
-17.64
-3.42
10.19
22.14
31.98
39.69
45.44
49.38
51.47
51.70
50.16
47.19
43.37
39.32
35.49
32.07
28.91
25.75
22.37
18.79
15.26
12.14
9.72
8.02
6.87
5.95
5.01
4.03
3.18
2.74
2.89
3.58
4.52
5.30
5.57
5.22
4.39
3.41
2.66
2.40
2.76
3.70
5.08
6.72
8.49
10.28
12.04
13.68
15.15
16.37
17.32
18.07
18.76
19.62
20.84
22.51
24.57
26.78
28.89
30.68
32.08
33.15
33.96
34.50
34.62
34.12
32.81
30.66
27.86
24.69
21.42
18.19
14.98
11.67
8.19
4.59
1.00
-2.32
-5.10
-6.97
-7.49
-6.20
-2.74
2.92
10.36
18.76
27.15
34.66
40.83
45.53
48.79
50.54
50.51
48.42
44.24
38.47
32.06
26.05
21.15
17.50
14.72
12.19
9.54
6.76
4.24
2.42
1.46
1.06
0.59
-0.62
-2.93
-6.19
-9.88
-13.39
-16.38
-19.03
-21.91
-25.65
-30.57
-36.44
-42.53
-47.92
-51.86
-53.98
-54.28
-53.00
-50.38
-46.68
-42.18
-37.36
-32.85
-29.31
-27.19
-26.54
-27.08
-28.33
-29.86
-31.46
-33.05
-34.58
-35.92
-36.76
-36.76
-35.72
-33.71
-31.12
-28.47
-26.23
-24.65
-23.67
-23.03
-22.37
-21.45
-20.21
-18.77
-17.40
-16.33
-15.67
-15.41
-15.42
-15.54
-15.70
-15.89
-16.16
-16.53
-16.99
-17.40
-17.57
-17.29
-16.37
-14.72
-12.38
-9.49
-6.33
-3.16
-0.23
2.37
4.66
6.69
8.49
10.07
11.41
12.55
13.57
14.56
15.48
16.19
16.44
16.04
14.97
13.44
11.82
10.49
9.67
9.34
9.29
9.23
8.93
8.37
7.65
7.01
6.61
6.48
6.48
6.35
5.86
4.89
3.50
1.83
0.06
-1.68
-3.22
-4.37
-4.89
-4.60
-3.49
-1.87
-0.25
0.72
0.55
-0.94
-3.58
-6.92
-10.36
-13.31
-15.31
-16.08
-15.61
-14.16
-12.14
-10.02
-8.15
-6.69
-5.60
-4.74
-4.01
-3.33
-2.75
-2.32
-2.09
-2.05
-2.20
-2.52
-3.01
-3.66
-4.47
-5.43
-6.53
-7.74
-8.97
-10.14
-11.10
-11.75
-12.00
-11.77
-10.99
-9.59
-7.50
-4.76
-1.51
1.94
5.22
8.00
10.08
11.49
12.40
13.07
13.69
14.37
15.07
15.76
16.40
17.01
17.60
18.16
18.62
18.87
18.81
18.43
17.80
17.02
16.20
15.40
14.60
13.75
12.81
11.76
10.65
9.58
8.64
7.89
7.29
6.71
5.97
4.92
3.53
1.87
0.08
-1.64
-3.12
-4.16
-4.60
-4.28
-3.18
-1.45
0.59
2.51
3.98
4.83
5.14
5.11
4.97
4.82
4.68
4.50
4.31
4.18
4.24
4.58
5.15
5.77
6.22
6.33
6.07
5.54
4.95
4.46
4.19
4.13
4.25
4.47
4.74
4.97
5.11
5.10
4.93
4.64
4.29
3.90
3.41
2.68
1.63
0.27
-1.19
-2.48
-3.29
-3.45
-2.98
-2.05
-0.91
0.21
1.19
2.00
2.66
3.24
3.73
4.06
4.17
4.00
3.59
3.06
2.56
2.27
2.28
2.58
3.05
3.56
3.95
4.14
4.13
4.00
3.82
3.64
3.44
3.16
2.73
2.10
1.29
0.35
-0.63
-1.53
-2.25
-2.69
-2.82
-2.72
-2.56
-2.57
-2.95
-3.73
-4.78
-5.82
-6.53
-6.69
-6.19
-5.08
-3.53
-1.76
-0.02
1.49
2.64
3.38
3.77
3.90
3.85
3.66
3.34
2.91
2.48
2.13
1.96
1.97
2.05
2.06
1.86
1.48
1.00
0.57
0.30
0.20
0.18
0.10
-0.15
-0.59
-1.16
-1.75
-2.27
-2.68
-3.01
-3.33
-3.67
-4.01
-4.27
-4.38
-4.29
-4.06
-3.74
-3.40
-3.08
-2.75
-2.36
-1.89
-1.35
-0.77
-0.20
0.38
0.97
1.59
2.19
2.68
2.94
2.88
2.47
1.80
1.01
0.30
-0.23
-0.53
-0.66
-0.70
-0.74
-0.79
-0.87
-0.96
-1.10
-1.32
-1.65
-2.10
-2.61
-3.09
-3.45
-3.64
-3.67
-3.65
-3.74
-4.10
-4.76
-5.64
-6.52
-7.14
-7.28
-6.87
-5.99
-4.83
-3.63
-2.60
-1.86
-1.46
-1.39
-1.54
-1.78
-1.95
-1.92
-1.64
-1.20
-0.79
-0.61
-0.82
-1.38
-2.17
-2.96
-3.53
-3.80
-3.78
-3.60
-3.39
-3.29
-3.32
-3.47
-3.65
-3.81
-3.92
-3.99
-4.06
-4.14
-4.29
-4.50
-4.81
-5.20
-5.64
-6.02
-6.20
-6.09
-5.61
-4.83
-3.90
-3.00
-2.23
-1.64
-1.18
-0.82
-0.51
-0.29
-0.16
-0.13
-0.13
-0.09
0.04
0.26
0.49
0.60
0.55
0.34
0.07
-0.11
-0.09
0.16
0.61
1.15
1.64
1.98
2.07
1.85
1.32
0.52
-0.45
-1.49
-2.53
-3.55
-4.54
-5.51
-6.37
-6.92
-6.91
-6.13
-4.52
-2.24
0.46
3.25
5.86
8.05
9.70
10.68
10.92
10.39
9.15
7.41
5.46
3.65
2.29
1.58
1.52
1.97
2.65
3.27
3.62
3.61
3.27
2.69
1.94
1.10
0.20
-0.69
-1.51
-2.21
-2.87
-3.58
-4.48
-5.60
-6.81
-7.84
-8.38
-8.24
-7.37
-5.89
-4.07
-2.18
-0.42
1.07
2.26
3.11
3.61
3.73
3.49
2.96
2.32
1.80
1.62
1.86
2.46
3.21
3.84
4.17
4.14
3.83
3.36
2.85
2.37
1.92
1.48
1.03
0.55
0.06
-0.43
-0.93
-1.45
-1.99
-2.55
-3.03
-3.29
-3.18
-2.56
-1.44
0.05
1.69
3.19
4.35
5.13
5.58
5.83
5.96
6.02
5.96
5.75
5.39
4.94
4.52
4.25
4.19
4.34
4.58
4.79
4.82
4.59
4.09
3.38
2.55
1.73
0.98
0.38
-0.06
-0.33
-0.46
-0.54
-0.68
-1.02
-1.61
-2.39
-3.16
-3.65
-3.64
-3.01
-1.88
-0.47
0.93
2.09
2.95
3.53
3.89
4.08
4.10
3.95
3.66
3.31
2.99
2.77
2.69
2.74
2.90
3.13
3.38
3.61
3.75
3.81
3.78
3.74
3.71
3.69
3.61
3.37
2.95
2.39
1.81
1.33
1.05
1.00
1.19
1.60
2.19
2.89
3.58
4.15
4.56
4.83
5.08
5.41
5.79
6.07
6.08
5.72
5.08
4.42
4.05
4.17
4.79
5.79
6.92
7.96
8.74
9.15
9.08
8.45
7.29
5.71
3.97
2.35
1.11
0.30
-0.14
-0.42
-0.70
-1.07
-1.44
-1.68
-1.66
-1.37
-0.90
-0.41
-0.03
0.27
0.58
1.02
1.60
2.16
2.46
2.29
1.58
0.48
-0.70
-1.69
-2.32
-2.57
-2.54
-2.36
-2.15
-1.98
-1.90
-1.93
-2.11
-2.44
-2.90
-3.43
-3.96
-4.47
-4.90
-5.26
-5.53
-5.71
-5.79
-5.75
-5.54
-5.13
-4.51
-3.69
-2.78
-1.90
-1.16
-0.64
-0.35
-0.20
-0.11
0.01
0.18
0.32
0.35
0.18
-0.19
-0.67
-1.08
-1.25
-1.10
-0.68
-0.15
0.26
0.40
0.25
-0.14
-0.62
-1.08
-1.46
-1.73
-1.93
-2.07
-2.18
-2.22
-2.17
-2.03
-1.80
-1.54
-1.30
-1.15
-1.10
-1.14
-1.24
-1.36
-1.50
-1.65
-1.78
-1.87
-1.89
-1.79
-1.59
-1.33
-1.08
-0.96
-1.06
-1.44
-2.06
-2.79
-3.43
-3.79
-3.78
-3.46
-3.00
-2.59
-2.30
-2.02
-1.57
-0.78
0.30
1.40
2.15
2.22
1.55
0.36
-0.87
-1.70
-1.86
-1.37
-0.48
0.51
1.37
2.03
2.52
2.90
3.17
3.30
3.25
3.01
2.63
2.16
1.67
1.15
0.61
0.04
-0.50
-0.97
-1.34
-1.67
-2.01
-2.42
-2.90
-3.38
-3.78
-4.07
-4.26
-4.40
-4.57
-4.78
-5.00
-5.16
-5.16
-4.98
-4.59
-4.02
-3.31
-2.52
-1.75
-1.10
-0.67
-0.52
-0.61
-0.86
-1.13
-1.28
-1.18
-0.74
0.05
1.06
2.11
2.95
3.37
3.28
2.74
1.90
0.99
0.22
-0.23
-0.28
0.03
0.58
1.18
1.62
1.75
1.58
1.21
0.81
0.50
0.29
0.07
-0.28
-0.84
-1.61
-2.52
-3.47
-4.36
-5.09
-5.55
-5.64
-5.31
-4.62
-3.72
-2.88
-2.32
-2.22
-2.56
-3.16
-3.76
-4.09
-3.89
-3.00
-1.35
0.99
3.78
6.65
9.13
10.82
11.43
10.94
9.52
7.54
5.42
3.55
2.26
1.74
2.00
2.92
4.20
5.44
6.25
6.36
5.69
4.42
2.87
1.41
0.34
-0.24
-0.40
-0.32
-0.22
-0.23
-0.38
-0.63
-0.91
-1.19
-1.49
-1.84
-2.24
-2.60
-2.78
-2.64
-2.12
-1.31
-0.45
0.24
0.60
0.68
0.68
0.86
1.40
2.31
3.41
4.46
5.23
5.62
5.70
5.60
5.50
5.48
5.51
5.46
5.20
4.69
4.03
3.43
3.05
2.92
2.90
2.71
2.13
1.06
-0.37
-1.91
-3.26
-4.19
-4.59
-4.52
-4.14
-3.65
-3.24
-3.03
-3.06
-3.28
-3.62
-3.96
-4.23
-4.39
-4.42
-4.29
-4.02
-3.62
-3.12
-2.52
-1.81
-0.96
0.03
1.07
2.01
2.64
2.81
2.51
1.89
1.20
0.66
0.38
0.36
0.47
0.60
0.71
0.86
1.10
1.48
1.90
2.20
2.22
1.90
1.25
0.37
-0.63
-1.66
-2.67
-3.58
-4.28
-4.70
-4.84
-4.86
-5.03
-5.66
-6.98
-9.01
-11.57
-14.26
-16.63
-18.17
-18.49
-17.32
-14.62
-10.61
-5.67
-0.36
4.79
9.31
12.84
15.17
16.19
15.92
14.46
12.08
9.20
6.31
3.95
2.57
2.36
3.25
4.89
6.77
8.41
9.50
9.96
9.93
9.60
9.09
8.40
7.46
6.19
4.66
3.00
1.42
0.06
-1.05
-1.98
-2.79
-3.49
-3.99
-4.18
-3.97
-3.39
-2.51
-1.51
-0.55
0.17
0.48
0.30
-0.34
-1.27
-2.20
-2.85
-3.03
-2.72
-2.04
-1.19
-0.36
0.41
1.10
1.76
2.47
3.27
4.19
5.22
6.35
7.49
8.51
9.24
9.53
9.27
8.40
6.88
4.72
1.99
-1.11
-4.25
-6.94
-8.66
-9.02
-7.90
-5.56
-2.52
0.61
3.34
5.47
7.12
8.58
10.25
12.39
15.11
18.29
21.62
24.64
26.79
27.58
26.70
24.15
20.22
15.50
10.65
6.26
2.66
-0.03
-1.91
-3.16
-3.97
-4.50
-4.87
-5.16
-5.44
-5.70
-5.86
-5.78
-5.33
-4.52
-3.53
-2.61
-2.02
-1.86
-2.06
-2.38
-2.51
-2.16
-1.21
0.28
2.12
4.03
5.76
7.21
8.35
9.22
9.84
10.13
9.95
9.20
7.90
6.20
4.32
2.41
0.47
-1.62
-4.00
-6.74
-9.72
-12.75
-15.60
-18.10
-20.17
-21.81
-23.04
-23.92
-24.52
-24.88
-25.04
-24.91
-24.34
-23.11
-21.11
-18.33
-14.96
-11.33
-7.81
-4.80
-2.57
-1.27
-0.90
-1.29
-2.18
-3.28
-4.37
-5.36
-6.31
-7.36
-8.64
-10.21
-11.94
-13.59
-14.88
-15.56
-15.51
-14.73
-13.36
-11.58
-9.57
-7.50
-5.53
-3.79
-2.39
-1.36
-0.60
0.05
0.80
1.76
2.94
4.22
5.43
6.47
7.33
8.02
8.55
8.91
9.05
8.96
8.69
8.35
8.03
7.81
7.67
7.59
7.54
7.50
7.46
7.41
7.28
7.06
6.73
6.34
5.93
5.55
5.16
4.73
4.16
3.40
2.46
1.40
0.34
-0.59
-1.33
-1.85
-2.19
-2.41
-2.57
-2.72
-2.85
-3.00
-3.21
-3.52
-3.95
-4.43
-4.88
-5.14
-5.14
-4.92
-4.56
-4.20
-3.93
-3.81
-3.80
-3.89
-4.06
-4.33
-4.68
-5.06
-5.37
-5.51
-5.40
-5.06
-4.58
-4.07
-3.62
-3.23
-2.84
-2.34
-1.70
-0.96
-0.25
0.27
0.52
0.53
0.43
0.38
0.49
0.82
1.32
1.93
2.56
3.16
3.70
4.13
4.43
4.59
4.65
4.70
4.82
5.06
5.41
5.79
6.10
6.30
6.39
6.44
6.51
6.56
6.50
6.23
5.67
4.88
3.99
3.17
2.53
2.10
1.78
1.43
0.94
0.29
-0.50
-1.33
-2.14
-2.88
-3.55
-4.22
-4.92
-5.67
-6.41
-7.07
-7.54
-7.76
-7.71
-7.43
-6.95
-6.34
-5.62
-4.81
-3.94
-3.07
-2.23
-1.51
-0.95
-0.60
-0.48
-0.55
-0.73
-0.93
-1.03
-0.95
-0.66
-0.20
0.33
0.83
1.21
1.43
1.53
1.56
1.60
1.68
1.80
1.97
2.20
2.52
2.92
3.34
3.69
3.88
3.88
3.71
3.49
3.29
3.09
2.84
2.46
1.91
1.25
0.59
-0.02
-0.57
-1.10
-1.65
-2.18
-2.59
-2.78
-2.72
-2.50
-2.26
-2.16
-2.26
-2.53
-2.88
-3.18
-3.31
-3.18
-2.74
-1.93
-0.76
0.71
2.34
3.95
5.35
6.43
7.15
7.54
7.69
7.73
7.83
8.13
8.72
9.58
10.55
11.41
11.91
11.91
11.38
10.38
9.03
7.44
5.72
3.98
2.36
0.98
-0.06
-0.76
-1.15
-1.31
-1.26
-1.02
-0.59
-0.03
0.57
1.07
1.39
1.49
1.45
1.37
1.36
1.51
1.81
2.20
2.56
2.76
2.77
2.64
2.51
2.57
2.93
3.60
4.48
5.41
6.26
6.93
7.35
7.52
7.42
7.06
6.48
5.69
4.71
3.51
2.06
0.32
-1.70
-3.96
-6.37
-8.80
-11.13
-13.19
-14.84
-15.98
-16.57
-16.65
-16.32
-15.70
-14.92
-14.06
-13.22
-12.45
-11.79
-11.23
-10.68
-9.99
-9.01
-7.65
-5.92
-3.94
-1.90
-0.03
1.47
2.52
3.14
3.52
3.88
4.40
5.17
6.09
7.05
7.90
8.61
9.21
9.76
10.27
10.74
11.14
11.53
11.98
12.58
13.32
14.13
14.85
15.40
15.83
16.26
16.84
17.63
18.58
19.57
20.49
21.27
21.93
22.49
22.97
23.37
23.68
23.98
24.41
25.13
26.18
27.47
28.61
29.06
28.25
25.82
21.74
16.31
10.03
3.35
-3.52
-10.63
-18.09
-25.90
-33.79
-41.28
-47.83
-53.09
-56.98
-59.63
-61.27
-62.04
-62.00
-61.13
-59.51
-57.37
-54.94
-52.36
-49.45
-45.80
-40.93
-34.60
-27.00
-18.69
-10.40
-2.73
4.05
9.94
15.02
19.20
22.20
23.68
23.57
22.22
20.32
18.61
17.55
17.08
16.72
15.84
14.06
11.44
8.45
5.72
3.71
2.52
1.92
1.51
0.96
0.12
-0.94
-2.03
-2.96
-3.62
-3.98
-4.06
-3.88
-3.46
-2.79
-1.95
-1.09
-0.47
-0.38
-1.01
-2.38
-4.24
-6.19
-7.79
-8.80
-9.27
-9.48
-9.85
-10.68
-12.04
-13.73
-15.36
-16.51
-16.90
-16.44
-15.26
-13.56
-11.60
-9.56
-7.59
-5.79
-4.22
-2.96
-2.03
-1.41
-1.01
-0.72
-0.43
-0.07
0.36
0.85
1.42
2.11
3.01
4.17
5.56
7.07
8.54
9.85
10.94
11.84
12.60
13.23
13.65
13.69
13.25
12.27
10.91
9.40
8.00
6.88
6.03
5.32
4.63
3.86
3.07
2.36
1.84
1.55
1.43
1.37
1.29
1.16
1.03
0.93
0.93
1.04
1.29
1.73
2.44
3.50
4.94
6.69
8.55
10.23
11.39
11.81
11.41
10.28
8.65
6.77
4.83
2.96
1.26
-0.12
-1.03
-1.33
-0.99
-0.16
0.89
1.88
2.59
2.93
2.93
2.64
2.09
1.27
0.16
-1.25
-2.89
-4.63
-6.33
-7.83
-9.00
-9.73
-9.99
-9.77
-9.17
-8.31
-7.36
-6.45
-5.67
-5.04
-4.53
-4.11
-3.79
-3.61
-3.65
-3.97
-4.56
-5.32
-6.13
-6.84
-7.38
-7.70
-7.82
-7.71
-7.36
-6.73
-5.81
-4.62
-3.23
-1.71
-0.09
1.62
3.44
5.35
7.32
9.22
10.88
12.10
12.73
12.67
11.94
10.63
8.93
7.08
5.36
4.05
3.36
3.40
4.20
5.63
7.46
9.40
11.15
12.50
13.38
13.86
14.05
14.03
13.80
13.20
12.07
10.32
8.03
5.46
2.87
0.47
-1.67
-3.61
-5.41
-7.10
-8.61
-9.86
-10.83
-11.58
-12.20
-12.76
-13.27
-13.66
-13.82
-13.68
-13.22
-12.49
-11.56
-10.46
-9.23
-7.91
-6.54
-5.20
-4.00
-3.04
-2.35
-1.84
-1.34
-0.67
0.28
1.49
2.83
4.14
5.34
6.44
7.49
8.51
9.44
10.18
10.66
10.84
10.79
10.56
10.20
9.67
8.95
8.06
7.07
6.10
5.24
4.48
3.76
3.00
2.17
1.33
0.58
-0.02
-0.48
-0.90
-1.37
-1.96
-2.60
-3.20
-3.60
-3.77
-3.77
-3.73
-3.76
-3.92
-4.20
-4.51
-4.85
-5.23
-5.71
-6.28
-6.83
-7.20
-7.20
-6.78
-6.01
-5.04
-4.09
-3.29
-2.72
-2.37
-2.16
-1.99
-1.68
-1.09
-0.15
1.12
2.52
3.78
4.64
4.99
4.87
4.48
4.08
3.86
3.89
4.12
4.44
4.73
4.92
5.00
5.00
4.96
4.92
4.86
4.78
4.70
4.66
4.73
4.99
5.46
6.11
6.84
7.52
8.04
8.33
8.39
8.30
8.13
7.90
7.62
7.25
6.76
6.17
5.57
5.04
4.66
4.47
4.45
4.55
4.68
4.75
4.64
4.19
3.21
1.56
-0.80
-3.73
-6.93
-9.96
-12.45
-14.11
-14.88
-14.85
-14.19
-13.08
-11.65
-10.01
-8.25
-6.53
-4.99
-3.80
-3.01
-2.60
-2.47
-2.49
-2.55
-2.57
-2.53
-2.43
-2.25
-1.90
-1.30
-0.37
0.85
2.22
3.50
4.50
5.09
5.30
5.30
5.26
5.29
5.41
5.54
5.62
5.62
5.64
5.79
6.17
6.83
7.71
8.74
9.82
10.83
11.59
11.86
11.37
9.96
7.74
5.14
2.83
1.44
1.24
1.96
2.93
3.38
2.84
1.41
-0.32
-1.52
-1.51
0.00
2.90
6.84
11.43
16.35
21.28
25.90
29.86
32.83
34.63
35.28
34.90
33.66
31.62
28.79
25.20
21.01
16.53
12.14
8.15
4.68
1.59
-1.49
-5.03
-9.45
-14.96
-21.43
-28.37
-35.09
-40.93
-45.54
-48.98
-51.64
-53.92
-55.99
-57.61
-58.37
-57.98
-56.49
-54.32
-52.12
-50.47
-49.78
-50.29
-52.08
-54.96
-58.35
-61.13
-61.72
-58.60
-50.88
-38.71
-23.37
-6.80
9.01
22.58
33.17
40.65
45.27
47.39
47.38
45.64
42.63
38.89
34.88
31.00
27.47
24.38
21.72
19.48
17.63
16.17
15.11
14.44
14.14
14.07
14.06
13.89
13.37
12.41
11.04
9.38
7.61
5.90
4.38
3.15
2.23
1.55
1.03
0.50
-0.13
-0.95
-1.93
-2.99
-4.06
-5.10
-6.11
-7.17
-8.30
-9.47
-10.56
-11.43
-11.98
-12.25
-12.38
-12.57
-12.98
-13.61
-14.35
-14.97
-15.20
-14.89
-13.98
-12.54
-10.72
-8.67
-6.52
-4.32
-2.10
0.18
2.50
4.85
7.21
9.53
11.83
14.11
16.38
18.58
20.61
22.32
23.61
24.47
24.99
25.27
25.36
25.25
24.83
23.99
22.77
21.29
19.84
18.72
18.13
18.11
18.54
19.21
19.92
20.55
21.07
21.48
21.73
21.74
21.41
20.71
19.71
18.60
17.55
16.69
16.05
15.54
14.99
14.18
12.76
10.20
5.73
-1.43
-11.88
-25.65
-42.02
-59.59
-76.60
-91.29
-102.32
-108.94
-111.00
-108.90
-103.51
-96.05
-87.92
-80.40
-74.31
-69.71
-65.88
-61.58
-55.53
-46.90
-35.59
-22.28
-8.16
5.43
17.34
26.82
33.55
37.53
39.03
38.51
36.58
34.00
31.55
29.83
29.16
29.44
30.21
30.87
30.80
29.52
26.80
22.67
17.48
11.95
6.96
3.30
1.37
1.01
1.53
2.03
1.81
0.74
-0.71
-1.84
-2.16
-1.69
-0.90
-0.52
-1.14
-2.95
-5.58
-8.26
-10.22
-10.98
-10.53
-9.23
-7.63
-6.24
-5.29
-4.49
-3.11
-0.34
4.43
11.30
19.95
29.77
39.75
47.93
52.04
50.72
44.32
34.73
24.37
15.39
9.10
5.62
4.11
3.51
3.24
3.38
4.60
7.18
10.60
13.46
14.03
11.06
4.59
-4.01
-12.57
-18.58
-19.99
-15.32
-4.08
12.76
32.40
50.56
62.66
64.18
54.75
37.66
18.17
1.18
-10.64
-17.36
-20.75
-22.69
-24.01
-24.28
-22.86
-19.84
-16.27
-13.69
-13.31
-15.37
-18.92
-22.30
-23.76
-22.12
-17.50
-11.17
-4.92
-0.40
1.57
1.24
-0.28
-1.51
-1.36
0.41
3.29
6.30
8.51
9.32
8.74
7.19
5.37
3.87
2.91
2.38
2.04
1.66
1.22
0.94
1.15
2.12
3.87
6.11
8.39
10.26
11.47
12.05
12.09
11.87
11.64
11.59
11.84
12.38
13.24
14.38
15.72
17.09
18.25
18.92
18.81
17.81
15.97
13.56
11.01
8.75
7.16
6.40
6.37
6.75
7.10
7.04
6.38
5.16
3.63
2.13
0.90
-0.01
-0.81
-1.89
-3.66
-6.34
-9.80
-13.59
-17.07
-19.73
-21.42
-22.45
-23.39
-24.74
-26.58
-28.46
-29.57
-29.22
-27.19
-23.85
-20.03
-16.59
-14.06
-12.43
-11.37
-10.47
-9.51
-8.50
-7.55
-6.67
-5.71
-4.39
-2.50
-0.09
2.54
4.93
6.61
7.29
6.95
5.91
4.74
4.16
4.82
7.07
10.79
15.37
20.00
23.98
26.99
29.11
30.62
31.84
32.96
34.13
35.47
37.02
38.65
39.85
39.87
38.03
34.23
29.14
24.03
20.23
18.48
18.60
19.66
20.55
20.46
19.17
16.93
14.13
11.08
7.94
4.82
1.97
-0.31
-1.68
-2.02
-1.48
-0.47
0.46
0.85
0.44
-0.84
-2.84
-5.29
-7.90
-10.44
-12.79
-14.87
-16.72
-18.31
-19.65
-20.69
-21.42
-21.87
-22.18
-22.49
-22.96
-23.67
-24.58
-25.56
-26.46
-27.12
-27.48
-27.53
-27.40
-27.23
-27.24
-27.59
-28.39
-29.63
-31.17
-32.81
-34.30
-35.44
-36.10
-36.24
-35.86
-35.01
-33.70
-31.91
-29.64
-26.88
-23.69
-20.21
-16.65
-13.24
-10.10
-7.32
-4.92
-3.04
-1.87
-1.70
-2.67
-4.66
-7.22
-9.59
-11.00
-10.89
-9.14
-6.04
-2.28
1.33
4.05
5.32
4.93
3.05
0.18
-2.94
-5.58
-7.21
-7.64
-6.95
-5.42
-3.31
-0.88
1.68
4.16
6.31
7.94
8.92
9.35
9.43
9.39
9.35
9.25
8.88
8.01
6.52
4.49
2.17
-0.04
-1.72
-2.57
-2.45
-1.46
0.19
2.18
4.21
6.05
7.50
8.44
8.76
8.47
7.62
6.34
4.77
3.06
1.33
-0.26
-1.49
-2.07
-1.70
-0.15
2.67
6.62
11.39
16.52
21.45
25.66
28.74
30.49
30.95
30.37
29.09
27.41
25.55
23.60
21.68
19.94
18.65
18.10
18.46
19.66
21.41
23.23
24.70
25.55
25.71
25.25
24.25
22.78
20.90
18.80
16.81
15.38
14.90
15.46
16.88
18.72
20.52
21.98
23.01
23.64
23.91
23.77
23.11
21.94
20.44
19.01
18.12
18.10
19.01
20.61
22.42
23.91
24.58
24.03
22.01
18.51
13.74
8.19
2.46
-2.84
-7.33
-10.94
-13.85
-16.36
-18.70
-21.04
-23.41
-25.89
-28.53
-31.38
-34.36
-37.21
-39.54
-41.00
-41.44
-40.95
-39.83
-38.38
-36.81
-35.19
-33.48
-31.68
-29.80
-27.93
-26.12
-24.39
-22.72
-21.13
-19.69
-18.53
-17.75
-17.29
-16.95
-16.42
-15.44
-13.94
-12.10
-10.25
-8.78
-7.92
-7.68
-7.87
-8.21
-8.42
-8.35
-7.98
-7.40
-6.72
-6.10
-5.68
-5.55
-5.74
-6.22
-6.87
-7.50
-7.92
-7.99
-7.68
-7.03
-6.17
-5.29
-4.52
-3.98
-3.70
-3.61
-3.65
-3.69
-3.64
-3.46
-3.11
-2.62
-2.07
-1.59
-1.30
-1.26
-1.45
-1.74
-1.94
-1.87
-1.47
-0.85
-0.20
0.29
0.47
0.34
0.01
-0.41
-0.80
-1.10
-1.28
-1.28
-1.08
-0.69
-0.19
0.28
0.58
0.62
0.40
0.02
-0.40
-0.74
-0.95
-0.99
-0.85
-0.56
-0.16
0.24
0.53
0.58
0.36
-0.06
-0.47
-0.71
-0.67
-0.38
0.01
0.38
0.65
0.84
1.03
1.28
1.55
1.75
1.75
1.48
0.98
0.38
-0.14
-0.44
-0.47
-0.25
0.12
0.54
0.87
1.00
0.89
0.56
0.13
-0.20
-0.20
0.29
1.37
2.95
4.86
6.79
8.39
9.32
9.37
8.57
7.15
5.48
3.82
2.17
0.28
-2.26
-5.73
-10.00
-14.58
-18.77
-21.96
-23.88
-24.71
-24.91
-24.98
-25.24
-25.69
-26.10
-26.04
-25.11
-23.03
-19.76
-15.48
-10.64
-5.81
-1.59
1.52
3.34
3.98
3.97
3.96
4.58
6.09
8.33
10.78
12.85
14.11
14.51
14.25
13.68
13.06
12.54
12.20
12.18
12.72
14.06
16.27
19.09
21.89
23.88
24.37
23.13
20.44
16.93
13.33
10.14
7.47
5.13
2.90
0.68
-1.42
-3.16
-4.35
-4.99
-5.21
-5.18
-5.04
-4.77
-4.31
-3.62
-2.71
-1.71
-0.76
-0.02
0.42
0.54
0.37
0.02
-0.41
-0.80
-1.09
-1.25
-1.33
-1.39
-1.50
-1.68
-1.96
-2.30
-2.65
-2.96
-3.18
-3.30
-3.30
-3.22
-3.09
-2.93
-2.78
-2.62
-2.44
-2.24
-2.03
-1.84
-1.70
-1.61
-1.57
-1.50
-1.38
-1.16
-0.88
-0.57
-0.28
0.01
0.37
0.87
1.55
2.36
3.20
3.93
4.46
4.77
4.91
4.96
4.97
4.93
4.80
4.54
4.17
3.74
3.35
3.11
3.02
3.07
3.20
3.36
3.54
3.71
3.85
3.89
3.77
3.50
3.13
2.77
2.51
2.40
2.38
2.35
2.22
1.95
1.56
1.08
0.56
0.03
-0.49
-0.91
-1.14
-1.05
-0.59
0.16
1.03
1.78
2.22
2.29
2.05
1.68
1.36
1.22
1.25
1.34
1.36
1.18
0.76
0.20
-0.33
-0.62
-0.58
-0.20
0.34
0.82
1.04
0.87
0.38
-0.29
-0.95
-1.43
-1.68
-1.72
-1.65
-1.51
-1.36
-1.20
-1.09
-1.16
-1.51
-2.22
-3.24
-4.35
-5.27
-5.75
-5.67
-5.11
-4.27
-3.40
-2.70
-2.25
-2.00
-1.82
-1.59
-1.18
-0.57
0.22
1.09
1.96
2.75
3.45
4.08
4.63
5.12
5.54
5.90
6.22
6.53
6.82
7.01
7.02
6.79
6.36
5.88
5.49
5.31
5.29
5.27
5.07
4.54
3.67
2.62
1.60
0.79
0.28
0.02
-0.14
-0.36
-0.71
-1.19
-1.70
-2.11
-2.36
-2.43
-2.37
-2.28
-2.17
-2.02
-1.74
-1.27
-0.61
0.13
0.77
1.20
1.33
1.26
1.13
1.14
1.42
2.01
2.79
3.58
4.19
4.52
4.61
4.54
4.44
4.39
4.40
4.40
4.31
4.07
3.69
3.24
2.84
2.62
2.65
2.91
3.26
3.53
3.56
3.27
2.72
2.07
1.52
1.21
1.17
1.35
1.62
1.82
1.79
1.48
0.87
0.04
-0.86
-1.62
-2.06
-2.04
-1.58
-0.79
0.15
1.06
1.81
2.40
2.88
3.33
3.80
4.25
4.61
4.85
5.03
5.25
5.59
6.06
6.53
6.83
6.82
6.48
5.89
5.20
4.56
4.03
3.64
3.41
3.36
3.52
3.86
4.24
4.49
4.41
3.96
3.19
2.29
1.40
0.54
-0.38
-1.49
-2.86
-4.40
-5.92
-7.18
-8.08
-8.59
-8.78
-8.66
-8.20
-7.26
-5.78
-3.83
-1.66
0.41
2.10
3.31
4.10
4.69
5.23
5.78
6.18
6.20
5.66
4.52
2.95
1.25
-0.30
-1.53
-2.45
-3.28
-4.29
-5.77
-7.91
-10.73
-14.10
-17.75
-21.27
-24.28
-26.42
-27.47
-27.37
-26.23
-24.23
-21.61
-18.61
-15.49
-12.52
-9.92
-7.83
-6.20
-4.86
-3.59
-2.20
-0.67
0.87
2.21
3.20
3.77
4.00
4.01
3.89
3.68
3.39
3.07
2.79
2.68
2.82
3.19
3.73
4.32
4.84
5.28
5.65
6.00
6.29
6.46
6.40
6.09
5.58
5.05
4.70
4.70
5.05
5.66
6.38
7.08
7.68
8.16
8.50
8.67
8.60
8.25
7.65
6.88
6.03
5.16
4.34
3.60
3.02
2.68
2.60
2.72
2.89
2.94
2.75
2.33
1.80
1.35
1.13
1.19
1.44
1.71
1.86
1.79
1.52
1.13
0.77
0.55
0.55
0.76
1.14
1.60
2.06
2.45
2.74
2.92
3.01
3.09
3.22
3.44
3.82
4.37
5.05
5.80
6.54
7.20
7.70
8.01
8.10
8.01
7.79
7.47
7.12
6.77
6.45
6.20
6.04
6.03
6.17
6.47
6.89
7.38
7.93
8.53
9.22
10.01
10.89
11.75
12.40
12.67
12.42
11.59
10.22
8.35
6.00
3.19
-0.03
-3.53
-7.06
-10.29
-12.97
-14.94
-16.23
-16.91
-17.10
-16.87
-16.21
-15.15
-13.74
-12.11
-10.43
-8.90
-7.65
-6.79
-6.37
-6.40
-6.86
-7.69
-8.80
-10.08
-11.41
-12.68
-13.82
-14.74
-15.34
-15.53
-15.23
-14.41
-13.13
-11.48
-9.65
-7.78
-5.97
-4.29
-2.72
-1.27
0.07
1.30
2.38
3.27
3.92
4.30
4.42
4.36
4.24
4.16
4.15
4.16
4.09
3.87
3.53
3.14
2.81
2.58
2.41
2.20
1.90
1.52
1.16
0.94
0.92
1.04
1.20
1.31
1.32
1.28
1.28
1.37
1.56
1.79
1.98
2.07
2.06
1.98
1.91
1.90
1.98
2.11
2.26
2.35
2.32
2.17
1.94
1.68
1.49
1.41
1.43
1.53
1.63
1.67
1.57
1.29
0.79
0.10
-0.71
-1.52
-2.18
-2.54
-2.56
-2.27
-1.78
-1.24
-0.76
-0.40
-0.18
-0.08
-0.10
-0.26
-0.51
-0.81
-1.07
-1.23
-1.29
-1.28
-1.28
-1.34
-1.50
-1.72
-1.95
-2.11
-2.15
-2.05
-1.79
-1.40
-0.94
-0.47
-0.09
0.12
0.14
0.00
-0.20
-0.37
-0.39
-0.22
0.14
0.65
1.20
1.70
2.05
2.20
2.12
1.84
1.44
1.03
0.70
0.50
0.45
0.51
0.63
0.78
0.92
1.03
1.09
1.09
1.01
0.87
0.68
0.47
0.26
0.09
-0.01
-0.03
0.03
0.16
0.31
0.43
0.46
0.34
0.03
-0.45
-1.07
-1.72
-2.26
-2.55
-2.55
-2.27
-1.87
-1.47
-1.15
-0.88
-0.58
-0.19
0.27
0.69
0.96
1.01
0.90
0.75
0.67
0.70
0.77
0.79
0.70
0.56
0.49
0.61
0.95
1.42
1.87
2.15
2.17
1.99
1.67
1.33
1.03
0.78
0.59
0.45
0.39
0.43
0.59
0.83
1.04
1.12
1.00
0.67
0.23
-0.16
-0.37
-0.34
-0.09
0.21
0.37
0.23
-0.26
-1.02
-1.86
-2.63
-3.19
-3.48
-3.53
-3.38
-3.10
-2.76
-2.42
-2.08
-1.70
-1.25
-0.71
-0.11
0.45
0.86
1.07
1.07
0.91
0.66
0.39
0.14
-0.02
-0.00
0.24
0.71
1.29
1.77
1.97
1.83
1.44
0.98
0.65
0.52
0.57
0.70
0.85
1.03
1.26
1.56
1.89
2.16
2.28
2.23
2.05
1.83
1.62
1.42
1.18
0.86
0.43
-0.07
-0.58
-1.00
-1.23
-1.20
-0.91
-0.46
-0.00
0.29
0.29
-0.00
-0.46
-0.91
-1.19
-1.23
-1.03
-0.68
-0.26
0.17
0.59
0.95
1.25
1.43
1.45
1.30
1.01
0.64
0.30
0.08
0.04
0.18
0.45
0.77
1.07
1.28
1.36
1.30
1.09
0.76
0.38
0.00
-0.30
-0.46
-0.42
-0.17
0.24
0.71
1.08
1.22
1.05
0.61
0.03
-0.50
-0.84
-0.94
-0.86
-0.71
-0.63
-0.65
-0.74
-0.86
-0.93
-0.97
-0.99
-1.05
-1.17
-1.33
-1.48
-1.55
-1.50
-1.35
-1.15
-0.91
-0.67
-0.41
-0.13
0.18
0.49
0.81
1.14
1.54
1.99
2.49
2.98
3.37
3.64
3.82
4.00
4.27
4.69
5.27
5.96
6.66
7.27
7.71
7.93
7.94
7.80
7.63
7.54
7.60
7.80
8.07
8.26
8.25
7.96
7.33
6.39
5.14
3.65
1.94
0.08
-1.90
-3.98
-6.12
-8.29
-10.40
-12.31
-13.89
-15.05
-15.79
-16.18
-16.31
-16.26
-16.01
-15.50
-14.70
-13.64
-12.46
-11.32
-10.37
-9.63
-9.04
-8.44
-7.68
-6.70
-5.50
-4.16
-2.83
-1.64
-0.72
-0.12
0.19
0.31
0.36
0.46
0.63
0.85
1.08
1.31
1.56
1.90
2.33
2.81
3.24
3.52
3.59
3.51
3.40
3.36
3.42
3.52
3.55
3.41
3.10
2.69
2.33
2.13
2.11
2.23
2.40
2.50
2.47
2.30
2.01
1.62
1.16
0.62
0.02
-0.64
-1.30
-1.92
-2.51
-3.04
-3.54
-3.97
-4.30
-4.41
-4.24
-3.77
-3.09
-2.37
-1.78
-1.41
-1.23
-1.10
-0.92
-0.62
-0.25
0.14
0.47
0.72
0.90
1.03
1.13
1.19
1.24
1.29
1.36
1.45
1.54
1.61
1.64
1.61
1.55
1.48
1.42
1.40
1.43
1.53
1.69
1.83
1.90
1.84
1.65
1.36
1.02
0.67
0.34
0.04
-0.18
-0.30
-0.28
-0.17
-0.04
0.00
-0.12
-0.39
-0.70
-0.95
-1.06
-1.04
-0.98
-0.96
-0.98
-1.01
-0.98
-0.89
-0.83
-0.89
-1.17
-1.61
-2.02
-2.21
-2.02
-1.49
-0.78
-0.16
0.19
0.23
0.10
-0.01
0.08
0.40
0.84
1.24
1.48
1.55
1.54
1.51
1.52
1.50
1.43
1.29
1.15
1.12
1.25
1.54
1.90
2.22
2.44
2.56
2.63
2.75
2.95
3.28
3.72
4.26
4.88
5.54
6.20
6.78
7.20
7.44
7.52
7.52
7.53
7.62
7.81
8.07
8.37
8.75
9.32
10.20
11.40
12.79
14.02
14.61
14.13
12.31
9.24
5.27
0.90
-3.36
-7.18
-10.38
-12.93
-14.83
-16.09
-16.71
-16.75
-16.28
-15.41
-14.25
-12.82
-11.15
-9.24
-7.13
-4.94
-2.87
-1.12
0.12
0.74
0.73
0.20
-0.66
-1.61
-2.46
-3.08
-3.44
-3.53
-3.43
-3.24
-3.10
-3.14
-3.44
-3.99
-4.71
-5.49
-6.20
-6.74
-7.05
-7.09
-6.81
-6.23
-5.40
-4.43
-3.47
-2.64
-2.04
-1.68
-1.55
-1.62
-1.81
-2.01
-2.06
-1.85
-1.36
-0.70
-0.03
0.47
0.73
0.79
0.75
0.71
0.73
0.82
0.96
1.12
1.29
1.44
1.54
1.56
1.53
1.48
1.45
1.40
1.28
1.01
0.59
0.07
-0.42
-0.80
-1.07
-1.33
-1.73
-2.37
-3.21
-4.07
-4.73
-5.03
-4.95
-4.59
-4.15
-3.75
-3.42
-3.04
-2.49
-1.72
-0.81
0.07
0.74
1.10
1.25
1.33
1.52
1.86
2.28
2.66
2.91
3.06
3.23
3.55
4.06
4.71
5.33
5.77
5.94
5.87
5.70
5.53
5.44
5.37
5.22
4.92
4.43
3.86
3.32
2.93
2.76
2.77
2.87
2.95
2.93
2.73
2.33
1.74
1.05
0.38
-0.15
-0.52
-0.75
-0.97
-1.27
-1.69
-2.17
-2.57
-2.78
-2.76
-2.58
-2.35
-2.21
-2.21
-2.36
-2.65
-3.07
-3.62
-4.25
-4.85
-5.22
-5.15
-4.54
-3.39
-1.89
-0.29
1.21
2.47
3.45
4.17
4.63
4.85
4.82
4.58
4.20
3.75
3.29
2.84
2.38
1.91
1.45
1.08
0.91
1.02
1.42
2.10
2.96
3.84
4.58
5.01
5.01
4.60
3.88
3.04
2.29
1.75
1.42
1.20
0.95
0.60
0.14
-0.33
-0.70
-0.91
-0.98
-0.99
-1.06
-1.23
-1.49
-1.80
-2.05
-2.18
-2.14
-1.93
-1.57
-1.11
-0.60
-0.10
0.34
0.70
0.97
1.19
1.40
1.66
1.96
2.28
2.53
2.65
2.62
2.46
2.26
2.10
2.00
1.94
1.85
1.72
1.55
1.39
1.27
1.19
1.04
0.73
0.21
-0.49
-1.24
-1.93
-2.45
-2.76
-2.88
-2.85
-2.73
-2.55
-2.35
-2.15
-1.99
-1.88
-1.79
-1.67
-1.48
-1.18
-0.80
-0.39
-0.00
0.29
0.45
0.47
0.37
0.27
0.25
0.41
0.76
1.22
1.67
1.99
2.10
2.04
1.90
1.76
1.69
1.65
1.58
1.41
1.14
0.83
0.59
0.49
0.50
0.51
0.41
0.13
-0.27
-0.63
-0.80
-0.71
-0.47
-0.28
-0.31
-0.63
-1.15
-1.72
-2.23
-2.68
-3.10
-3.58
-4.08
-4.47
-4.62
-4.44
-3.96
-3.33
-2.71
-2.20
-1.81
-1.47
-1.10
-0.69
-0.26
0.12
0.39
0.59
0.76
0.97
1.18
1.33
1.31
1.11
0.82
0.64
0.70
1.03
1.48
1.84
1.94
1.77
1.47
1.25
1.27
1.54
1.92
2.23
2.36
2.26
2.02
1.74
1.51
1.36
1.28
1.20
1.06
0.85
0.56
0.25
-0.05
-0.29
-0.48
-0.65
-0.83
-1.03
-1.26
-1.47
-1.65
-1.79
-1.90
-2.01
-2.10
-2.15
-2.10
-1.93
-1.64
-1.24
-0.75
-0.19
0.40
0.96
1.41
1.70
1.83
1.85
1.87
1.94
2.08
2.21
2.28
2.21
2.03
1.78
1.54
1.35
1.20
1.08
0.96
0.78
0.55
0.29
0.05
-0.12
-0.21
-0.24
-0.23
-0.21
-0.18
-0.12
-0.01
0.11
0.20
0.21
0.10
-0.11
-0.34
-0.52
-0.59
-0.54
-0.44
-0.35
-0.34
-0.42
-0.53
-0.60
-0.60
-0.55
-0.53
-0.59
-0.79
-1.04
-1.27
-1.36
-1.31
-1.15
-0.95
-0.78
-0.64
-0.48
-0.26
0.04
0.38
0.67
0.81
0.78
0.60
0.38
0.23
0.26
0.51
0.95
1.50
2.05
2.48
2.71
2.69
2.43
1.99
1.47
0.98
0.59
0.35
0.25
0.30
0.45
0.66
0.89
1.04
1.04
0.87
0.57
0.23
-0.06
-0.21
-0.23
-0.12
0.06
0.29
0.50
0.63
0.59
0.30
-0.24
-0.96
-1.68
-2.24
-2.50
-2.45
-2.17
-1.82
-1.52
-1.36
-1.29
-1.24
-1.14
-0.98
-0.79
-0.63
-0.54
-0.49
-0.39
-0.19
0.12
0.48
0.82
1.06
1.21
1.29
1.32
1.33
1.32
1.33
1.35
1.39
1.38
1.28
1.05
0.75
0.49
0.38
0.48
0.70
0.91
0.96
0.78
0.42
-0.02
-0.44
-0.76
-0.99
-1.15
-1.32
-1.51
-1.74
-1.97
-2.18
-2.35
-2.50
-2.67
-2.87
-3.10
-3.31
-3.43
-3.39
-3.16
-2.81
-2.38
-1.94
-1.53
-1.16
-0.82
-0.53
-0.31
-0.16
-0.08
-0.05
-0.04
-0.02
0.02
0.07
0.12
0.18
0.29
0.46
0.69
0.95
1.22
1.46
1.64
1.75
1.76
1.65
1.42
1.09
0.73
0.43
0.25
0.22
0.28
0.33
0.27
0.06
-0.27
-0.60
-0.84
-0.90
-0.79
-0.61
-0.49
-0.52
-0.71
-1.01
-1.30
-1.52
-1.72
-1.97
-2.38
-2.98
-3.66
-4.25
-4.54
-4.39
-3.78
-2.81
-1.68
-0.60
0.25
0.77
0.95
0.85
0.60
0.35
0.24
0.37
0.76
1.31
1.87
2.23
2.30
2.07
1.71
1.42
1.35
1.53
1.85
2.13
2.25
2.15
1.89
1.54
1.15
0.78
0.47
0.26
0.20
0.32
0.54
0.74
0.79
0.64
0.32
-0.08
-0.44
-0.69
-0.85
-0.96
-1.03
-1.10
-1.15
-1.19
-1.23
-1.30
-1.42
-1.58
-1.73
-1.81
-1.77
-1.58
-1.22
-0.71
-0.09
0.58
1.18
1.62
1.83
1.86
1.81
1.82
2.01
2.36
2.81
3.21
3.51
3.69
3.80
3.92
4.07
4.26
4.43
4.55
4.56
4.43
4.17
3.79
3.36
2.94
2.59
2.32
2.08
1.79
1.43
1.00
0.54
0.11
-0.27
-0.56
-0.71
-0.68
-0.41
0.09
0.78
1.54
2.29
3.03
3.81
4.74
5.91
7.36
9.04
10.84
12.67
14.42
16.06
17.64
19.24
21.00
22.98
25.14
27.37
29.48
31.38
33.06
34.61
36.14
37.72
39.30
40.80
42.08
42.95
43.07
41.94
38.98
33.75
26.20
16.77
6.27
-4.45
-14.83
-24.74
-34.43
-44.15
-53.95
-63.48
-72.08
-78.95
-83.40
-84.94
-83.37
-78.87
-71.96
-63.47
-54.41
-45.70
-38.03
-31.70
-26.70
-22.83
-19.84
-17.49
-15.57
-13.84
-12.12
-10.25
-8.19
-6.04
-3.98
-2.16
-0.72
0.36
1.16
1.84
2.52
3.32
4.28
5.36
6.51
7.62
8.60
9.38
9.91
10.24
10.42
10.52
10.59
10.63
10.60
10.45
10.18
9.83
9.48
9.21
9.05
8.96
8.89
8.76
8.55
8.27
8.01
7.85
7.84
7.95
8.09
8.13
7.97
7.57
7.03
6.52
6.25
6.33
6.71
7.15
7.28
6.72
5.27
2.92
-0.07
-3.29
-6.36
-8.98
-11.02
-12.46
-13.35
-13.71
-13.55
-12.90
-11.84
-10.52
-9.13
-7.78
-6.54
-5.40
-4.34
-3.35
-2.43
-1.61
-0.92
-0.33
0.20
0.73
1.28
1.86
2.44
2.96
3.33
3.49
3.40
3.10
2.70
2.34
2.15
2.18
2.37
2.63
2.81
2.85
2.76
2.62
2.50
2.48
2.54
2.60
2.60
2.49
2.27
1.98
1.64
1.29
0.89
0.46
0.05
-0.26
-0.43
-0.45
-0.39
-0.34
-0.37
-0.47
-0.58
-0.64
-0.60
-0.49
-0.33
-0.16
0.04
0.31
0.66
1.05
1.39
1.57
1.58
1.46
1.32
1.29
1.44
1.74
2.14
2.53
2.82
2.94
2.86
2.60
2.24
1.92
1.80
1.94
2.31
2.74
3.00
2.96
2.59
1.99
1.30
0.66
0.09
-0.39
-0.80
-1.14
-1.35
-1.43
-1.40
-1.35
-1.34
-1.41
-1.53
-1.66
-1.74
-1.75
-1.75
-1.77
-1.86
-2.01
-2.17
-2.25
-2.21
-2.06
-1.84
-1.66
-1.57
-1.58
-1.63
-1.62
-1.47
-1.17
-0.79
-0.43
-0.19
-0.08
-0.04
0.04
0.27
0.65
1.09
1.50
1.80
1.98
2.08
2.18
2.27
2.31
2.24
2.03
1.69
1.31
0.98
0.77
0.70
0.75
0.85
0.95
0.96
0.83
0.53
0.11
-0.37
-0.78
-1.07
-1.24
-1.30
-1.29
-1.25
-1.18
-1.08
-0.96
-0.87
-0.86
-0.96
-1.17
-1.40
-1.59
-1.65
-1.62
-1.53
-1.47
-1.50
-1.64
-1.82
-1.98
-2.07
-2.07
-1.99
-1.87
-1.68
-1.40
-0.97
-0.41
0.23
0.81
1.21
1.36
1.26
1.03
0.79
0.68
0.75
0.98
1.26
1.47
1.52
1.42
1.24
1.10
1.05
1.06
1.03
0.86
0.50
0.03
-0.37
-0.56
-0.48
-0.18
0.20
0.52
0.72
0.81
0.77
0.60
0.27
-0.21
-0.79
-1.33
-1.65
-1.67
-1.38
-0.92
-0.49
-0.27
-0.35
-0.73
-1.28
-1.82
-2.21
-2.34
-2.22
-1.93
-1.58
-1.23
-0.85
-0.40
0.13
0.67
1.10
1.30
1.23
1.00
0.78
0.74
0.93
1.30
1.72
2.06
2.25
2.29
2.21
2.06
1.89
1.74
1.60
1.47
1.32
1.15
0.98
0.88
0.92
1.10
1.37
1.63
1.76
1.73
1.57
1.36
1.12
0.87
0.56
0.16
-0.30
-0.73
-1.01
-1.10
-1.04
-0.93
-0.88
-0.93
-1.06
-1.24
-1.41
-1.60
-1.83
-2.11
-2.41
-2.64
-2.71
-2.58
-2.28
-1.85
-1.40
-1.00
-0.70
-0.50
-0.38
-0.28
-0.14
0.10
0.44
0.84
1.20
1.40
1.38
1.18
0.91
0.69
0.61
0.68
0.84
1.01
1.14
1.22
1.30
1.42
1.61
1.86
2.09
2.22
2.17
1.91
1.50
1.04
0.64
0.33
0.07
-0.21
-0.54
-0.88
-1.10
-1.11
-0.93
-0.69
-0.58
-0.76
-1.20
-1.81
-2.36
-2.70
-2.76
-2.56
-2.22
-1.86
-1.55
-1.31
-1.12
-0.95
-0.77
-0.58
-0.38
-0.18
0.04
0.28
0.52
0.74
0.90
0.97
0.96
0.91
0.85
0.81
0.79
0.80
0.84
0.94
1.08
1.23
1.34
1.35
1.24
1.08
0.96
0.95
1.04
1.16
1.19
1.06
0.78
0.45
0.18
0.03
0.01
0.03
0.01
-0.09
-0.24
-0.40
-0.51
-0.58
-0.65
-0.76
-0.95
-1.21
-1.48
-1.71
-1.85
-1.88
-1.82
-1.71
-1.58
-1.48
-1.40
-1.32
-1.21
-1.03
-0.78
-0.46
-0.13
0.12
0.25
0.22
0.06
-0.15
-0.31
-0.33
-0.17
0.16
0.57
0.95
1.23
1.37
1.42
1.44
1.50
1.62
1.76
1.85
1.83
1.67
1.39
1.03
0.67
0.35
0.12
-0.01
-0.07
-0.10
-0.15
-0.26
-0.41
-0.56
-0.66
-0.69
-0.66
-0.60
-0.60
-0.71
-0.96
-1.32
-1.70
-2.03
-2.24
-2.32
-2.28
-2.16
-1.98
-1.74
-1.45
-1.14
-0.82
-0.52
-0.24
0.03
0.29
0.51
0.65
0.68
0.62
0.54
0.54
0.71
1.03
1.42
1.77
1.99
2.03
1.91
1.70
1.44
1.21
1.04
0.93
0.88
0.86
0.81
0.71
0.56
0.39
0.20
-0.00
-0.22
-0.44
-0.63
-0.71
-0.64
-0.43
-0.16
0.06
0.13
-0.03
-0.40
-0.94
-1.56
-2.14
-2.57
-2.78
-2.78
-2.66
-2.52
-2.47
-2.51
-2.57
-2.52
-2.28
-1.84
-1.29
-0.70
-0.15
0.35
0.80
1.17
1.39
1.44
1.32
1.12
0.96
0.90
0.95
1.06
1.17
1.25
1.32
1.41
1.55
1.70
1.78
1.71
1.47
1.10
0.71
0.39
0.24
0.23
0.33
0.44
0.49
0.49
0.50
0.58
0.75
0.96
1.12
1.14
1.01
0.75
0.43
0.12
-0.14
-0.34
-0.54
-0.74
-0.93
-1.02
-0.88
-0.42
0.37
1.35
2.32
3.08
3.52
3.70
3.81
4.07
4.64
5.52
6.62
7.78
8.86
9.80
10.61
11.36
12.15
13.05
14.14
15.39
16.75
18.09
19.33
20.43
21.44
22.50
23.75
25.32
27.24
29.47
31.88
34.22
36.20
37.43
37.58
36.42
33.92
30.30
25.94
21.25
16.51
11.86
7.25
2.61
-2.07
-6.63
-10.83
-14.41
-17.24
-19.33
-20.86
-22.00
-22.85
-23.38
-23.49
-23.12
-22.37
-21.43
-20.58
-19.98
-19.62
-19.31
-18.78
-17.89
-16.65
-15.23
-13.87
-12.70
-11.67
-10.61
-9.35
-7.87
-6.36
-5.21
-4.74
-5.13
-6.23
-7.66
-8.96
-9.82
-10.15
-10.15
-10.13
-10.35
-10.90
-11.69
-12.47
-13.00
-13.12
-12.82
-12.22
-11.53
-10.94
-10.60
-10.53
-10.61
-10.66
-10.38
-9.50
-7.87
-5.49
-2.55
0.58
3.52
5.94
7.66
8.69
9.08
8.91
8.25
7.20
5.88
4.51
3.31
2.45
1.96
1.76
1.71
1.64
1.49
1.22
0.87
0.45
-0.04
-0.62
-1.29
-2.08
-2.98
-3.97
-5.05
-6.17
-7.27
-8.26
-9.10
-9.79
-10.42
-11.08
-11.84
-12.70
-13.55
-14.27
-14.78
-15.07
-15.21
-15.27
-15.27
-15.17
-14.86
-14.30
-13.45
-12.41
-11.27
-10.13
-9.04
-8.03
-7.08
-6.18
-5.25
-4.26
-3.20
-2.09
-1.01
-0.02
0.87
1.66
2.39
3.05
3.61
4.01
4.29
4.56
4.95
5.56
6.34
7.16
7.86
8.38
8.81
9.37
10.33
11.86
14.00
16.61
19.41
22.05
24.17
25.54
26.17
26.28
26.25
26.40
26.75
26.95
26.43
24.56
21.02
15.91
9.64
2.74
-4.48
-11.98
-19.92
-28.42
-37.34
-46.21
-54.39
-61.25
-66.38
-69.65
-71.15
-71.05
-69.50
-66.59
-62.37
-56.91
-50.38
-43.03
-35.16
-27.10
-19.17
-11.60
-4.53
1.97
7.84
12.98
17.24
20.46
22.53
23.51
23.56
23.01
22.15
21.22
20.31
19.40
18.41
17.28
16.05
14.79
13.61
12.53
11.49
10.39
9.18
7.89
6.65
5.64
4.96
4.60
4.47
4.46
4.56
4.83
5.32
6.02
6.75
7.28
7.39
7.05
6.45
5.87
5.59
5.66
5.97
6.31
6.50
6.47
6.33
6.19
6.11
6.07
5.97
5.74
5.42
5.14
5.02
5.09
5.30
5.49
5.56
5.43
5.12
4.69
4.18
3.61
3.02
2.44
1.93
1.49
1.10
0.67
0.14
-0.53
-1.31
-2.11
-2.81
-3.33
-3.60
-3.64
-3.45
-3.06
-2.49
-1.77
-0.97
-0.15
0.61
1.28
1.85
2.35
2.85
3.36
3.87
4.30
4.57
4.65
4.59
4.48
4.40
4.42
4.52
4.65
4.74
4.77
4.77
4.76
4.75
4.68
4.49
4.10
3.53
2.86
2.21
1.68
1.28
0.93
0.52
-0.07
-0.86
-1.81
-2.79
-3.69
-4.40
-4.85
-5.03
-5.01
-4.88
-4.75
-4.65
-4.55
-4.32
-3.84
-3.05
-1.99
-0.82
0.24
1.05
1.55
1.78
1.84
1.83
1.78
1.69
1.58
1.48
1.46
1.60
1.93
2.38
2.82
3.11
3.16
2.98
2.65
2.30
2.00
1.75
1.49
1.18
0.84
0.52
0.33
0.33
0.47
0.66
0.73
0.60
0.24
-0.29
-0.91
-1.56
-2.17
-2.72
-3.18
-3.49
-3.63
-3.60
-3.47
-3.35
-3.27
-3.22
-3.10
-2.79
-2.21
-1.41
-0.48
0.43
1.26
1.95
2.47
2.81
2.91
2.79
2.54
2.31
2.28
2.53
3.00
3.51
3.86
3.95
3.78
3.45
3.10
2.83
2.69
2.65
2.68
2.73
2.73
2.63
2.37
1.94
1.39
0.81
0.33
0.02
-0.10
-0.08
0.01
0.09
0.15
0.17
0.13
0.02
-0.21
-0.53
-0.89
-1.14
-1.17
-0.89
-0.30
0.50
1.36
2.14
2.76
3.18
3.44
3.59
3.72
3.90
4.19
4.62
5.13
5.67
6.11
6.34
6.30
5.99
5.46
4.82
4.19
3.68
3.34
3.15
3.08
3.03
2.94
2.81
2.64
2.48
2.35
2.25
2.17
2.09
2.00
1.86
1.60
1.16
0.48
-0.39
-1.33
-2.12
-2.58
-2.61
-2.26
-1.68
-1.08
-0.58
-0.22
0.04
0.26
0.46
0.62
0.72
0.77
0.85
1.09
1.56
2.21
2.89
3.38
3.54
3.38
3.06
2.77
2.64
2.65
2.68
2.62
2.40
2.06
1.70
1.37
1.12
0.93
0.79
0.75
0.84
1.04
1.32
1.55
1.64
1.54
1.23
0.75
0.09
-0.71
-1.63
-2.56
-3.40
-4.04
-4.41
-4.50
-4.31
-3.88
-3.26
-2.50
-1.62
-0.67
0.29
1.19
1.96
2.53
2.88
3.02
3.04
3.01
2.98
2.97
2.94
2.87
2.80
2.77
2.83
2.94
2.96
2.80
2.44
1.99
1.64
1.55
1.73
2.04
2.25
2.19
1.85
1.35
0.89
0.57
0.41
0.30
0.10
-0.30
-0.88
-1.59
-2.32
-2.98
-3.49
-3.81
-3.91
-3.77
-3.46
-3.05
-2.64
-2.28
-1.99
-1.73
-1.44
-1.06
-0.55
0.06
0.72
1.34
1.84
2.13
2.18
2.02
1.71
1.36
1.08
0.96
1.02
1.25
1.55
1.85
2.03
2.04
1.87
1.53
1.07
0.55
0.05
-0.36
-0.62
-0.69
-0.57
-0.34
-0.11
-0.01
-0.12
-0.50
-1.11
-1.88
-2.72
-3.53
-4.20
-4.61
-4.70
-4.44
-3.89
-3.16
-2.41
-1.73
-1.16
-0.68
-0.22
0.23
0.66
1.02
1.30
1.52
1.74
2.00
2.30
2.60
2.85
3.03
3.16
3.29
3.46
3.64
3.79
3.82
3.69
3.41
3.02
2.59
2.19
1.85
1.55
1.25
0.92
0.54
0.17
-0.13
-0.37
-0.54
-0.70
-0.90
-1.16
-1.44
-1.67
-1.82
-1.91
-1.99
-2.09
-2.16
-2.12
-1.84
-1.27
-0.47
0.41
1.22
1.83
2.22
2.48
2.67
2.86
3.04
3.17
3.24
3.28
3.35
3.50
3.73
3.98
4.17
4.21
4.10
3.83
3.46
3.03
2.56
2.04
1.45
0.75
-0.08
-1.03
-2.04
-3.01
-3.91
-4.69
-5.40
-6.10
-6.81
-7.45
-7.90
-8.01
-7.72
-7.09
-6.30
-5.53
-4.89
-4.37
-3.89
-3.39
-2.87
-2.36
-1.95
-1.67
-1.49
-1.34
-1.17
-0.99
-0.83
-0.71
-0.59
-0.40
-0.09
0.34
0.80
1.12
1.21
1.02
0.60
0.08
-0.41
-0.79
-1.04
-1.17
-1.25
-1.34
-1.52
-1.81
-2.23
-2.73
-3.21
-3.57
-3.76
-3.81
-3.79
-3.76
-3.77
-3.76
-3.67
-3.43
-3.04
-2.54
-1.98
-1.39
-0.74
-0.00
0.83
1.67
2.39
2.85
3.00
2.92
2.75
2.65
2.70
2.87
3.03
3.05
2.89
2.58
2.25
2.01
1.91
1.94
2.03
2.09
2.10
2.03
1.90
1.70
1.46
1.19
0.88
0.54
0.15
-0.30
-0.80
-1.32
-1.82
-2.23
-2.51
-2.67
-2.72
-2.69
-2.60
-2.44
-2.20
-1.85
-1.39
-0.86
-0.28
0.31
0.89
1.44
1.94
2.34
2.57
2.58
2.38
2.02
1.59
1.20
0.91
0.68
0.48
0.24
-0.04
-0.31
-0.46
-0.39
-0.09
0.39
0.91
1.34
1.57
1.60
1.49
1.34
1.24
1.25
1.35
1.47
1.55
1.50
1.23
0.68
-0.17
-1.30
-2.60
-3.93
-5.13
-6.02
-6.52
-6.57
-6.25
-5.66
-4.98
-4.37
-3.97
-3.84
-3.98
-4.36
-4.86
-5.38
-5.81
-6.06
-6.11
-6.03
-5.89
-5.78
-5.74
-5.76
-5.78
-5.77
-5.71
-5.61
-5.50
-5.37
-5.22
-5.08
-4.98
-5.03
-5.26
-5.69
-6.22
-6.72
-7.05
-7.12
-6.86
-6.25
-5.32
-4.09
-2.66
-1.22
0.06
0.99
1.50
1.61
1.45
1.11
0.69
0.21
-0.28
-0.68
-0.83
-0.58
0.17
1.32
2.66
3.91
4.84
5.40
5.69
5.88
6.14
6.50
6.89
7.19
7.34
7.34
7.29
7.27
7.28
7.27
7.17
6.96
6.74
6.59
6.56
6.60
6.57
6.36
5.92
5.32
4.72
4.25
3.96
3.81
3.69
3.48
3.15
2.70
2.19
1.70
1.29
0.95
0.66
0.37
0.01
-0.42
-0.89
-1.35
-1.74
-2.01
-2.15
-2.18
-2.09
-1.89
-1.53
-0.99
-0.27
0.53
1.27
1.80
2.08
2.14
2.14
2.25
2.56
3.03
3.53
3.89
4.04
3.99
3.85
3.71
3.65
3.65
3.66
3.66
3.64
3.62
3.60
3.56
3.47
3.30
3.04
2.72
2.41
2.15
1.96
1.83
1.75
1.69
1.60
1.42
1.09
0.55
-0.20
-1.08
-1.98
-2.77
-3.37
-3.73
-3.86
-3.77
-3.53
-3.21
-2.87
-2.58
-2.35
-2.10
-1.74
-1.21
-0.50
0.27
0.94
1.41
1.68
1.82
1.93
2.05
2.16
2.22
2.19
2.09
1.98
1.92
1.90
1.89
1.80
1.59
1.26
0.90
0.60
0.40
0.31
0.25
0.17
0.04
-0.13
-0.26
-0.32
-0.32
-0.33
-0.43
-0.70
-1.16
-1.75
-2.38
-2.97
-3.48
-3.90
-4.20
-4.32
-4.20
-3.79
-3.13
-2.32
-1.52
-0.84
-0.35
-0.02
0.23
0.49
0.77
1.04
1.25
1.38
1.40
1.37
1.30
1.25
1.21
1.20
1.24
1.32
1.44
1.52
1.54
1.47
1.33
1.22
1.24
1.41
1.68
1.89
1.86
1.49
0.82
0.01
-0.66
-1.02
-0.99
-0.67
-0.25
0.04
0.08
-0.18
-0.65
-1.22
-1.78
-2.30
-2.79
-3.23
-3.57
-3.69
-3.49
-2.95
-2.17
-1.34
-0.66
-0.26
-0.15
-0.26
-0.47
-0.67
-0.77
-0.69
-0.45
-0.06
0.35
0.68
0.84
0.85
0.79
0.78
0.87
1.06
1.27
1.47
1.64
1.81
1.97
2.07
2.00
1.73
1.31
0.86
0.50
0.29
0.18
0.07
-0.17
-0.58
-1.14
-1.74
-2.30
-2.73
-3.02
-3.17
-3.20
-3.17
-3.05
-2.84
-2.47
-1.97
-1.40
-0.88
-0.54
-0.43
-0.51
-0.61
-0.59
-0.36
0.04
0.49
0.88
1.16
1.34
1.43
1.46
1.41
1.29
1.14
1.06
1.15
1.43
1.82
2.16
2.26
2.03
1.53
0.97
0.59
0.54
0.81
1.23
1.54
1.56
1.28
0.81
0.31
-0.07
-0.34
-0.54
-0.76
-0.99
-1.13
-1.06
-0.71
-0.10
0.63
1.35
1.99
2.58
3.23
4.01
4.90
5.79
6.53
7.04
7.35
7.62
8.00
8.60
9.40
10.29
11.12
11.79
12.22
12.38
12.24
11.74
10.84
9.55
7.95
6.18
4.30
2.35
0.25
-2.07
-4.60
-7.25
-9.80
-12.02
-13.73
-14.88
-15.50
-15.72
-15.64
-15.36
-14.92
-14.38
-13.75
-13.06
-12.32
-11.50
-10.56
-9.51
-8.38
-7.24
-6.20
-5.34
-4.66
-4.10
-3.55
-2.92
-2.24
-1.59
-1.15
-1.05
-1.36
-2.01
-2.87
-3.77
-4.58
-5.22
-5.63
-5.78
-5.60
-5.07
-4.20
-3.12
-1.98
-0.97
-0.20
0.32
0.66
0.93
1.21
1.52
1.79
1.97
2.01
1.93
1.76
1.55
1.31
1.01
0.63
0.16
-0.40
-0.99
-1.57
-2.08
-2.45
-2.63
-2.54
-2.16
-1.53
-0.73
0.10
0.82
1.33
1.58
1.58
1.36
1.00
0.61
0.29
0.15
0.26
0.62
1.16
1.80
2.42
2.96
3.42
3.81
4.11
4.31
4.33
4.12
3.69
3.10
2.49
1.98
1.64
1.47
1.43
1.49
1.58
1.67
1.70
1.61
1.36
0.94
0.40
-0.18
-0.77
-1.32
-1.85
-2.36
-2.87
-3.35
-3.77
-4.13
-4.43
-4.65
-4.77
-4.78
-4.62
-4.30
-3.82
-3.22
-2.51
-1.73
-0.88
-0.03
0.76
1.45
2.01
2.48
2.93
3.41
3.90
4.31
4.52
4.48
4.25
3.97
3.77
3.76
3.92
4.15
4.33
4.34
4.16
3.83
3.43
3.05
2.74
2.48
2.23
1.97
1.68
1.39
1.11
0.85
0.59
0.28
-0.11
-0.57
-1.06
-1.52
-1.91
-2.23
-2.51
-2.77
-3.05
-3.38
-3.74
-4.10
-4.41
-4.59
-4.60
-4.43
-4.12
-3.71
-3.19
-2.55
-1.78
-0.93
-0.11
0.54
0.89
0.96
0.83
0.71
0.77
1.10
1.68
2.38
3.03
3.50
3.72
3.69
3.46
3.10
2.68
2.25
1.90
1.68
1.62
1.68
1.82
1.94
1.97
1.92
1.82
1.73
1.65
1.57
1.42
1.17
0.82
0.42
0.04
-0.30
-0.61
-0.93
-1.33
-1.83
-2.39
-2.95
-3.44
-3.84
-4.18
-4.51
-4.80
-4.96
-4.86
-4.38
-3.52
-2.37
-1.14
-0.04
0.80
1.34
1.64
1.81
1.97
2.18
2.48
2.90
3.45
4.10
4.79
5.44
5.94
6.22
6.28
6.18
6.06
6.01
6.12
6.35
6.66
6.97
7.25
7.50
7.74
7.96
8.17
8.34
8.48
8.65
8.92
9.39
10.08
10.97
12.01
13.11
14.15
15.03
15.58
15.64
15.07
13.80
11.79
9.07
5.71
1.88
-2.21
-6.32
-10.19
-13.68
-16.75
-19.48
-22.02
-24.49
-26.95
-29.38
-31.66
-33.64
-35.11
-35.82
-35.57
-34.24
-31.81
-28.46
-24.48
-20.21
-15.95
-11.92
-8.21
-4.83
-1.76
0.99
3.34
5.20
6.48
7.18
7.39
7.28
7.03
6.75
6.46
6.15
5.79
5.39
4.98
4.63
4.33
4.05
3.77
3.45
3.11
2.76
2.39
1.96
1.44
0.85
0.27
-0.17
-0.33
-0.17
0.21
0.69
1.11
1.42
1.63
1.81
1.99
2.16
2.27
2.27
2.20
2.11
2.12
2.26
2.50
2.70
2.74
2.55
2.18
1.78
1.50
1.48
1.71
2.09
2.48
2.77
2.90
2.95
2.99
3.10
3.27
3.39
3.32
2.97
2.34
1.58
0.92
0.59
0.66
1.07
1.58
1.94
1.97
1.66
1.22
0.87
0.83
1.16
1.76
2.46
3.06
3.50
3.78
4.00
4.26
4.66
5.28
6.12
7.12
8.16
9.01
9.48
9.43
8.85
7.82
6.50
5.02
3.48
1.97
0.56
-0.64
-1.56
-2.20
-2.63
-2.98
-3.31
-3.64
-3.88
-3.94
-3.75
-3.35
-2.78
-2.08
-1.24
-0.23
0.96
2.26
3.54
4.69
5.68
6.53
7.31
8.08
8.78
9.33
9.59
9.48
9.03
8.30
7.43
6.51
5.58
4.61
3.53
2.27
0.78
-0.90
-2.70
-4.48
-6.12
-7.54
-8.71
-9.64
-10.34
-10.80
-11.01
-10.95
-10.64
-10.14
-9.52
-8.85
-8.18
-7.53
-6.91
-6.33
-5.72
-5.03
-4.19
-3.15
-1.95
-0.67
0.54
1.60
2.46
3.15
3.71
4.15
4.40
4.32
3.78
2.72
1.25
-0.46
-2.15
-3.63
-4.79
-5.60
-6.09
-6.33
-6.34
-6.15
-5.80
-5.36
-4.88
-4.42
-3.97
-3.51
-2.97
-2.36
-1.70
-1.08
-0.62
-0.43
-0.51
-0.77
-1.05
-1.16
-1.02
-0.67
-0.26
0.05
0.19
0.21
0.24
0.38
0.67
1.04
1.36
1.54
1.51
1.29
0.89
0.35
-0.32
-1.07
-1.84
-2.50
-2.94
-3.04
-2.79
-2.29
-1.72
-1.33
-1.31
-1.72
-2.49
-3.40
-4.22
-4.75
-4.87
-4.55
-3.84
-2.87
-1.77
-0.73
0.09
0.63
0.90
0.99
1.01
1.03
1.04
1.02
0.96
0.87
0.80
0.77
0.77
0.78
0.77
0.73
0.70
0.72
0.80
0.93
1.03
1.03
0.90
0.67
0.40
0.18
0.03
-0.06
-0.17
-0.37
-0.67
-1.06
-1.46
-1.81
-2.11
-2.40
-2.73
-3.10
-3.43
-3.63
-3.64
-3.47
-3.23
-3.00
-2.86
-2.79
-2.69
-2.50
-2.18
-1.80
-1.47
-1.28
-1.24
-1.24
-1.16
-0.88
-0.39
0.23
0.81
1.24
1.47
1.56
1.59
1.65
1.77
1.89
1.95
1.92
1.82
1.70
1.60
1.52
1.39
1.14
0.71
0.13
-0.51
-1.10
-1.53
-1.79
-1.94
-2.09
-2.35
-2.77
-3.32
-3.93
-4.50
-4.93
-5.13
-5.05
-4.67
-4.05
-3.29
-2.54
-1.94
-1.56
-1.37
-1.28
-1.18
-1.00
-0.71
-0.32
0.12
0.58
0.99
1.33
1.55
1.65
1.62
1.50
1.37
1.28
1.30
1.45
1.70
1.98
2.21
2.35
2.40
2.41
2.43
2.47
2.53
2.55
2.44
2.17
1.74
1.21
0.64
0.10
-0.38
-0.80
-1.19
-1.60
-2.03
-2.45
-2.81
-3.05
-3.15
-3.15
-3.11
-3.14
-3.24
-3.33
-3.29
-2.98
-2.39
-1.57
-0.68
0.18
0.93
1.59
2.16
2.61
2.90
2.96
2.81
2.56
2.34
2.27
2.37
2.55
2.69
2.70
2.57
2.37
2.23
2.19
2.27
2.38
2.45
2.40
2.23
1.98
1.70
1.42
1.14
0.84
0.50
0.17
-0.08
-0.17
-0.11
0.00
0.03
-0.17
-0.63
-1.27
-1.95
-2.48
-2.76
-2.72
-2.35
-1.68
-0.74
0.41
1.65
2.86
3.90
4.72
5.32
5.77
6.16
6.56
7.03
7.61
8.34
9.24
10.27
11.33
12.32
13.14
13.77
14.26
14.74
15.31
16.03
16.92
17.93
19.01
20.06
20.99
21.63
21.82
21.36
20.14
18.11
15.35
12.05
8.54
5.20
2.40
0.36
-0.85
-1.41
-1.59
-1.64
-1.68
-1.67
-1.52
-1.23
-0.99
-1.15
-2.01
-3.70
-6.02
-8.50
-10.61
-11.94
-12.37
-12.05
-11.33
-10.57
-10.08
-10.08
-10.69
-11.96
-13.86
-16.22
-18.71
-20.91
-22.47
-23.24
-23.41
-23.47
-23.99
-25.40
-27.78
-30.86
-34.10
-36.90
-38.76
-39.35
-38.55
-36.36
-32.98
-28.74
-24.15
-19.81
-16.19
-13.54
-11.75
-10.42
-9.09
-7.45
-5.48
-3.43
-1.67
-0.45
0.18
0.42
0.58
0.92
1.57
2.47
3.52
4.59
5.62
6.56
7.45
8.25
8.95
9.53
10.00
10.34
10.60
10.75
10.82
10.81
10.77
10.73
10.71
10.71
10.69
10.65
10.58
10.56
10.62
10.76
10.90
10.91
10.66
10.07
9.21
8.21
7.24
6.43
5.80
5.30
4.86
4.42
3.94
3.42
2.89
2.37
1.87
1.34
0.76
0.05
-0.81
-1.82
-2.88
-3.85
-4.58
-4.96
-4.96
-4.65
-4.14
-3.56
-3.01
-2.52
-2.06
-1.63
-1.20
-0.79
-0.41
-0.09
0.23
0.58
1.03
1.62
2.36
3.22
4.13
5.03
5.85
6.52
6.94
7.09
6.97
6.67
6.30
5.98
5.73
5.57
5.46
5.38
5.31
5.25
5.16
4.99
4.70
4.30
3.85
3.43
3.12
2.93
2.81
2.68
2.47
2.16
1.79
1.37
0.90
0.34
-0.36
-1.22
-2.19
-3.14
-3.93
-4.44
-4.61
-4.47
-4.09
-3.51
-2.81
-2.05
-1.33
-0.72
-0.23
0.16
0.56
1.03
1.61
2.25
2.90
3.48
3.97
4.34
4.58
4.68
4.62
4.44
4.22
4.09
4.08
4.20
4.33
4.36
4.22
3.90
3.48
3.05
2.70
2.49
2.42
2.46
2.49
2.40
2.10
1.59
0.98
0.42
0.00
-0.26
-0.50
-0.88
-1.52
-2.41
-3.41
-4.35
-5.10
-5.65
-6.02
-6.22
-6.24
-6.01
-5.50
-4.76
-3.92
-3.11
-2.39
-1.73
-1.05
-0.29
0.54
1.37
2.12
2.75
3.31
3.83
4.32
4.74
5.02
5.15
5.15
5.08
4.99
4.87
4.67
4.36
3.97
3.56
3.23
3.03
2.93
2.91
2.91
2.88
2.78
2.56
2.17
1.57
0.86
0.17
-0.35
-0.61
-0.63
-0.58
-0.66
-1.03
-1.75
-2.76
-3.90
-4.97
-5.83
-6.40
-6.68
-6.71
-6.53
-6.19
-5.71
-5.12
-4.48
-3.81
-3.14
-2.45
-1.73
-0.97
-0.22
0.46
1.04
1.53
2.00
2.51
3.10
3.74
4.32
4.76
5.02
5.11
5.06
4.88
4.62
4.30
3.99
3.76
3.67
3.73
3.88
4.04
4.12
4.07
3.87
3.54
3.16
2.82
2.61
2.56
2.62
2.70
2.65
2.42
2.05
1.66
1.40
1.32
1.40
1.52
1.59
1.60
1.60
1.72
2.05
2.59
3.31
4.15
5.06
6.04
7.08
8.14
9.14
10.00
10.64
11.03
11.22
11.28
11.30
11.34
11.44
11.65
11.95
12.31
12.60
12.68
12.41
11.71
10.58
9.14
7.57
6.04
4.63
3.34
2.11
0.89
-0.30
-1.36
-2.18
-2.73
-3.06
-3.30
-3.60
-4.01
-4.52
-4.98
-5.25
-5.22
-4.83
-4.14
-3.24
-2.30
-1.47
-0.91
-0.68
-0.78
-1.09
-1.43
-1.65
-1.64
-1.42
-1.14
-0.99
-1.17
-1.76
-2.71
-3.85
-4.88
-5.52
-5.53
-4.86
-3.63
-2.15
-0.75
0.30
0.93
1.27
1.55
2.00
2.75
3.76
4.93
6.11
7.20
8.13
8.87
9.37
9.65
9.75
9.75
9.73
9.73
9.68
9.51
9.14
8.56
7.86
7.18
6.62
6.29
6.20
6.36
6.68
6.98
6.97
6.29
4.67
2.05
-1.32
-4.90
-7.99
-10.04
-10.81
-10.49
-9.60
-8.76
-8.46
-8.85
-9.79
-10.93
-11.93
-12.65
-13.11
-13.49
-13.93
-14.47
-15.00
-15.38
-15.46
-15.23
-14.81
-14.41
-14.27
-14.54
-15.23
-16.19
-17.19
-17.96
-18.30
-18.11
-17.40
-16.27
-14.92
-13.60
-12.58
-12.02
-12.01
-12.47
-13.18
-13.90
-14.46
-14.79
-14.89
-14.85
-14.71
-14.50
-14.20
-13.75
-13.14
-12.34
-11.31
-10.06
-8.63
-7.12
-5.71
-4.59
-3.92
-3.74
-3.92
-4.21
-4.29
-3.84
-2.71
-0.89
1.41
3.88
6.19
8.05
9.34
10.07
10.31
10.16
9.67
8.88
7.89
6.86
6.08
5.79
6.10
6.87
7.76
8.34
8.32
7.61
6.43
5.18
4.31
4.11
4.62
5.68
6.99
8.23
9.19
9.79
10.02
9.96
9.67
9.22
8.72
8.24
7.85
7.56
7.31
7.03
6.68
6.24
5.69
5.00
4.04
2.64
0.64
-2.01
-5.24
-8.93
-12.90
-17.05
-21.30
-25.54
-29.61
-33.21
-35.98
-37.57
-37.69
-36.22
-33.22
-28.96
-23.91
-18.60
-13.54
-9.13
-5.55
-2.76
-0.61
1.08
2.48
3.68
4.75
5.79
6.85
8.02
9.31
10.68
12.05
13.35
14.55
15.65
16.69
17.70
18.73
19.77
20.81
21.76
22.51
22.96
23.02
22.71
22.11
21.39
20.69
20.16
19.84
19.75
19.84
20.03
20.20
20.25
20.03
19.43
18.36
16.81
14.83
12.53
10.07
7.58
5.13
2.78
0.53
-1.63
-3.67
-5.52
-7.15
-8.53
-9.75
-10.94
-12.23
-13.68
-15.29
-16.96
-18.58
-20.08
-21.40
-22.54
-23.50
-24.26
-24.87
-25.34
-25.72
-25.97
-25.97
-25.56
-24.57
-22.89
-20.52
-17.56
-14.21
-10.71
-7.34
-4.36
-1.98
-0.31
0.73
1.32
1.70
2.00
2.27
2.44
2.44
2.30
2.12
2.04
2.15
2.40
2.68
2.82
2.72
2.39
1.91
1.38
0.89
0.49
0.19
-0.01
-0.08
0.03
0.29
0.71
1.22
1.80
2.42
3.10
3.84
4.63
5.45
6.25
6.97
7.55
7.97
8.23
8.32
8.24
8.00
7.60
7.12
6.62
6.19
5.87
5.61
5.36
5.05
4.61
4.03
3.33
2.58
1.90
1.40
1.19
1.28
1.61
2.00
2.29
2.37
2.24
1.98
1.69
1.39
1.04
0.63
0.19
-0.14
-0.20
0.09
0.66
1.33
1.88
2.17
2.22
2.16
2.18
2.40
2.87
3.50
4.15
4.68
4.99
5.05
4.88
4.55
4.16
3.79
3.54
3.48
3.61
3.91
4.29
4.68
4.97
5.11
5.05
4.75
4.21
3.49
2.70
2.00
1.58
1.54
1.84
2.34
2.79
2.93
2.60
1.73
0.44
-1.09
-2.63
-4.03
-5.24
-6.33
-7.43
-8.59
-9.79
-10.86
-11.60
-11.86
-11.60
-10.94
-10.01
-8.92
-7.66
-6.17
-4.40
-2.45
-0.55
0.98
1.91
2.19
1.99
1.65
1.45
1.52
1.82
2.18
2.39
2.34
2.06
1.64
1.26
1.04
1.07
1.30
1.65
2.04
2.42
2.73
2.89
2.78
2.27
1.27
-0.13
-1.69
-3.05
-3.92
-4.18
-3.91
-3.32
-2.66
-2.08
-1.64
-1.28
-0.95
-0.67
-0.46
-0.36
-0.38
-0.48
-0.56
-0.55
-0.37
-0.01
0.46
0.93
1.31
1.52
1.57
1.52
1.50
1.59
1.82
2.15
2.48
2.69
2.69
2.49
2.16
1.79
1.44
1.14
0.83
0.51
0.17
-0.12
-0.28
-0.28
-0.14
0.04
0.14
0.12
-0.05
-0.34
-0.74
-1.22
-1.76
-2.28
-2.66
-2.78
-2.54
-1.92
-1.04
-0.07
0.81
1.46
1.84
1.99
1.99
1.93
1.88
1.86
1.84
1.81
1.72
1.60
1.49
1.41
1.37
1.32
1.20
1.03
0.86
0.77
0.80
0.92
1.01
0.97
0.75
0.46
0.25
0.28
0.58
1.02
1.37
1.44
1.15
0.60
-0.02
-0.50
-0.73
-0.73
-0.61
-0.52
-0.57
-0.79
-1.18
-1.63
-2.03
-2.25
-2.21
-1.86
-1.27
-0.58
0.04
0.43
0.51
0.32
-0.03
-0.41
-0.67
-0.73
-0.60
-0.34
-0.06
0.14
0.24
0.25
0.23
0.23
0.27
0.30
0.29
0.25
0.19
0.16
0.17
0.22
0.26
0.29
0.31
0.33
0.33
0.27
0.12
-0.08
-0.27
-0.39
-0.44
-0.51
-0.69
-1.00
-1.33
-1.49
-1.35
-0.90
-0.32
0.12
0.23
0.01
-0.36
-0.66
-0.70
-0.50
-0.17
0.16
0.42
0.65
0.92
1.25
1.60
1.82
1.83
1.62
1.31
1.07
1.02
1.15
1.33
1.39
1.21
0.81
0.33
-0.04
-0.17
-0.04
0.25
0.51
0.59
0.42
0.10
-0.22
-0.34
-0.19
0.15
0.51
0.68
0.57
0.22
-0.20
-0.51
-0.63
-0.59
-0.52
-0.49
-0.50
-0.51
-0.46
-0.33
-0.19
-0.13
-0.21
-0.40
-0.64
-0.87
-1.02
-1.09
-1.08
-0.99
-0.81
-0.53
-0.19
0.18
0.48
0.64
0.64
0.53
0.41
0.39
0.54
0.86
1.21
1.43
1.37
1.00
0.40
-0.24
-0.72
-0.91
-0.80
-0.47
-0.05
0.33
0.58
0.67
0.59
0.37
0.03
-0.35
-0.71
-0.95
-1.02
-0.88
-0.60
-0.26
0.01
0.14
0.14
0.07
0.03
0.08
0.18
0.29
0.35
0.35
0.34
0.36
0.40
0.41
0.32
0.12
-0.10
-0.23
-0.20
-0.04
0.12
0.14
-0.07
-0.46
-0.90
-1.23
-1.37
-1.33
-1.19
-1.02
-0.89
-0.80
-0.74
-0.73
-0.82
-1.04
-1.41
-1.87
-2.32
-2.62
-2.68
-2.47
-2.01
-1.39
-0.72
-0.10
0.40
0.76
1.02
1.20
1.34
1.40
1.36
1.20
0.94
0.66
0.43
0.31
0.31
0.39
0.52
0.65
0.78
0.91
1.06
1.26
1.50
1.74
1.92
1.99
1.94
1.78
1.57
1.40
1.34
1.41
1.56
1.71
1.75
1.59
1.16
0.41
-0.65
-1.97
-3.38
-4.70
-5.72
-6.26
-6.29
-5.88
-5.23
-4.55
-4.03
-3.71
-3.53
-3.35
-3.09
-2.73
-2.35
-2.07
-1.93
-1.88
-1.79
-1.53
-1.06
-0.46
0.12
0.55
0.80
0.91
0.98
1.08
1.22
1.37
1.45
1.45
1.40
1.39
1.48
1.74
2.10
2.49
2.78
2.86
2.67
2.26
1.70
1.10
0.56
0.13
-0.14
-0.25
-0.23
-0.08
0.14
0.38
0.60
0.72
0.68
0.46
0.11
-0.30
-0.65
-0.85
-0.93
-0.96
-1.09
-1.36
-1.75
-2.08
-2.17
-1.93
-1.43
-0.85
-0.46
-0.43
-0.84
-1.66
-2.76
-4.01
-5.27
-6.37
-7.15
-7.46
-7.20
-6.41
-5.23
-3.83
-2.39
-1.02
0.21
1.26
2.12
2.77
3.27
3.69
4.05
4.33
4.36
3.95
3.00
1.57
-0.11
-1.67
-2.79
-3.28
-3.15
-2.60
-1.88
-1.24
-0.82
-0.63
-0.64
-0.79
-1.04
-1.39
-1.84
-2.39
-2.98
-3.54
-4.01
-4.39
-4.70
-5.01
-5.35
-5.71
-6.10
-6.46
-6.79
-7.02
-7.11
-7.00
-6.68
-6.14
-5.43
-4.54
-3.43
-2.07
-0.50
1.13
2.60
3.67
4.29
4.54
4.67
4.91
5.38
6.09
6.93
7.76
8.47
9.00
9.32
9.42
9.33
9.12
8.89
8.70
8.59
8.54
8.50
8.39
8.22
7.97
7.62
7.15
6.54
5.85
5.19
4.69
4.44
4.43
4.54
4.59
4.44
4.06
3.53
2.99
2.55
2.26
2.11
2.05
2.05
2.13
2.37
2.83
3.51
4.32
5.12
5.76
6.19
6.49
6.80
7.27
7.91
8.63
9.26
9.71
9.98
10.23
10.61
11.26
12.15
13.21
14.35
15.50
16.59
17.44
17.78
17.26
15.60
12.77
9.06
4.95
1.00
-2.45
-5.33
-7.80
-10.12
-12.46
-14.80
-16.94
-18.64
-19.74
-20.22
-20.18
-19.77
-19.10
-18.23
-17.24
-16.21
-15.26
-14.46
-13.81
-13.23
-12.58
-11.79
-10.80
-9.67
-8.50
-7.38
-6.42
-5.67
-5.19
-4.97
-4.96
-5.03
-5.05
-4.93
-4.64
-4.24
-3.79
-3.29
-2.69
-1.92
-0.99
0.02
0.98
1.76
2.31
2.69
3.00
3.33
3.68
4.02
4.26
4.39
4.43
4.47
4.54
4.64
4.73
4.80
4.84
4.89
4.96
5.02
5.02
4.92
4.71
4.44
4.14
3.85
3.53
3.15
2.67
2.11
1.50
0.92
0.41
-0.03
-0.41
-0.74
-1.01
-1.27
-1.55
-1.89
-2.30
-2.74
-3.12
-3.34
-3.40
-3.37
-3.40
-3.62
-4.06
-4.61
-5.04
-5.14
-4.81
-4.12
-3.28
-2.55
-2.06
-1.82
-1.72
-1.61
-1.37
-0.97
-0.43
0.19
0.86
1.58
2.33
3.03
3.61
3.97
4.10
4.00
3.73
3.35
2.89
2.41
1.98
1.70
1.66
1.87
2.21
2.50
2.52
2.18
1.53
0.73
-0.02
-0.55
-0.85
-0.95
-0.94
-0.91
-0.87
-0.82
-0.75
-0.66
-0.59
-0.64
-0.86
-1.30
-1.87
-2.41
-2.74
-2.73
-2.44
-2.05
-1.83
-1.92
-2.34
-2.94
-3.53
-3.97
-4.26
-4.44
-4.51
-4.41
-4.00
-3.19
-2.01
-0.66
0.61
1.56
2.12
2.36
2.41
2.42
2.45
2.48
2.48
2.44
2.39
2.37
2.41
2.49
2.58
2.63
2.61
2.54
2.45
2.37
2.33
2.37
2.45
2.54
2.56
2.42
2.14
1.76
1.43
1.28
1.37
1.61
1.86
1.92
1.69
1.16
0.44
-0.35
-1.11
-1.77
-2.33
-2.75
-3.05
-3.21
-3.26
-3.23
-3.20
-3.25
-3.45
-3.82
-4.29
-4.73
-4.96
-4.87
-4.41
-3.66
-2.76
-1.90
-1.20
-0.74
-0.57
-0.65
-0.91
-1.21
-1.36
-1.18
-0.60
0.33
1.41
2.44
3.23
3.71
3.90
3.85
3.59
3.18
2.67
2.19
1.85
1.78
1.95
2.28
2.61
2.82
2.89
2.87
2.87
2.91
2.96
2.88
2.59
2.06
1.42
0.85
0.53
0.52
0.76
1.03
1.12
0.85
0.16
-0.91
-2.20
-3.56
-4.82
-5.83
-6.49
-6.68
-6.34
-5.50
-4.29
-2.97
-1.82
-1.06
-0.77
-0.88
-1.20
-1.52
-1.71
-1.70
-1.52
-1.19
-0.73
-0.17
0.44
1.02
1.44
1.64
1.63
1.51
1.42
1.50
1.78
2.22
2.70
3.08
3.29
3.30
3.13
2.84
2.51
2.19
1.93
1.74
1.62
1.53
1.44
1.35
1.28
1.31
1.51
1.90
2.42
2.95
3.33
3.45
3.26
2.81
2.22
1.60
1.05
0.65
0.44
0.44
0.59
0.77
0.81
0.55
-0.13
-1.19
-2.45
-3.67
-4.63
-5.20
-5.38
-5.27
-4.97
-4.60
-4.18
-3.71
-3.18
-2.57
-1.91
-1.24
-0.60
-0.02
0.51
1.02
1.55
2.12
2.72
3.34
3.91
4.35
4.57
4.53
4.22
3.70
3.10
2.57
2.22
2.11
2.16
2.29
2.37
2.38
2.36
2.39
2.49
2.64
2.74
2.70
2.54
2.32
2.21
2.31
2.66
3.19
3.73
4.10
4.11
3.59
2.48
0.79
-1.33
-3.69
-6.10
-8.46
-10.82
-13.27
-15.82
-18.40
-20.78
-22.72
-24.04
-24.61
-24.30
-22.97
-20.42
-16.52
-11.39
-5.48
0.52
5.83
9.87
12.44
13.67
13.87
13.35
12.28
10.65
8.40
5.55
2.24
-1.28
-4.78
-8.12
-11.24
-14.15
-16.75
-18.85
-20.18
-20.48
-19.64
-17.79
-15.26
-12.46
-9.80
-7.50
-5.62
-4.11
-2.83
-1.69
-0.66
0.23
0.91
1.38
1.67
1.85
2.01
2.18
2.33
2.41
2.38
2.28
2.17
2.11
2.11
2.11
2.07
1.93
1.70
1.47
1.33
1.37
1.59
1.96
2.40
2.87
3.35
3.86
4.43
5.01
5.54
5.91
6.05
5.96
5.76
5.63
5.71
6.04
6.53
7.03
7.41
7.59
7.62
7.54
7.39
7.17
6.82
6.33
5.73
5.14
4.70
4.49
4.54
4.75
4.99
5.13
5.07
4.79
4.34
3.80
3.29
2.88
2.60
2.38
2.10
1.64
0.93
0.05
-0.89
-1.75
-2.42
-2.90
-3.23
-3.49
-3.69
-3.84
-3.86
-3.72
-3.44
-3.03
-2.53
-1.95
-1.29
-0.56
0.18
0.85
1.36
1.70
1.91
2.11
2.39
2.75
3.13
3.38
3.36
3.01
2.37
1.56
0.76
0.14
-0.16
-0.13
0.17
0.58
0.90
0.97
0.76
0.36
-0.05
-0.32
-0.35
-0.21
-0.04
-0.02
-0.22
-0.61
-1.07
-1.45
-1.69
-1.74
-1.67
-1.51
-1.26
-0.93
-0.53
-0.12
0.20
0.37
0.38
0.33
0.33
0.49
0.81
1.22
1.66
2.06
2.44
2.83
3.24
3.63
3.90
3.98
3.83
3.51
3.11
2.74
2.51
2.45
2.53
2.72
2.94
3.12
3.19
3.09
2.75
2.19
1.46
0.67
-0.06
-0.63
-1.00
-1.19
-1.28
-1.37
-1.56
-1.90
-2.41
-3.07
-3.80
-4.52
-5.15
-5.61
-5.85
-5.85
-5.62
-5.22
-4.70
-4.15
-3.61
-3.07
-2.52
-1.89
-1.18
-0.40
0.39
1.11
1.72
2.22
2.64
3.03
3.44
3.87
4.30
4.65
4.84
4.79
4.52
4.06
3.54
3.08
2.77
2.63
2.65
2.79
2.99
3.22
3.43
3.58
3.62
3.52
3.26
2.86
2.37
1.88
1.47
1.18
1.00
0.84
0.57
0.11
-0.54
-1.27
-1.92
-2.39
-2.70
-3.00
-3.44
-4.09
-4.86
-5.55
-5.98
-6.05
-5.80
-5.36
-4.83
-4.28
-3.65
-2.87
-1.93
-0.87
0.19
1.14
1.91
2.53
3.07
3.58
4.05
4.42
4.64
4.70
4.68
4.69
4.87
5.25
5.76
6.24
6.55
6.59
6.37
5.95
5.45
4.98
4.62
4.42
4.36
4.37
4.32
4.13
3.80
3.39
2.98
2.64
2.34
2.06
1.75
1.45
1.20
1.01
0.84
0.57
0.08
-0.65
-1.50
-2.27
-2.79
-3.01
-3.03
-3.06
-3.27
-3.77
-4.48
-5.21
-5.73
-5.88
-5.61
-4.99
-4.12
-3.10
-2.01
-0.90
0.15
1.03
1.68
2.08
2.32
2.52
2.75
3.04
3.32
3.50
3.52
3.40
3.20
2.99
2.81
2.69
2.62
2.64
2.75
2.98
3.28
3.56
3.70
3.61
3.29
2.81
2.32
1.92
1.65
1.51
1.42
1.33
1.24
1.16
1.09
0.95
0.68
0.23
-0.38
-1.03
-1.55
-1.88
-2.03
-2.16
-2.47
-3.07
-3.95
-4.98
-5.93
-6.58
-6.80
-6.57
-6.01
-5.32
-4.68
-4.21
-3.89
-3.63
-3.31
-2.88
-2.32
-1.67
-0.96
-0.20
0.63
1.49
2.27
2.85
3.12
3.07
2.85
2.69
2.82
3.35
4.21
5.18
6.00
6.44
6.44
6.07
5.50
4.91
4.42
4.06
3.82
3.66
3.59
3.62
3.74
3.85
3.85
3.63
3.16
2.55
1.94
1.50
1.32
1.34
1.45
1.51
1.43
1.21
0.92
0.63
0.35
0.06
-0.25
-0.61
-1.00
-1.37
-1.72
-2.05
-2.40
-2.78
-3.19
-3.58
-3.93
-4.22
-4.48
-4.73
-4.93
-4.95
-4.64
-3.87
-2.69
-1.27
0.04
0.97
1.34
1.22
0.87
0.61
0.68
1.15
1.90
2.72
3.40
3.86
4.11
4.23
4.31
4.40
4.50
4.58
4.62
4.66
4.74
4.92
5.19
5.48
5.71
5.79
5.74
5.65
5.69
5.93
6.33
6.70
6.78
6.38
5.48
4.25
2.93
1.81
1.02
0.61
0.55
0.79
1.26
1.89
2.54
3.05
3.32
3.35
3.27
3.30
3.65
4.39
5.46
6.66
7.77
8.62
9.13
9.34
9.38
9.35
9.30
9.17
8.79
7.94
6.42
4.15
1.17
-2.29
-5.95
-9.47
-12.56
-15.05
-16.85
-17.96
-18.47
-18.48
-18.12
-17.47
-16.61
-15.59
-14.47
-13.31
-12.20
-11.18
-10.25
-9.37
-8.51
-7.67
-6.88
-6.17
-5.58
-5.08
-4.66
-4.32
-4.08
-4.02
-4.17
-4.49
-4.88
-5.22
-5.41
-5.47
-5.45
-5.44
-5.49
-5.56
-5.56
-5.41
-5.05
-4.50
-3.85
-3.20
-2.63
-2.14
-1.69
-1.20
-0.61
0.04
0.67
1.18
1.50
1.65
1.70
1.79
2.01
2.39
2.89
3.45
3.96
4.37
4.68
4.91
5.05
5.08
4.93
4.55
3.96
3.25
2.55
1.99
1.62
1.43
1.36
1.40
1.50
1.66
1.82
1.90
1.84
1.61
1.23
0.79
0.36
-0.03
-0.36
-0.62
-0.83
-0.98
-1.09
-1.22
-1.43
-1.75
-2.19
-2.71
-3.28
-3.85
-4.37
-4.77
-4.99
-4.97
-4.73
-4.34
-3.90
-3.50
-3.11
-2.67
-2.11
-1.41
-0.63
0.13
0.81
1.43
2.05
2.68
3.26
3.63
3.65
3.27
2.59
1.82
1.21
0.92
0.96
1.22
1.56
1.80
1.86
1.72
1.41
0.99
0.53
0.12
-0.17
-0.29
-0.25
-0.14
-0.07
-0.20
-0.62
-1.32
-2.19
-3.05
-3.76
-4.24
-4.51
-4.65
-4.73
-4.79
-4.82
-4.77
-4.63
-4.40
-4.09
-3.76
-3.43
-3.13
-2.87
-2.68
-2.53
-2.41
-2.25
-1.99
-1.58
-1.02
-0.38
0.25
0.77
1.13
1.31
1.32
1.18
0.93
0.59
0.21
-0.17
-0.49
-0.70
-0.82
-0.92
-1.05
-1.25
-1.47
-1.61
-1.54
-1.23
-0.71
-0.10
0.44
0.83
1.04
1.12
1.12
1.07
0.98
0.85
0.67
0.46
0.28
0.14
0.02
-0.12
-0.35
-0.78
-1.42
-2.26
-3.16
-3.95
-4.46
-4.59
-4.36
-3.92
-3.43
-3.05
-2.82
-2.68
-2.49
-2.12
-1.52
-0.73
0.15
1.01
1.77
2.43
3.05
3.66
4.25
4.74
5.06
5.20
5.22
5.26
5.43
5.76
6.19
6.54
6.65
6.43
5.88
5.11
4.25
3.43
2.77
2.30
2.05
1.95
1.94
1.90
1.77
1.52
1.13
0.64
0.03
-0.71
-1.55
-2.43
-3.22
-3.80
-4.11
-4.24
-4.33
-4.51
-4.87
-5.34
-5.79
-6.07
-6.12
-5.96
-5.67
-5.36
-5.09
-4.88
-4.70
-4.50
-4.22
-3.77
-3.09
-2.16
-1.04
0.13
1.18
1.97
2.48
2.74
2.85
2.91
2.93
2.89
2.79
2.66
2.57
2.62
2.82
3.12
3.39
3.48
3.32
2.95
2.48
2.09
1.89
1.92
2.10
2.29
2.33
2.15
1.76
1.26
0.77
0.37
0.06
-0.26
-0.69
-1.28
-2.01
-2.76
-3.35
-3.69
-3.74
-3.61
-3.45
-3.37
-3.39
-3.44
-3.35
-3.01
-2.42
-1.68
-0.96
-0.43
-0.11
0.08
0.28
0.61
1.09
1.66
2.22
2.66
2.92
3.04
3.07
3.13
3.28
3.58
3.95
4.32
4.55
4.56
4.37
4.06
3.76
3.59
3.61
3.74
3.86
3.81
3.49
2.92
2.22
1.54
1.01
0.67
0.46
0.31
0.12
-0.12
-0.41
-0.75
-1.20
-1.84
-2.69
-3.69
-4.66
-5.38
-5.72
-5.74
-5.58
-5.47
-5.52
-5.72
-5.94
-6.02
-5.89
-5.56
-5.13
-4.68
-4.18
-3.61
-2.92
-2.13
-1.31
-0.53
0.18
0.86
1.54
2.21
2.81
3.21
3.34
3.22
2.94
2.67
2.53
2.54
2.69
2.90
3.11
3.29
3.44
3.57
3.64
3.63
3.53
3.34
3.09
2.85
2.64
2.45
2.27
2.05
1.79
1.50
1.17
0.81
0.39
-0.10
-0.67
-1.28
-1.85
-2.31
-2.61
-2.75
-2.77
-2.72
-2.64
-2.54
-2.43
-2.32
-2.28
-2.38
-2.69
-3.19
-3.78
-4.32
-4.66
-4.72
-4.51
-4.08
-3.45
-2.63
-1.65
-0.57
0.45
1.26
1.74
1.89
1.83
1.74
1.72
1.80
1.95
2.11
2.28
2.49
2.80
3.20
3.62
3.99
4.20
4.21
4.04
3.76
3.45
3.16
2.93
2.72
2.50
2.27
2.03
1.82
1.65
1.48
1.24
0.86
0.32
-0.30
-0.83
-1.13
-1.12
-0.85
-0.50
-0.26
-0.27
-0.59
-1.15
-1.83
-2.51
-3.10
-3.59
-3.96
-4.21
-4.32
-4.27
-4.08
-3.81
-3.53
-3.31
-3.14
-2.96
-2.67
-2.19
-1.54
-0.87
-0.32
-0.04
-0.03
-0.15
-0.20
-0.01
0.44
1.04
1.58
1.86
1.82
1.54
1.17
0.91
0.86
1.03
1.38
1.79
2.19
2.49
2.62
2.55
2.28
1.88
1.42
0.99
0.65
0.42
0.27
0.16
0.04
-0.12
-0.34
-0.63
-1.00
-1.40
-1.82
-2.19
-2.48
-2.70
-2.87
-3.07
-3.33
-3.60
-3.81
-3.84
-3.68
-3.38
-3.11
-3.02
-3.17
-3.43
-3.60
-3.45
-2.90
-2.01
-0.99
-0.02
0.76
1.29
1.59
1.71
1.69
1.61
1.55
1.61
1.87
2.31
2.84
3.31
3.60
3.65
3.50
3.22
2.89
2.57
2.27
2.03
1.83
1.69
1.56
1.40
