1528851206.00
64.000000
-0.00
-0.00
-0.00
-0.00
-0.00
-0.00
-0.00
-0.00
-0.00
-0.01
-0.00
0.00
0.01
0.01
-0.00
-0.03
-0.05
-0.05
-0.00
0.13
0.36
0.66
1.01
1.37
1.72
2.06
2.40
2.77
3.24
3.80
4.42
5.06
5.66
6.20
6.68
7.15
7.64
8.31
9.15
10.09
11.04
11.88
12.56
13.14
13.79
14.63
16.02
17.93
20.23
22.66
24.94
26.94
28.78
30.78
33.25
36.83
41.51
47.01
52.82
58.37
63.34
67.85
72.39
77.47
84.01
92.00
101.03
110.28
118.95
126.58
133.30
140.76
147.10
154.31
162.95
173.63
186.45
200.38
212.79
219.63
216.37
199.35
167.81
123.22
69.26
10.24
-50.26
-110.15
-168.63
-225.55
-280.97
-334.25
-385.03
-432.79
-476.90
-516.25
-549.20
-573.54
-587.12
-588.38
-576.55
-552.42
-517.89
-475.81
-429.25
-380.65
-330.99
-279.42
-223.84
-162.06
-93.67
-20.86
51.78
118.72
175.33
219.33
251.05
272.42
285.74
292.56
293.58
289.19
280.10
267.63
253.39
238.78
224.55
210.76
196.99
182.87
168.34
153.78
139.77
126.86
115.28
104.90
95.34
86.12
76.89
67.55
58.29
49.47
41.47
34.52
28.68
23.77
19.61
15.85
12.22
8.64
5.19
2.04
-0.62
-2.66
-4.11
-5.10
-5.83
-6.42
-6.91
-7.28
-7.44
-7.33
-6.97
-6.43
-5.83
-5.33
-5.05
-5.08
-5.39
-5.87
-6.33
-6.57
-6.45
-6.02
-5.45
-4.99
-4.75
-4.70
-4.67
-4.44
-3.92
-3.20
-2.50
-2.08
-2.05
-2.37
-2.86
-3.34
-3.70
-3.91
-4.02
-4.05
-3.98
-3.80
-3.53
-3.21
-2.94
-2.80
-2.77
-2.79
-2.78
-2.66
-2.39
-1.96
-1.37
-0.68
0.03
0.63
0.98
1.01
0.75
0.33
-0.08
-0.32
-0.30
-0.06
0.29
0.64
0.89
1.06
1.24
1.51
1.92
2.47
3.02
3.47
3.78
3.99
4.21
4.52
4.93
5.36
5.65
5.65
5.29
4.58
3.61
2.50
1.37
0.26
-0.83
-1.90
-2.94
-3.92
-4.79
-5.48
-5.94
-6.14
-6.11
-5.88
-5.50
-4.98
-4.35
-3.68
-3.08
-2.67
-2.51
-2.63
-2.91
-3.19
-3.32
-3.24
-2.95
-2.53
-2.07
-1.67
-1.42
-1.34
-1.41
-1.52
-1.59
-1.55
-1.44
-1.40
-1.52
-1.86
-2.32
-2.75
-2.99
-3.04
-2.97
-2.92
-2.99
-3.12
-3.21
-3.17
-3.06
-3.02
-3.21
-3.66
-4.22
-4.66
-4.78
-4.55
-4.09
-3.63
-3.38
-3.40
-3.61
-3.84
-3.93
-3.77
-3.46
-3.09
-2.72
-2.41
-2.18
-2.06
-2.10
-2.30
-2.64
-3.05
-3.38
-3.50
-3.37
-3.03
-2.59
-2.18
-1.87
-1.65
-1.42
-1.07
-0.53
0.23
1.14
2.13
3.06
3.83
4.32
4.47
4.30
3.91
3.47
3.16
3.10
3.29
3.63
3.98
4.24
4.42
4.57
4.77
5.04
5.33
5.58
5.71
5.73
5.67
5.57
5.44
5.27
5.05
4.83
4.67
4.65
4.79
5.05
5.34
5.62
5.90
6.25
6.76
7.40
8.03
8.42
8.34
7.72
6.70
5.62
4.92
4.93
5.71
6.99
8.35
9.32
9.74
9.78
9.89
10.64
12.49
15.64
19.96
25.11
30.54
35.57
39.56
42.01
42.84
42.54
42.13
42.79
45.37
49.95
55.71
61.32
65.48
67.47
67.38
65.99
64.38
63.53
63.94
65.45
67.33
68.48
67.72
64.20
57.55
47.90
35.77
21.80
6.57
-9.39
-25.53
-41.21
-55.75
-68.53
-79.15
-87.43
-93.37
-97.00
-98.39
-97.61
-94.82
-90.27
-84.34
-77.53
-70.36
-63.37
-56.95
-51.25
-46.12
-41.19
-36.01
-30.24
-23.82
-16.99
-10.19
-3.90
1.50
5.80
9.01
11.28
12.79
13.69
14.02
13.70
12.60
10.66
7.96
4.70
1.10
-2.63
-6.39
-10.10
-13.67
-16.97
-19.90
-22.51
-24.98
-27.58
-30.46
-33.48
-36.09
-37.48
-36.82
-33.56
-27.66
-19.62
-10.35
-1.02
7.21
13.26
16.27
15.72
11.60
4.45
-4.72
-14.55
-23.75
-31.28
-36.56
-39.36
-39.74
-37.84
-33.90
-28.29
-21.62
-14.72
-8.42
-3.32
0.45
3.27
5.84
8.85
12.76
17.52
22.68
27.50
31.31
33.75
34.93
35.38
35.79
36.70
38.16
39.60
39.98
38.10
33.13
24.97
14.36
2.66
-8.51
-17.84
-24.66
-29.04
-31.79
-34.27
-38.02
-44.24
-53.24
-64.10
-74.87
-83.09
-86.74
-85.00
-78.49
-68.94
-58.33
-48.25
-39.42
-31.85
-25.17
-19.05
-13.31
-7.87
-2.67
2.38
7.26
11.67
15.10
16.92
16.69
14.34
10.33
5.56
1.06
-2.33
-4.13
-4.34
-3.34
-1.71
-0.04
1.25
2.01
2.34
2.51
2.90
3.77
5.14
6.82
8.51
9.95
11.04
11.84
12.48
13.03
13.44
13.64
13.59
13.42
13.32
13.47
13.91
14.53
15.10
15.36
15.12
14.39
13.27
11.92
10.52
9.22
8.09
7.22
6.68
6.53
6.83
7.59
8.78
10.27
11.86
13.34
14.47
15.11
15.21
14.86
14.20
13.42
12.64
11.90
11.22
10.63
10.20
10.02
10.15
10.53
11.01
11.40
11.55
11.43
11.11
10.69
10.26
9.87
9.54
9.27
9.11
9.10
9.21
9.35
9.34
8.92
7.90
6.18
3.86
1.18
-1.52
-3.97
-6.01
-7.66
-8.96
-9.93
-10.43
-10.31
-9.45
-7.93
-5.96
-3.89
-2.04
-0.64
0.20
0.48
0.29
-0.16
-0.61
-0.79
-0.43
0.60
2.37
4.83
7.89
11.31
14.75
17.75
19.87
20.77
20.30
18.44
15.21
10.73
5.29
-0.52
-5.84
-9.71
-11.48
-11.06
-8.94
-5.98
-3.04
-0.68
0.89
1.71
1.90
1.58
0.91
0.17
-0.29
-0.16
0.70
2.17
3.95
5.71
7.19
8.26
8.84
8.94
8.62
8.03
7.44
7.17
7.54
8.76
10.89
13.86
17.45
21.32
25.07
28.24
30.46
31.51
31.38
30.28
28.41
25.86
22.53
18.17
12.60
5.84
-1.75
-9.57
-16.87
-22.97
-27.37
-29.88
-30.63
-30.03
-28.69
-27.29
-26.36
-26.22
-26.95
-28.40
-30.33
-32.40
-34.30
-35.71
-36.39
-36.25
-35.49
-34.56
-33.93
-33.84
-34.02
-33.70
-31.98
-28.24
-22.56
-15.71
-8.89
-3.15
0.92
3.29
4.33
4.43
3.89
2.88
1.61
0.39
-0.40
-0.41
0.45
2.03
4.01
6.02
7.73
8.96
9.64
9.83
9.69
9.41
9.16
9.00
8.88
8.68
8.29
7.68
6.93
6.16
5.47
4.84
4.23
3.54
2.73
1.79
0.78
-0.30
-1.40
-2.48
-3.43
-4.13
-4.45
-4.31
-3.76
-2.91
-1.92
-0.93
-0.01
0.81
1.56
2.27
2.97
3.64
4.26
4.76
5.10
5.28
5.35
5.41
5.54
5.77
6.10
6.46
6.78
7.00
7.06
6.95
6.64
6.10
5.35
4.49
3.68
3.05
2.71
2.62
2.68
2.68
2.49
2.07
1.47
0.86
0.39
0.19
0.32
0.78
1.52
2.49
3.58
4.65
5.57
6.24
6.66
6.88
6.99
7.08
7.19
7.32
7.40
7.39
7.24
6.93
6.47
5.88
5.26
4.71
4.30
4.07
3.98
3.92
3.79
3.54
3.22
2.89
2.63
2.44
2.30
2.12
1.89
1.60
1.31
1.03
0.76
0.46
0.08
-0.35
-0.73
-0.93
-0.82
-0.35
0.43
1.40
2.38
3.25
3.90
4.30
4.46
4.38
4.13
3.75
3.36
3.06
2.91
2.94
3.09
3.22
3.23
3.07
2.79
2.49
2.29
2.20
2.15
1.99
1.61
0.97
0.14
-0.69
-1.35
-1.76
-1.95
-2.02
-2.10
-2.24
-2.39
-2.46
-2.37
-2.15
-1.85
-1.54
-1.18
-0.68
0.07
1.06
2.10
2.92
3.32
3.26
2.92
2.56
2.34
2.28
2.29
2.21
2.02
1.79
1.62
1.57
1.62
1.67
1.65
1.59
1.55
1.60
1.77
1.96
2.08
2.03
1.85
1.65
1.57
1.73
2.13
2.66
3.19
3.57
3.76
3.80
3.81
3.93
4.25
4.78
5.47
6.22
6.97
7.70
8.46
9.42
10.78
12.68
15.14
17.98
20.86
23.38
25.22
26.19
26.32
25.81
24.94
24.10
23.66
23.85
24.60
25.33
24.99
22.30
16.27
6.64
-5.86
-19.69
-32.95
-43.77
-50.72
-52.82
-49.53
-40.84
-27.42
-10.81
6.70
22.42
33.94
39.62
38.96
32.56
21.78
8.40
-5.70
-18.83
-29.57
-36.93
-40.41
-39.95
-35.92
-29.04
-20.24
-10.69
-1.61
5.90
11.08
13.70
14.11
13.01
11.22
9.39
7.81
6.46
5.19
3.91
2.79
2.20
2.54
3.91
5.90
7.63
8.02
6.21
2.03
-3.91
-10.43
-16.22
-20.38
-22.67
-23.46
-23.44
-23.19
-22.98
-22.76
-22.34
-21.61
-20.58
-19.31
-17.86
-16.21
-14.35
-12.39
-10.69
-9.77
-10.04
-11.58
-13.93
-16.16
-17.26
-16.52
-13.87
-9.87
-5.47
-1.54
1.35
3.04
3.61
3.16
1.75
-0.55
-3.42
-6.25
-8.31
-9.03
-8.40
-6.87
-5.11
-3.49
-1.64
1.46
6.95
15.25
25.51
35.64
43.06
45.85
43.64
37.84
30.94
25.51
23.12
24.01
27.27
31.57
35.69
38.76
40.22
39.60
36.56
31.08
23.75
15.80
8.82
4.28
2.96
4.80
8.95
14.22
19.41
23.62
26.23
26.83
25.20
21.34
15.65
9.02
2.65
-2.29
-5.08
-5.68
-4.62
-2.64
-0.27
2.33
5.23
8.39
11.38
13.48
13.98
12.66
9.99
7.14
5.49
6.15
9.63
15.76
23.78
32.62
41.04
47.73
51.25
50.24
43.80
32.08
16.60
0.07
-14.46
-24.70
-30.06
-31.64
-31.58
-31.84
-33.33
-35.71
-37.99
-39.38
-39.90
-40.21
-41.16
-43.10
-45.68
-48.21
-50.16
-51.56
-53.03
-55.40
-59.28
-64.64
-70.76
-76.44
-80.45
-81.95
-80.69
-77.08
-71.86
-65.84
-59.62
-53.44
-47.37
-41.39
-35.65
-30.47
-26.29
-23.44
-21.99
-21.69
-22.02
-22.38
-22.25
-21.33
-19.61
-17.29
-14.68
-12.07
-9.60
-7.22
-4.86
-2.48
-0.22
1.61
2.68
2.77
1.98
0.73
-0.41
-0.88
-0.36
1.13
3.28
5.62
7.73
9.30
10.29
10.82
11.15
11.52
12.11
12.93
13.87
14.71
15.23
15.24
14.61
13.32
11.48
9.26
6.92
4.76
3.00
1.79
1.11
0.84
0.83
0.93
1.08
1.29
1.56
1.90
2.24
2.51
2.69
2.78
2.82
2.83
2.82
2.79
2.79
2.84
3.01
3.30
3.65
4.00
4.27
4.43
4.51
4.58
4.67
4.79
4.93
5.09
5.31
5.61
6.06
6.64
7.30
7.90
8.28
8.32
8.02
7.48
6.87
6.38
6.05
5.86
5.68
5.38
4.89
4.23
3.48
2.68
1.91
1.22
0.65
0.26
0.09
0.14
0.38
0.76
1.25
1.85
2.55
3.35
4.19
5.00
5.72
6.29
6.70
6.95
7.08
7.07
6.95
6.73
6.42
6.06
5.66
5.22
4.74
4.21
3.63
3.07
2.61
2.36
2.36
2.62
3.01
3.34
3.43
3.18
2.65
1.98
1.41
1.08
1.05
1.29
1.70
2.22
2.84
3.56
4.37
5.21
5.96
6.49
6.75
6.72
6.49
6.15
5.78
5.47
5.28
5.25
5.39
5.65
5.95
6.19
6.29
6.24
6.12
6.01
5.97
6.00
6.06
6.07
5.98
5.73
5.32
4.74
4.02
3.25
2.55
2.13
2.13
2.63
3.55
4.69
5.76
6.52
6.84
6.74
6.36
5.90
5.53
5.37
5.41
5.60
5.89
6.19
6.44
6.57
6.50
6.25
5.95
5.93
6.54
8.07
10.53
13.72
17.26
20.92
24.76
29.18
34.75
41.93
50.76
60.83
71.31
81.24
89.72
96.11
100.13
101.79
101.35
99.17
95.61
90.93
85.20
78.30
69.99
60.00
48.21
34.84
20.51
6.15
-7.27
-19.10
-29.17
-37.80
-45.57
-52.94
-60.06
-66.67
-72.33
-76.62
-79.31
-80.45
-80.20
-78.77
-76.34
-73.04
-69.03
-64.52
-59.75
-54.99
-50.46
-46.34
-42.81
-40.09
-38.35
-37.70
-38.04
-39.03
-40.13
-40.82
-40.77
-40.07
-39.11
-38.43
-38.39
-39.00
-39.91
-40.54
-40.25
-38.42
-34.56
-28.37
-19.93
-9.89
0.49
9.63
16.09
19.07
18.61
15.52
10.90
5.76
0.69
-4.04
-8.28
-11.77
-14.08
-14.80
-13.76
-11.17
-7.60
-3.79
-0.37
2.30
4.23
5.68
6.92
8.05
8.98
9.52
9.58
9.22
8.73
8.44
8.61
9.25
10.20
11.21
12.02
12.51
12.69
12.66
12.54
12.45
12.43
12.46
12.46
12.32
12.01
11.57
11.15
10.88
10.88
11.15
11.58
12.07
12.54
13.00
13.50
14.07
14.67
15.19
15.53
15.70
15.82
16.13
16.85
18.17
20.15
22.71
25.75
29.08
32.55
35.93
39.01
41.53
43.32
44.29
44.48
43.97
42.83
41.08
38.69
35.64
31.88
27.43
22.24
16.27
9.50
1.98
-6.07
-14.30
-22.26
-29.52
-35.79
-40.95
-45.04
-48.23
-50.64
-52.35
-53.39
-53.71
-53.33
-52.31
-50.83
-49.08
-47.27
-45.54
-43.97
-42.58
-41.29
-39.89
-38.13
-35.71
-32.40
-28.21
-23.38
-18.33
-13.56
-9.48
-6.34
-4.25
-3.18
-3.01
-3.49
-4.28
-4.97
-5.14
-4.52
-3.08
-0.98
1.46
3.87
5.97
7.59
8.68
9.25
9.38
9.22
8.95
8.74
8.69
8.77
8.86
8.79
8.45
7.81
6.94
5.93
4.82
3.61
2.29
0.92
-0.42
-1.66
-2.79
-3.90
-5.14
-6.56
-8.08
-9.46
-10.40
-10.66
-10.19
-9.07
-7.53
-5.79
-4.04
-2.41
-1.02
0.09
0.94
1.62
2.28
3.06
4.06
5.24
6.42
7.39
7.96
8.07
7.80
7.34
6.92
6.67
6.62
6.67
6.72
6.67
6.51
6.25
5.92
5.53
5.10
4.66
4.26
3.93
3.64
3.29
2.82
2.18
1.44
0.69
0.03
-0.54
-1.04
-1.53
-2.06
-2.62
-3.18
-3.72
-4.23
-4.68
-5.01
-5.15
-5.06
-4.75
-4.33
-3.94
-3.63
-3.39
-3.10
-2.63
-1.94
-1.08
-0.18
0.63
1.30
1.83
2.30
2.80
3.37
4.03
4.76
5.52
6.25
6.89
7.39
7.72
7.88
7.86
7.70
7.43
7.06
6.63
6.16
5.68
5.19
4.63
3.94
3.08
2.08
1.03
0.06
-0.71
-1.22
-1.43
-1.34
-0.97
-0.35
0.43
1.20
1.81
2.16
2.24
2.13
2.00
1.91
1.89
1.90
1.90
1.92
2.03
2.27
2.62
2.95
3.07
2.90
2.47
1.94
1.53
1.37
1.48
1.78
2.18
2.67
3.28
4.06
4.99
5.95
6.78
7.34
7.55
7.36
6.77
5.81
4.57
3.25
2.14
1.54
1.64
2.47
3.95
5.85
7.94
9.93
11.56
12.64
13.06
12.89
12.37
11.78
11.32
11.00
10.58
9.73
8.15
5.75
2.66
-0.80
-4.28
-7.52
-10.41
-12.98
-15.30
-17.41
-19.25
-20.67
-21.50
-21.67
-21.21
-20.22
-18.83
-17.13
-15.13
-12.84
-10.32
-7.69
-5.15
-2.86
-0.88
0.86
2.52
4.24
6.06
7.93
9.73
11.31
12.53
13.23
13.24
12.37
10.54
7.84
4.55
1.11
-2.06
-4.66
-6.60
-7.95
-8.89
-9.59
-10.18
-10.68
-11.10
-11.38
-11.43
-11.18
-10.50
-9.31
-7.46
-4.84
-1.37
2.90
7.76
12.77
17.43
21.24
23.90
25.31
25.49
24.54
22.53
19.55
15.83
11.73
7.70
4.15
1.25
-1.09
-3.11
-5.05
-6.95
-8.64
-9.85
-10.36
-10.12
-9.24
-7.97
-6.49
-4.92
-3.29
-1.57
0.32
2.47
4.91
7.57
10.17
12.29
13.44
13.28
11.77
9.19
6.11
3.07
0.48
-1.55
-3.12
-4.38
-5.42
-6.21
-6.68
-6.77
-6.48
-5.86
-4.93
-3.69
-2.19
-0.58
0.90
1.92
2.29
1.98
1.16
0.16
-0.79
-1.63
-2.56
-3.93
-6.00
-8.73
-11.64
-13.91
-14.64
-13.19
-9.49
-4.13
1.82
7.16
10.97
12.84
12.89
11.54
9.33
6.70
3.98
1.39
-0.84
-2.49
-3.36
-3.38
-2.64
-1.41
-0.03
1.15
1.88
2.04
1.62
0.69
-0.61
-2.06
-3.40
-4.33
-4.61
-4.17
-3.18
-1.98
-1.04
-0.78
-1.40
-2.83
-4.76
-6.75
-8.37
-9.31
-9.45
-8.82
-7.56
-5.86
-3.90
-1.89
-0.04
1.47
2.48
2.93
2.82
2.27
1.50
0.79
0.44
0.66
1.48
2.71
4.02
4.96
5.19
4.53
3.01
0.83
-1.74
-4.41
-6.94
-9.08
-10.63
-11.44
-11.45
-10.71
-9.39
-7.73
-5.97
-4.33
-2.93
-1.82
-0.94
-0.17
0.62
1.52
2.55
3.58
4.43
4.91
4.88
4.36
3.46
2.36
1.28
0.43
-0.03
-0.01
0.47
1.25
2.11
2.82
3.31
3.68
4.09
4.69
5.42
6.09
6.42
6.19
5.34
3.90
2.07
0.25
-0.89
-0.55
1.95
6.80
13.44
20.69
27.15
31.79
34.23
34.81
34.12
32.63
30.42
27.30
23.08
17.84
11.96
5.99
0.43
-4.46
-8.70
-12.41
-15.74
-18.73
-21.24
-23.09
-24.12
-24.31
-23.83
-22.95
-21.97
-21.10
-20.41
-19.84
-19.26
-18.53
-17.55
-16.29
-14.75
-12.82
-10.33
-6.94
-2.27
4.00
11.90
21.04
30.66
39.90
48.09
54.88
60.32
64.76
68.67
72.48
76.31
79.76
81.94
81.61
77.37
68.20
53.99
35.72
15.27
-5.17
-23.73
-39.12
-50.76
-59.15
-65.46
-70.79
-75.47
-78.40
-77.55
-70.85
-57.38
-38.24
-17.20
0.56
10.68
11.14
3.29
-9.43
-22.99
-34.02
-40.28
-41.54
-39.10
-35.19
-33.01
-35.81
-47.08
-69.60
-104.12
-143.49
-176.96
-194.63
-193.23
-177.59
-155.27
-133.44
-117.18
-109.00
-108.60
-113.60
-122.00
-127.31
-123.22
-104.68
-70.95
-26.34
21.32
63.68
94.35
111.22
117.43
114.92
109.57
107.08
110.62
120.09
133.05
145.82
155.20
159.67
158.97
154.53
147.42
138.21
127.34
115.79
104.97
96.23
90.17
85.70
80.79
72.61
59.02
39.88
17.51
-4.06
-20.78
-30.21
-32.60
-30.24
-26.69
-25.15
-27.25
-32.60
-39.36
-45.35
-49.02
-50.02
-49.00
-47.38
-46.56
-47.21
-48.58
-47.96
-41.06
-23.35
7.75
51.02
100.77
148.31
184.93
204.83
206.66
192.90
168.12
137.11
103.98
72.20
44.80
24.11
11.05
4.39
1.08
-2.57
-9.31
-19.91
-33.25
-47.31
-60.26
-70.95
-78.94
-84.14
-86.64
-86.70
-84.94
-82.29
-79.67
-77.65
-76.28
-75.10
-73.41
-70.64
-66.66
-61.78
-56.65
-51.90
-47.89
-44.55
-41.40
-37.81
-33.29
-27.78
-21.66
-15.65
-10.46
-6.55
-4.00
-2.49
-1.52
-0.64
0.45
1.82
3.42
5.08
6.66
8.09
9.31
10.29
10.99
11.32
11.14
10.40
9.17
7.69
6.27
5.23
4.71
4.63
4.73
4.73
4.39
3.72
2.88
2.14
1.73
1.72
2.00
2.35
2.50
2.32
1.85
1.25
0.69
0.29
0.06
-0.12
-0.40
-0.91
-1.78
-3.08
-4.83
-6.84
-8.74
-10.01
-10.16
-8.96
-6.62
-3.68
-0.86
1.29
2.49
2.84
2.58
1.98
1.22
0.39
-0.47
-1.24
-1.76
-1.90
-1.63
-1.03
-0.28
0.42
0.98
1.35
1.61
1.84
2.05
2.18
2.10
1.71
0.98
0.04
-0.95
-1.83
-2.58
-3.27
-3.99
-4.76
-5.51
-6.08
-6.34
-6.26
-5.88
-5.31
-4.61
-3.77
-2.78
-1.65
-0.48
0.58
1.39
1.89
2.11
2.15
2.12
2.09
2.08
2.07
2.04
1.97
1.86
1.73
1.63
1.59
1.63
1.72
1.80
1.82
1.72
1.53
1.29
1.04
0.81
0.61
0.41
0.17
-0.10
-0.43
-0.81
-1.23
-1.66
-2.05
-2.33
-2.39
-2.15
-1.56
-0.64
0.50
1.65
2.62
3.23
3.42
3.24
2.82
2.35
1.96
1.77
1.78
1.95
2.20
2.46
2.67
2.83
2.96
3.09
3.21
3.27
3.21
2.97
2.54
1.97
1.35
0.80
0.38
0.12
0.02
-0.04
-0.15
-0.44
-0.97
-1.69
-2.43
-2.97
-3.10
-2.74
-1.96
-0.97
0.03
0.89
1.53
1.99
2.30
2.48
2.49
2.33
2.01
1.61
1.23
0.98
0.91
1.03
1.29
1.65
2.08
2.52
2.87
3.02
2.86
2.40
1.72
1.05
0.59
0.45
0.56
0.72
0.71
0.42
-0.14
-0.83
-1.48
-1.97
-2.24
-2.28
-2.07
-1.64
-0.99
-0.18
0.69
1.51
2.18
2.63
2.83
2.74
2.41
1.90
1.36
0.98
0.88
1.11
1.56
2.07
2.42
2.51
2.30
1.86
1.31
0.76
0.31
0.01
-0.14
-0.18
-0.19
-0.24
-0.42
-0.76
-1.26
-1.89
-2.56
-3.19
-3.65
-3.88
-3.82
-3.49
-2.99
-2.39
-1.79
-1.22
-0.71
-0.26
0.10
0.31
0.38
0.33
0.21
0.10
0.01
-0.06
-0.15
-0.29
-0.46
-0.59
-0.61
-0.47
-0.21
0.07
0.24
0.17
-0.18
-0.75
-1.45
-2.13
-2.70
-3.11
-3.34
-3.42
-3.38
-3.29
-3.23
-3.26
-3.37
-3.43
-3.29
-2.84
-2.13
-1.33
-0.67
-0.27
-0.11
-0.06
-0.01
0.08
0.09
-0.08
-0.43
-0.80
-0.99
-0.82
-0.29
0.42
1.09
1.51
1.58
1.35
0.96
0.56
0.28
0.20
0.30
0.47
0.56
0.46
0.12
-0.38
-0.91
-1.34
-1.64
-1.86
-2.09
-2.38
-2.65
-2.74
-2.54
-2.02
-1.32
-0.65
-0.18
0.05
0.12
0.22
0.46
0.85
1.24
1.47
1.42
1.12
0.78
0.62
0.78
1.21
1.73
2.08
2.13
1.89
1.53
1.25
1.20
1.36
1.58
1.67
1.54
1.21
0.83
0.58
0.53
0.66
0.83
0.87
0.68
0.31
-0.09
-0.34
-0.31
0.01
0.52
1.08
1.60
2.03
2.36
2.57
2.62
2.47
2.14
1.69
1.25
0.95
0.83
0.89
1.07
1.27
1.42
1.47
1.42
1.30
1.14
0.96
0.79
0.61
0.42
0.20
-0.02
-0.21
-0.32
-0.34
-0.30
-0.25
-0.22
-0.23
-0.24
-0.23
-0.18
-0.10
-0.02
0.02
0.02
-0.03
-0.11
-0.16
-0.14
-0.03
0.15
0.36
0.52
0.61
0.62
0.62
0.70
0.92
1.28
1.69
2.04
2.19
2.08
1.73
1.27
0.85
0.63
0.70
1.03
1.48
1.86
1.96
1.67
1.00
0.06
-0.95
-1.84
-2.45
-2.69
-2.56
-2.12
-1.51
-0.85
-0.27
0.20
0.57
0.88
1.18
1.45
1.66
1.74
1.66
1.42
1.03
0.57
0.13
-0.19
-0.31
-0.22
-0.01
0.19
0.23
0.08
-0.16
-0.32
-0.27
0.01
0.41
0.75
0.90
0.84
0.63
0.34
0.04
-0.23
-0.45
-0.59
-0.61
-0.50
-0.27
-0.01
0.21
0.32
0.30
0.14
-0.10
-0.36
-0.53
-0.52
-0.28
0.15
0.69
1.18
1.53
1.68
1.65
1.49
1.27
1.05
0.84
0.66
0.50
0.37
0.29
0.29
0.35
0.43
0.46
0.37
0.16
-0.11
-0.33
-0.45
-0.47
-0.47
-0.52
-0.65
-0.76
-0.70
-0.35
0.26
0.96
1.53
1.76
1.57
1.03
0.24
-0.66
-1.60
-2.49
-3.22
-3.63
-3.54
-2.84
-1.59
-0.00
1.57
2.79
3.42
3.43
2.94
2.17
1.29
0.45
-0.32
-0.98
-1.51
-1.83
-1.86
-1.57
-1.04
-0.46
-0.00
0.19
0.11
-0.15
-0.47
-0.76
-1.02
-1.28
-1.54
-1.73
-1.78
-1.65
-1.35
-0.99
-0.65
-0.39
-0.17
0.06
0.32
0.58
0.77
0.88
0.94
1.06
1.31
1.66
2.03
2.24
2.20
1.89
1.44
1.00
0.72
0.63
0.66
0.69
0.63
0.44
0.16
-0.17
-0.51
-0.86
-1.22
-1.56
-1.82
-1.96
-1.95
-1.82
-1.62
-1.40
-1.13
-0.81
-0.42
-0.05
0.22
0.31
0.23
0.08
-0.05
-0.09
-0.05
0.03
0.13
0.27
0.50
0.82
1.21
1.57
1.83
1.95
1.94
1.81
1.60
1.27
0.85
0.36
-0.09
-0.43
-0.60
-0.60
-0.48
-0.31
-0.20
-0.22
-0.43
-0.81
-1.26
-1.64
-1.79
-1.63
-1.20
-0.60
-0.01
0.46
0.75
0.87
0.88
0.83
0.78
0.76
0.79
0.86
0.93
0.93
0.81
0.57
0.25
-0.05
-0.24
-0.27
-0.15
0.04
0.19
0.19
0.02
-0.30
-0.63
-0.87
-0.90
-0.73
-0.42
-0.11
0.10
0.16
0.08
-0.06
-0.18
-0.23
-0.15
0.05
0.40
0.86
1.37
1.81
2.02
1.91
1.49
0.85
0.18
-0.35
-0.65
-0.68
-0.50
-0.17
0.23
0.62
0.96
1.21
1.36
1.42
1.41
1.32
1.14
0.85
0.45
0.02
-0.36
-0.58
-0.59
-0.41
-0.16
-0.02
-0.11
-0.48
-1.06
-1.69
-2.23
-2.60
-2.81
-2.89
-2.92
-2.89
-2.79
-2.62
-2.47
-2.47
-2.73
-3.25
-3.89
-4.43
-4.71
-4.66
-4.37
-3.98
-3.60
-3.29
-3.03
-2.76
-2.42
-1.95
-1.33
-0.57
0.31
1.23
2.11
2.89
3.52
4.00
4.33
4.50
4.53
4.49
4.43
4.38
4.32
4.17
3.84
3.29
2.60
1.92
1.42
1.20
1.26
1.47
1.71
1.84
1.82
1.65
1.40
1.18
1.07
1.13
1.31
1.54
1.69
1.67
1.46
1.07
0.57
0.03
-0.50
-0.94
-1.25
-1.36
-1.26
-0.99
-0.63
-0.29
-0.03
0.07
0.02
-0.16
-0.42
-0.72
-0.99
-1.18
-1.24
-1.16
-0.93
-0.58
-0.18
0.17
0.39
0.42
0.27
0.02
-0.19
-0.25
-0.13
0.12
0.39
0.61
0.71
0.67
0.49
0.18
-0.24
-0.72
-1.14
-1.37
-1.32
-0.97
-0.44
0.11
0.52
0.70
0.64
0.45
0.24
0.11
0.11
0.18
0.26
0.26
0.16
-0.01
-0.20
-0.33
-0.42
-0.48
-0.57
-0.68
-0.77
-0.78
-0.66
-0.45
-0.21
0.00
0.14
0.20
0.21
0.20
0.14
0.03
-0.17
-0.42
-0.69
-0.91
-1.04
-1.05
-0.95
-0.78
-0.62
-0.54
-0.58
-0.74
-0.97
-1.22
-1.42
-1.51
-1.44
-1.16
-0.63
0.14
1.05
1.91
2.51
2.66
2.31
1.53
0.56
-0.35
-0.98
-1.22
-1.09
-0.76
-0.41
-0.23
-0.31
-0.62
-1.05
-1.48
-1.82
-2.05
-2.20
-2.32
-2.39
-2.42
-2.37
-2.26
-2.15
-2.13
-2.25
-2.45
-2.59
-2.48
-2.00
-1.15
-0.10
0.94
1.77
2.33
2.70
2.99
3.31
3.71
4.13
4.52
4.87
5.15
5.34
5.34
5.03
4.31
3.25
2.07
1.08
0.57
0.64
1.18
1.93
2.57
2.90
2.88
2.62
2.28
2.02
1.90
1.92
1.99
2.02
1.97
1.84
1.68
1.53
1.41
1.29
1.15
0.96
0.74
0.54
0.41
0.39
0.49
0.66
0.83
0.95
0.99
0.96
0.87
0.76
0.65
0.56
0.50
0.45
0.38
0.24
0.01
-0.33
-0.75
-1.20
-1.58
-1.82
-1.84
-1.62
-1.20
-0.64
-0.04
0.49
0.88
1.09
1.14
1.05
0.91
0.76
0.64
0.58
0.57
0.59
0.63
0.68
0.75
0.81
0.84
0.80
0.66
0.43
0.16
-0.07
-0.20
-0.25
-0.25
-0.23
-0.20
-0.12
0.03
0.22
0.37
0.39
0.22
-0.09
-0.47
-0.80
-1.03
-1.15
-1.17
-1.11
-0.96
-0.72
-0.41
-0.10
0.17
0.39
0.56
0.71
0.82
0.84
0.71
0.45
0.08
-0.27
-0.50
-0.55
-0.46
-0.30
-0.15
-0.05
0.01
0.09
0.23
0.43
0.63
0.74
0.66
0.36
-0.10
-0.57
-0.90
-0.95
-0.72
-0.27
0.27
0.74
0.98
0.87
0.37
-0.46
-1.45
-2.33
-2.87
-2.95
-2.66
-2.17
-1.72
-1.39
-1.18
-0.99
-0.78
-0.62
-0.58
-0.72
-0.93
-1.02
-0.80
-0.25
0.49
1.20
1.64
1.75
1.57
1.26
0.93
0.65
0.39
0.12
-0.16
-0.43
-0.61
-0.67
-0.62
-0.50
-0.37
-0.24
-0.12
-0.00
0.08
0.09
-0.03
-0.30
-0.68
-1.07
-1.36
-1.48
-1.40
-1.15
-0.79
-0.38
0.03
0.38
0.65
0.77
0.70
0.46
0.09
-0.34
-0.74
-1.04
-1.21
-1.26
-1.21
-1.10
-0.98
-0.89
-0.89
-1.01
-1.26
-1.62
-2.03
-2.41
-2.72
-2.98
-3.25
-3.56
-3.91
-4.24
-4.49
-4.66
-4.82
-5.09
-5.48
-5.89
-6.09
-5.84
-5.01
-3.65
-1.98
-0.25
1.33
2.70
3.82
4.66
5.13
5.18
4.83
4.25
3.73
3.52
3.73
4.27
4.92
5.45
5.73
5.73
5.51
5.15
4.65
3.99
3.15
2.16
1.13
0.19
-0.51
-0.85
-0.83
-0.56
-0.22
-0.04
-0.14
-0.54
-1.07
-1.50
-1.62
-1.34
-0.72
0.07
0.85
1.47
1.90
2.17
2.31
2.32
2.17
1.78
1.12
0.27
-0.62
-1.33
-1.68
-1.60
-1.13
-0.46
0.24
0.87
1.40
1.87
2.32
2.78
3.20
3.47
3.54
3.36
2.98
2.51
2.03
1.57
1.09
0.49
-0.30
-1.26
-2.28
-3.21
-3.93
-4.39
-4.63
-4.69
-4.60
-4.31
-3.79
-3.05
-2.15
-1.19
-0.29
0.49
1.14
1.65
2.01
2.18
2.11
1.78
1.27
0.72
0.33
0.26
0.53
1.02
1.49
1.71
1.57
1.14
0.67
0.39
0.43
0.73
1.09
1.30
1.22
0.89
0.45
0.05
-0.19
-0.27
-0.27
-0.29
-0.41
-0.65
-0.94
-1.19
-1.31
-1.28
-1.13
-0.94
-0.74
-0.56
-0.34
-0.06
0.29
0.65
0.90
0.93
0.70
0.26
-0.25
-0.66
-0.82
-0.65
-0.25
0.24
0.60
0.68
0.45
0.07
-0.29
-0.42
-0.24
0.20
0.79
1.38
1.88
2.25
2.48
2.60
2.62
2.58
2.52
2.49
2.51
2.64
2.90
3.36
4.06
5.02
6.17
7.41
8.62
9.71
10.69
11.60
12.44
13.18
13.79
14.27
14.66
15.04
15.42
15.73
15.81
15.51
14.69
13.30
11.34
8.83
5.78
2.26
-1.62
-5.60
-9.40
-12.69
-15.28
-17.11
-18.26
-18.90
-19.22
-19.36
-19.36
-19.19
-18.81
-18.16
-17.27
-16.20
-15.00
-13.70
-12.29
-10.75
-9.14
-7.62
-6.37
-5.55
-5.20
-5.17
-5.22
-5.10
-4.67
-3.95
-3.08
-2.26
-1.62
-1.23
-1.06
-1.03
-1.08
-1.18
-1.31
-1.46
-1.56
-1.57
-1.44
-1.18
-0.86
-0.54
-0.32
-0.22
-0.24
-0.34
-0.52
-0.76
-1.06
-1.34
-1.52
-1.47
-1.15
-0.59
0.11
0.79
1.32
1.64
1.78
1.79
1.74
1.68
1.61
1.50
1.34
1.11
0.83
0.52
0.23
-0.01
-0.18
-0.28
-0.29
-0.22
-0.08
0.12
0.35
0.57
0.74
0.77
0.59
0.17
-0.47
-1.23
-2.00
-2.66
-3.18
-3.57
-3.90
-4.25
-4.62
-4.98
-5.30
-5.51
-5.56
-5.40
-4.96
-4.21
-3.18
-1.98
-0.81
0.13
0.72
0.96
0.96
0.90
0.91
1.07
1.38
1.81
2.32
2.90
3.48
3.99
4.32
4.42
4.26
3.92
3.50
3.10
2.79
2.54
2.29
1.97
1.54
1.05
0.60
0.29
0.18
0.23
0.36
0.46
0.48
0.50
0.61
0.90
1.33
1.77
2.07
2.15
2.04
1.85
1.68
1.56
1.42
1.19
0.88
0.56
0.38
0.40
0.59
0.83
0.95
0.86
0.54
0.12
-0.27
-0.50
-0.52
-0.37
-0.10
0.16
0.34
0.40
0.36
0.30
0.30
0.38
0.45
0.41
0.16
-0.27
-0.75
-1.07
-1.08
-0.75
-0.18
0.41
0.86
1.05
0.98
0.72
0.41
0.13
-0.04
-0.03
0.15
0.43
0.70
0.79
0.62
0.19
-0.37
-0.86
-1.10
-1.02
-0.66
-0.16
0.29
0.54
0.49
0.16
-0.32
-0.77
-0.97
-0.76
-0.07
1.06
2.46
3.88
5.04
5.68
5.68
5.06
4.03
2.90
1.93
1.27
0.87
0.54
0.08
-0.62
-1.51
-2.42
-3.24
-3.91
-4.52
-5.16
-5.84
-6.41
-6.64
-6.33
-5.47
-4.26
-3.03
-2.10
-1.59
-1.42
-1.37
-1.25
-1.01
-0.69
-0.38
-0.11
0.18
0.53
0.94
1.27
1.38
1.16
0.62
-0.09
-0.71
-1.02
-0.81
0.00
1.42
3.30
5.37
7.24
8.53
8.95
8.47
7.31
5.82
4.37
3.18
2.27
1.50
0.71
-0.21
-1.26
-2.37
-3.45
-4.49
-5.54
-6.62
-7.70
-8.59
-9.05
-8.87
-8.01
-6.62
-5.06
-3.65
-2.59
-1.88
-1.36
-0.84
-0.24
0.39
0.92
1.23
1.30
1.18
0.97
0.77
0.63
0.59
0.70
1.02
1.60
2.41
3.32
4.10
4.52
4.39
3.63
2.36
0.80
-0.74
-1.98
-2.74
-2.93
-2.61
-1.92
-1.06
-0.19
0.55
1.09
1.41
1.49
1.33
0.90
0.28
-0.42
-1.05
-1.48
-1.67
-1.72
-1.74
-1.83
-2.00
-2.14
-2.16
-1.98
-1.64
-1.20
-0.76
-0.37
-0.03
0.25
0.46
0.59
0.64
0.62
0.59
0.56
0.50
0.37
0.16
-0.11
-0.33
-0.43
-0.41
-0.35
-0.40
-0.68
-1.19
-1.81
-2.34
-2.66
-2.77
-2.83
-3.06
-3.57
-4.34
-5.18
-5.87
-6.26
-6.37
-6.32
-6.25
-6.19
-6.04
-5.67
-4.97
-3.94
-2.73
-1.50
-0.35
0.74
1.91
3.30
4.91
6.54
7.89
8.66
8.73
8.19
7.30
6.33
5.50
4.84
4.34
3.98
3.75
3.71
3.89
4.22
4.54
4.67
4.49
3.97
3.18
2.28
1.41
0.70
0.19
-0.17
-0.42
-0.61
-0.76
-0.88
-0.97
-1.06
-1.17
-1.32
-1.51
-1.65
-1.66
-1.43
-0.94
-0.27
0.42
0.97
1.27
1.31
1.16
0.96
0.80
0.69
0.60
0.46
0.25
-0.01
-0.23
-0.34
-0.29
-0.06
0.33
0.77
1.15
1.29
1.08
0.55
-0.17
-0.87
-1.34
-1.51
-1.47
-1.41
-1.48
-1.69
-1.91
-1.98
-1.78
-1.32
-0.74
-0.17
0.29
0.65
0.98
1.34
1.72
2.10
2.42
2.65
2.77
2.81
2.76
2.61
2.35
1.98
1.56
1.16
0.84
0.62
0.47
0.33
0.12
-0.20
-0.62
-1.09
-1.51
-1.81
-1.97
-1.98
-1.89
-1.76
-1.65
-1.59
-1.62
-1.72
-1.87
-1.93
-1.79
-1.31
-0.45
0.74
2.10
3.40
4.40
4.94
4.96
4.54
3.81
2.98
2.20
1.54
1.04
0.66
0.36
0.13
-0.01
-0.00
0.24
0.75
1.49
2.33
3.06
3.46
3.33
2.62
1.41
-0.03
-1.35
-2.25
-2.62
-2.57
-2.37
-2.33
-2.65
-3.28
-3.97
-4.39
-4.30
-3.69
-2.76
-1.81
-1.07
-0.61
-0.35
-0.13
0.13
0.42
0.60
0.55
0.24
-0.24
-0.69
-0.93
-0.83
-0.42
0.16
0.73
1.12
1.23
1.04
0.61
0.08
-0.40
-0.70
-0.76
-0.67
-0.52
-0.45
-0.50
-0.68
-0.92
-1.17
-1.41
-1.61
-1.75
-1.75
-1.54
-1.10
-0.47
0.21
0.78
1.16
1.35
1.44
1.53
1.66
1.83
1.94
1.93
1.78
1.50
1.13
0.70
0.23
-0.29
-0.82
-1.31
-1.67
-1.84
-1.79
-1.57
-1.25
-0.93
-0.69
-0.63
-0.77
-1.11
-1.60
-2.12
-2.54
-2.75
-2.71
-2.46
-2.08
-1.65
-1.17
-0.61
0.06
0.82
1.53
2.06
2.29
2.20
1.86
1.40
0.97
0.61
0.36
0.21
0.16
0.21
0.34
0.49
0.59
0.59
0.49
0.33
0.16
0.00
-0.16
-0.37
-0.63
-0.92
-1.18
-1.35
-1.44
-1.45
-1.43
-1.40
-1.35
-1.23
-1.00
-0.65
-0.19
0.33
0.88
1.39
1.79
1.98
1.92
1.58
1.01
0.36
-0.25
-0.70
-0.98
-1.12
-1.18
-1.18
-1.13
-1.01
-0.82
-0.62
-0.47
-0.45
-0.56
-0.77
-1.04
-1.30
-1.54
-1.72
-1.81
-1.81
-1.72
-1.57
-1.40
-1.26
-1.18
-1.15
-1.16
-1.19
-1.19
-1.11
-0.90
-0.52
-0.02
0.47
0.78
0.78
0.43
-0.18
-0.89
-1.56
-2.10
-2.50
-2.81
-3.04
-3.15
-3.10
-2.88
-2.55
-2.21
-1.93
-1.71
-1.45
-1.04
-0.39
0.46
1.39
2.26
2.96
3.44
3.72
3.86
3.91
3.89
3.83
3.74
3.64
3.56
3.54
3.59
3.75
4.02
4.36
4.73
5.00
5.06
4.84
4.33
3.61
2.83
2.13
1.60
1.21
0.90
0.64
0.44
0.37
0.51
0.85
1.25
1.49
1.40
0.92
0.15
-0.69
-1.36
-1.69
-1.63
-1.25
-0.70
-0.21
0.02
-0.14
-0.68
-1.43
-2.10
-2.42
-2.25
-1.64
-0.82
-0.08
0.39
0.51
0.38
0.15
-0.04
-0.11
-0.08
-0.09
-0.40
-1.41
-3.60
-7.29
-12.39
-18.29
-24.01
-28.40
-30.57
-30.07
-26.91
-21.41
-13.97
-4.90
5.58
17.22
29.73
42.67
55.44
67.18
76.72
82.79
84.27
80.66
72.27
60.24
46.30
32.22
19.26
7.98
-1.68
-10.08
-17.26
-23.07
-26.86
-27.85
-25.50
-20.23
-13.58
-7.76
-4.87
-5.95
-10.92
-18.62
-27.40
-35.66
-42.34
-47.11
-50.38
-53.47
-58.03
-66.20
-78.92
-94.33
-107.17
-110.22
-97.03
-65.27
-20.23
30.93
78.38
112.80
128.14
122.77
99.50
64.75
26.74
-6.80
-29.77
-39.59
-36.65
-23.34
-2.74
22.33
49.43
75.13
94.95
104.47
99.88
80.17
48.00
8.74
-31.81
-67.91
-93.26
-104.43
-102.90
-94.15
-83.41
-73.47
-64.83
-57.21
-49.22
-39.60
-29.28
-18.01
-6.01
6.83
21.26
38.79
60.26
86.52
113.63
135.83
147.53
145.30
129.50
104.06
76.82
49.62
22.66
-5.58
-36.55
-70.09
-103.90
-134.37
-158.64
-170.85
-169.30
-153.73
-124.67
-83.11
-31.61
24.33
76.19
114.52
131.95
125.55
99.87
64.78
31.73
9.43
1.52
6.87
21.62
41.31
61.32
78.33
89.90
94.50
91.89
83.41
71.68
59.72
49.90
42.69
37.22
31.72
24.40
14.08
0.52
-15.50
-32.08
-46.47
-55.99
-58.67
-54.09
-43.60
-29.76
-15.32
-2.39
8.00
15.70
20.88
23.84
24.91
24.46
22.89
20.53
17.47
13.74
9.46
4.99
0.87
-2.56
-5.46
-8.65
-13.26
-20.17
-29.45
-40.35
-51.54
-61.69
-69.75
-75.08
-77.33
-76.41
-72.52
-66.33
-58.90
-51.43
-44.86
-39.55
-35.36
-31.82
-28.52
-25.21
-21.89
-18.70
-15.93
-14.03
-13.49
-14.55
-16.82
-19.18
-20.02
-17.98
-12.58
-4.59
4.41
12.70
19.31
24.23
28.16
31.88
35.76
39.67
43.27
46.48
49.50
52.58
55.55
57.63
57.73
55.12
50.00
43.59
37.55
33.19
30.73
29.20
27.00
22.70
15.71
6.33
-4.51
-15.71
-26.38
-35.93
-44.01
-50.30
-54.49
-56.37
-56.12
-54.21
-51.28
-47.96
-44.68
-41.67
-38.95
-36.38
-33.66
-30.69
-27.32
-23.36
-18.65
-13.17
-7.19
-1.15
4.45
9.16
11.88
11.71
8.30
2.07
-5.96
-14.43
-21.85
-26.71
-27.84
-26.04
-22.71
-19.17
-16.06
-13.59
-11.99
-11.48
-12.16
-14.05
-19.31
-29.43
-44.21
-61.30
-77.45
-90.24
-98.79
-103.75
-106.41
-110.36
-117.39
-126.68
-135.64
-142.96
-150.84
-164.04
-187.14
-204.20
-201.89
-176.11
-134.82
-89.11
-45.38
-4.86
33.60
70.26
102.77
122.80
127.37
118.27
103.12
93.35
99.12
124.58
165.65
211.94
250.16
267.37
258.37
226.54
182.60
139.70
108.35
93.12
92.64
101.14
113.08
125.50
135.65
142.47
145.96
146.21
141.90
130.48
109.42
78.24
38.61
-10.25
-68.76
-135.68
-207.47
-279.28
-344.97
-396.85
-426.63
-408.41
-334.40
-224.36
-113.12
-25.72
31.66
65.14
84.68
98.71
111.36
119.95
123.46
121.99
118.89
117.74
119.82
124.88
132.27
140.25
143.80
138.84
124.42
99.75
67.12
29.20
-12.08
-50.46
-79.72
-99.08
-110.91
-116.75
-114.97
-102.76
-80.09
-50.83
-21.36
1.02
11.11
9.59
1.15
-7.51
-10.94
-7.75
-0.03
8.89
15.94
19.60
20.39
19.96
19.07
18.19
16.83
14.48
11.59
9.18
8.32
9.56
12.46
15.86
18.64
20.07
20.14
19.52
18.80
18.14
17.29
15.78
13.37
10.16
6.42
2.44
-1.50
-5.28
-8.76
-11.78
-14.21
-15.99
-17.16
-18.02
-18.95
-20.32
-22.36
-25.12
-28.45
-32.02
-35.36
-37.96
-39.40
-39.45
-38.02
-35.17
-30.97
-25.59
-19.27
-12.46
-5.69
0.45
5.49
9.11
11.19
11.79
11.08
9.35
7.01
4.43
2.00
-0.05
-1.60
-2.61
-3.06
-2.92
-2.10
-0.55
1.67
4.38
7.31
10.20
12.92
15.43
17.78
19.99
21.95
23.37
23.97
23.49
21.86
19.16
15.64
11.60
7.40
3.41
0.03
-2.40
-3.69
-3.88
-3.22
-2.16
-1.14
-0.44
-0.09
0.03
0.15
0.32
0.40
0.05
-1.00
-2.83
-5.16
-7.39
-8.88
-9.11
-7.78
-4.88
-0.63
4.65
10.54
16.61
22.47
27.77
32.27
35.81
38.26
39.55
39.71
38.91
37.44
35.65
33.81
32.00
30.09
27.83
24.94
21.30
16.92
11.96
6.67
1.29
-4.00
-9.08
-13.80
-18.01
-21.43
-23.72
-24.59
-23.95
-22.00
-19.16
-15.99
-12.96
-10.27
-7.92
-5.74
-3.57
-1.36
0.86
3.00
5.03
6.99
8.85
10.51
11.72
12.20
11.80
10.60
8.96
7.34
6.08
5.27
4.73
4.18
3.45
2.59
1.84
1.50
1.72
2.40
3.23
3.83
3.94
3.50
2.60
1.44
0.21
-0.92
-1.85
-2.55
-3.06
-3.57
-4.41
-5.86
-8.07
-10.90
-13.88
-16.34
-17.67
-17.50
-15.83
-13.04
-9.66
-6.23
-3.20
-0.76
1.07
2.42
3.54
4.62
5.81
7.14
8.52
9.80
10.79
11.34
11.34
10.79
9.81
8.64
7.59
6.98
6.98
7.59
8.62
9.75
10.68
11.17
11.14
10.59
9.55
7.98
5.82
2.99
-0.43
-4.17
-7.84
-11.05
-13.55
-15.38
-16.73
-17.84
-18.85
-19.70
-20.24
-20.35
-20.02
-19.37
-18.53
-17.56
-16.42
-14.99
-13.17
-10.98
-8.56
-6.15
-3.96
-2.13
-0.74
0.24
0.82
1.05
0.95
0.62
0.21
-0.09
-0.12
0.19
0.81
1.67
2.67
3.79
5.02
6.32
7.59
8.68
9.46
9.98
10.37
10.89
11.70
12.81
13.99
14.89
15.11
14.39
12.64
9.97
6.59
2.80
-1.13
-4.92
-8.33
-11.18
-13.35
-14.89
-15.95
-16.73
-17.39
-17.94
-18.21
-17.93
-16.89
-15.00
-12.38
-9.28
-6.00
-2.77
0.29
3.10
5.48
7.24
8.16
8.14
7.31
5.95
4.43
2.99
1.68
0.45
-0.82
-2.14
-3.42
-4.57
-5.56
-6.47
-7.40
-8.38
-9.31
-9.94
-10.04
-9.45
-8.17
-6.39
-4.36
-2.35
-0.61
0.73
1.65
2.12
2.10
1.54
0.39
-1.34
-3.58
-6.18
-8.88
-11.28
-13.00
-13.68
-13.11
-11.30
-8.44
-5.06
-1.80
0.80
2.50
3.34
3.55
3.45
3.36
3.57
3.82
3.66
2.83
1.50
0.17
-0.61
-0.46
0.76
2.93
4.99
5.75
4.82
2.94
1.52
1.87
4.62
9.69
16.33
22.12
24.46
21.93
15.08
5.90
-3.50
-11.91
-18.82
-24.01
-28.71
-34.02
-40.14
-46.66
-53.74
-63.31
-78.74
-102.67
-125.20
-135.31
-127.82
-107.43
-82.72
-59.36
-39.20
-22.36
-8.12
4.12
12.56
14.49
8.05
-6.22
-25.94
-44.85
-56.63
-55.85
-39.62
-10.26
25.95
62.36
89.42
103.23
105.79
101.98
96.80
93.02
89.85
85.17
77.78
68.53
60.48
56.41
57.12
61.47
66.95
69.97
67.33
57.41
40.78
20.78
1.86
-12.34
-20.10
-22.09
-20.93
-19.57
-19.80
-21.63
-23.47
-23.57
-21.48
-18.00
-14.59
-12.38
-11.59
-11.65
-11.76
-11.26
-10.07
-8.70
-7.79
-7.78
-8.67
-10.08
-11.41
-12.11
-11.84
-10.54
-8.59
-6.63
-5.29
-5.03
-5.87
-7.51
-9.47
-11.27
-12.56
-13.21
-13.28
-12.92
-12.27
-11.41
-10.41
-9.22
-8.44
-8.23
-8.51
-8.99
-9.21
-8.77
-7.39
-5.03
-1.88
1.74
5.55
9.21
12.42
14.94
16.62
17.45
17.51
17.01
16.16
15.24
14.44
13.87
13.54
13.35
13.15
12.73
11.91
10.59
8.82
6.78
4.70
2.77
1.16
-0.15
-1.29
-2.49
-3.99
-5.88
-8.13
-10.48
-12.55
-13.95
-14.42
-13.95
-12.83
-11.53
-10.49
-9.96
-9.89
-9.94
-9.60
-8.42
-6.14
-2.81
1.30
5.76
10.17
14.21
17.63
20.28
22.03
22.82
22.70
21.77
20.31
18.62
16.98
15.62
14.59
13.80
13.06
12.19
11.10
9.84
8.61
7.64
7.08
6.91
6.94
6.88
6.52
5.77
4.77
3.75
2.91
2.38
2.12
1.97
1.69
1.05
-0.11
-1.82
-3.93
-6.10
-7.91
-8.90
-8.78
-7.50
-5.25
-2.43
0.51
3.20
5.41
7.02
8.03
8.45
8.29
7.64
6.65
5.61
4.81
4.47
4.63
5.13
5.65
5.87
5.61
4.89
3.84
2.66
1.44
0.11
-1.47
-3.45
-5.87
-8.61
-11.36
-13.79
-15.58
-16.55
-16.67
-16.07
-15.00
-13.74
-12.52
-11.46
-10.56
-9.65
-8.52
-6.96
-4.89
-2.36
0.41
3.18
5.66
7.66
9.04
9.82
10.13
10.18
10.25
10.53
11.03
11.60
11.98
12.04
11.78
11.43
11.33
11.70
12.57
13.70
14.70
15.21
15.01
14.11
12.69
11.08
9.65
8.70
8.42
8.74
9.22
9.01
7.07
2.46
-5.10
-14.99
-25.63
-34.95
-41.00
-42.73
-40.21
-34.55
-27.34
-20.05
-13.59
-8.30
-4.14
-1.01
1.09
2.10
2.08
1.31
0.31
-0.39
-0.44
0.19
1.21
2.18
2.73
2.68
2.13
1.35
0.64
0.16
-0.09
-0.30
-0.74
-1.62
-3.06
-4.98
-7.19
-9.44
-11.48
-13.15
-14.39
-15.28
-15.94
-16.47
-16.87
-16.97
-16.49
-15.17
-12.95
-10.04
-6.89
-4.03
-1.83
-0.42
0.36
0.78
1.09
1.43
1.82
2.27
2.82
3.52
4.44
5.52
6.63
7.64
8.45
9.03
9.43
9.68
9.79
9.71
9.46
9.04
8.51
7.92
7.24
6.43
5.42
4.19
2.79
1.30
-0.17
-1.52
-2.63
-3.39
-3.62
-3.22
-2.14
-0.53
1.33
3.09
4.47
5.35
5.71
5.67
5.27
4.54
3.47
2.15
0.77
-0.42
-1.20
-1.46
-1.26
-0.76
-0.18
0.34
0.70
0.86
0.79
0.50
0.04
-0.48
-0.91
-1.15
-1.15
-0.97
-0.70
-0.48
-0.39
-0.50
-0.80
-1.23
-1.70
-2.08
-2.28
-2.26
-2.02
-1.55
-0.88
0.03
1.18
2.56
4.09
5.65
7.10
8.28
9.02
9.22
8.79
7.78
6.38
4.82
3.35
2.09
1.00
-0.03
-1.11
-2.25
-3.38
-4.35
-5.02
-5.28
-5.03
-4.20
-2.79
-0.92
1.13
2.91
4.01
4.13
3.30
1.81
0.10
-1.36
-2.32
-2.76
-2.80
-2.64
-2.37
-2.01
-1.46
-0.68
0.36
1.54
2.72
3.76
4.52
4.93
4.90
4.40
3.37
1.82
-0.19
-2.52
-5.02
-7.47
-9.62
-11.18
-11.87
-11.49
-10.00
-7.58
-4.62
-1.60
0.98
2.70
3.29
2.70
1.08
-1.18
-3.54
-5.42
-6.36
-6.15
-4.85
-2.75
-0.28
2.12
4.08
5.33
5.71
5.27
4.17
2.73
1.27
0.06
-0.77
-1.24
-1.45
-1.56
-1.69
-1.91
-2.28
-2.74
-3.22
-3.58
-3.72
-3.60
-3.32
-3.04
-2.97
-3.22
-3.80
-4.61
-5.47
-6.19
-6.52
-6.27
-5.33
-3.73
-1.63
0.68
2.83
4.52
5.49
5.63
4.91
3.47
1.56
-0.50
-2.38
-3.82
-4.67
-4.90
-4.49
-3.42
-1.64
0.75
3.50
6.18
8.30
9.51
9.75
9.17
8.11
6.85
5.59
4.42
3.38
2.53
1.89
1.44
0.97
0.18
-1.26
-3.45
-6.18
-8.92
-11.05
-12.05
-11.78
-10.49
-8.70
-7.01
-5.83
-5.32
-5.47
-6.10
-7.07
-8.26
-9.59
-11.06
-12.75
-14.90
-17.84
-21.86
-27.00
-32.85
-38.52
-42.84
-44.65
-43.18
-38.34
-30.75
-21.58
-12.20
-3.79
2.88
7.53
10.34
11.75
12.31
12.55
12.95
13.88
15.53
17.92
20.86
24.02
27.03
29.58
31.45
32.53
32.84
32.46
31.59
30.46
29.29
28.17
27.07
25.86
24.51
23.06
21.66
20.36
19.04
17.38
15.04
11.93
8.30
4.73
1.80
-0.13
-1.12
-1.58
-2.02
-2.77
-3.83
-4.88
-5.46
-5.17
-3.86
-1.66
1.07
3.91
6.49
8.61
10.16
11.17
11.62
11.48
10.70
9.25
7.20
4.71
2.06
-0.47
-2.62
-4.16
-4.96
-4.92
-3.98
-2.19
0.29
3.12
5.84
7.92
8.96
8.80
7.64
5.91
4.17
2.82
2.01
1.60
1.31
0.93
0.46
0.12
0.15
0.65
1.51
2.42
3.07
3.26
2.99
2.34
1.41
0.26
-1.09
-2.54
-4.00
-5.25
-6.13
-6.52
-6.40
-5.86
-5.07
-4.22
-3.46
-2.86
-2.40
-2.03
-1.72
-1.52
-1.52
-1.79
-2.31
-2.97
-3.64
-4.27
-4.91
-5.61
-6.41
-7.18
-7.71
-7.82
-7.41
-6.57
-5.50
-4.42
-3.46
-2.66
-1.95
-1.21
-0.33
0.74
1.89
2.90
3.48
3.37
2.54
1.19
-0.27
-1.42
-2.02
-2.12
-1.96
-1.83
-1.88
-2.04
-2.16
-2.05
-1.61
-0.75
0.66
2.84
5.93
9.88
14.26
18.30
21.16
22.16
21.13
18.38
14.55
10.31
6.13
2.21
-1.46
-4.84
-7.76
-9.91
-10.97
-10.84
-9.71
-8.01
-6.23
-4.70
-3.46
-2.32
-1.10
0.25
1.53
2.46
2.80
2.56
1.93
1.27
0.87
0.87
1.16
1.53
1.70
1.54
1.05
0.42
-0.07
-0.14
0.42
1.63
3.35
5.36
7.41
9.34
11.09
12.63
13.90
14.77
15.08
14.78
14.00
13.03
12.26
12.03
12.53
13.74
15.51
17.61
19.73
21.48
22.35
21.82
19.45
15.10
9.05
1.98
-5.20
-11.61
-16.56
-19.75
-21.24
-21.37
-20.67
-19.65
-18.68
-17.90
-17.19
-16.27
-14.88
-12.91
-10.59
-8.40
-6.87
-6.35
-6.84
-7.97
-9.26
-10.25
-10.77
-10.86
-10.63
-10.15
-9.44
-8.60
-7.95
-7.90
-8.67
-9.94
-10.82
-10.17
-7.19
-1.97
4.46
10.51
14.77
16.59
16.18
14.32
11.81
9.12
6.33
3.36
0.23
-2.81
-5.43
-7.40
-8.75
-9.73
-10.66
-11.73
-12.89
-13.91
-14.44
-14.28
-13.41
-12.06
-10.60
-9.39
-8.62
-8.31
-8.28
-8.30
-8.22
-7.98
-7.68
-7.43
-7.32
-7.36
-7.48
-7.60
-7.69
-7.77
-7.86
-8.01
-8.20
-8.39
-8.60
-8.83
-9.11
-9.42
-9.69
-9.79
-9.60
-9.09
-8.37
-7.63
-7.09
-6.84
-6.83
-6.82
-6.54
-5.69
-4.14
-1.88
0.96
4.15
7.41
10.47
13.14
15.30
16.95
18.16
19.04
19.72
20.31
20.88
21.43
21.82
21.80
21.07
19.38
16.70
13.30
9.66
6.32
3.66
1.80
0.58
-0.30
-1.12
-2.04
-3.08
-4.21
-5.33
-6.39
-7.36
-8.18
-8.76
-9.01
-8.89
-8.48
-8.00
-7.68
-7.62
-7.68
-7.46
-6.50
-4.58
-1.94
0.69
2.35
2.27
0.15
-3.72
-8.59
-13.63
-18.19
-21.93
-24.69
-26.40
-26.89
-25.98
-23.59
-19.82
-15.00
-9.56
-3.87
1.85
7.54
13.17
18.61
23.63
27.90
31.07
32.94
33.42
32.56
30.52
27.48
23.68
19.33
14.68
9.92
5.23
0.76
-3.34
-6.84
-9.52
-11.16
-11.65
-11.01
-9.45
-7.28
-4.89
-2.59
-0.60
1.11
2.70
4.44
6.54
9.01
11.67
14.21
16.33
17.82
18.64
18.78
18.21
16.85
14.58
11.41
7.52
3.23
-1.08
-5.10
-8.64
-11.60
-13.91
-15.48
-16.23
-16.14
-15.32
-13.98
-12.43
-10.95
-9.72
-8.76
-7.94
-7.08
-5.97
-4.53
-2.82
-1.01
0.74
2.30
3.65
4.83
5.88
6.74
7.32
7.46
7.06
6.10
4.66
2.85
0.86
-1.13
-2.89
-4.16
-4.69
-4.31
-3.04
-1.09
1.19
3.41
5.26
6.57
7.36
7.75
7.89
7.89
7.83
7.70
7.46
7.05
6.38
5.32
3.83
1.89
-0.36
-2.62
-4.53
-5.68
-5.83
-4.91
-3.13
-0.85
1.51
3.60
5.20
6.24
6.78
6.96
6.92
6.77
6.50
5.99
5.05
3.50
1.27
-1.48
-4.40
-7.02
-8.90
-9.77
-9.56
-8.46
-6.78
-4.87
-3.04
-1.44
-0.13
0.94
1.86
2.68
3.41
4.01
4.47
4.79
4.98
5.09
5.07
4.86
4.39
3.64
2.71
1.79
1.15
1.01
1.40
2.20
3.11
3.85
4.22
4.21
3.93
3.59
3.35
3.28
3.30
3.32
3.27
3.11
2.89
2.66
2.41
2.11
1.70
1.18
0.56
-0.08
-0.68
-1.22
-1.73
-2.27
-2.90
-3.61
-4.31
-4.89
-5.24
-5.38
-5.37
-5.34
-5.36
-5.42
-5.42
-5.24
-4.78
-4.07
-3.17
-2.21
-1.27
-0.37
0.50
1.38
2.24
3.05
3.74
4.26
4.60
4.82
4.96
5.07
5.16
5.20
5.13
4.93
4.61
4.25
3.95
3.75
3.64
3.55
3.39
3.09
2.65
2.08
1.42
0.67
-0.12
-0.89
-1.59
-2.15
-2.61
-3.06
-3.58
-4.24
-4.96
-5.59
-5.91
-5.82
-5.33
-4.58
-3.82
-3.26
-2.97
-2.87
-2.75
-2.40
-1.75
-0.84
0.13
0.95
1.52
1.88
2.16
2.50
2.91
3.30
3.49
3.39
3.04
2.58
2.21
2.03
1.99
1.97
1.85
1.58
1.21
0.83
0.51
0.26
0.04
-0.20
-0.45
-0.70
-0.86
-0.92
-0.87
-0.74
-0.59
-0.48
-0.45
-0.49
-0.58
-0.67
-0.70
-0.63
-0.50
-0.34
-0.25
-0.28
-0.44
-0.68
-0.87
-0.90
-0.74
-0.46
-0.21
-0.17
-0.37
-0.77
-1.18
-1.40
-1.32
-0.98
-0.54
-0.19
-0.05
-0.10
-0.22
-0.25
-0.11
0.17
0.49
0.71
0.79
0.73
0.66
0.66
0.77
0.91
0.95
0.79
0.44
0.02
-0.31
-0.42
-0.33
-0.18
-0.13
-0.32
-0.71
-1.16
-1.48
-1.56
-1.41
-1.16
-0.97
-0.95
-1.11
-1.38
-1.63
-1.77
-1.78
-1.68
-1.51
-1.33
-1.14
-0.95
-0.74
-0.49
-0.26
-0.11
-0.11
-0.30
-0.62
-0.97
-1.20
-1.24
-1.11
-0.90
-0.73
-0.67
-0.71
-0.77
-0.75
-0.59
-0.29
0.07
0.43
0.70
0.84
0.83
0.71
0.50
0.24
-0.03
-0.26
-0.42
-0.48
-0.44
-0.30
-0.11
0.07
0.16
0.11
-0.10
-0.41
-0.71
-0.92
-1.05
-1.17
-1.37
-1.70
-2.09
-2.42
-2.51
-2.28
-1.77
-1.12
-0.53
-0.11
0.10
0.15
0.12
0.08
0.03
-0.04
-0.16
-0.31
-0.47
-0.58
-0.56
-0.38
-0.04
0.36
0.68
0.79
0.65
0.31
-0.05
-0.27
-0.29
-0.16
-0.05
-0.08
-0.31
-0.67
-1.04
-1.33
-1.55
-1.74
-1.94
-2.15
-2.33
-2.41
-2.33
-2.10
-1.76
-1.35
-0.94
-0.54
-0.15
0.26
0.69
1.13
1.52
1.81
1.97
2.02
2.02
2.02
2.03
2.01
1.90
1.66
1.34
1.06
0.90
0.90
1.01
1.10
1.05
0.80
0.38
-0.10
-0.52
-0.80
-0.92
-0.95
-0.98
-1.04
-1.14
-1.23
-1.26
-1.23
-1.17
-1.15
-1.21
-1.32
-1.39
-1.34
-1.12
-0.77
-0.39
-0.06
0.16
0.32
0.46
0.64
0.82
0.94
0.93
0.77
0.49
0.21
0.04
0.00
0.11
0.26
0.37
0.40
0.32
0.19
0.02
-0.17
-0.36
-0.53
-0.65
-0.68
-0.62
-0.51
-0.44
-0.47
-0.61
-0.77
-0.88
-0.86
-0.74
-0.56
-0.37
-0.19
0.04
0.37
0.79
1.22
1.53
1.59
1.37
0.92
0.41
0.00
-0.19
-0.19
-0.12
-0.13
-0.29
-0.60
-0.94
-1.15
-1.14
-0.92
-0.60
-0.32
-0.20
-0.26
-0.44
-0.64
-0.77
-0.78
-0.65
-0.38
-0.01
0.39
0.67
0.71
0.41
-0.19
-0.94
-1.59
-1.91
-1.81
-1.34
-0.71
-0.14
0.23
0.36
0.28
0.05
-0.25
-0.57
-0.84
-0.96
-0.85
-0.49
0.04
0.60
0.98
1.07
0.82
0.34
-0.24
-0.76
-1.13
-1.32
-1.32
-1.15
-0.84
-0.43
-0.02
0.30
0.43
0.30
-0.07
-0.57
-1.06
-1.41
-1.55
-1.51
-1.36
-1.20
-1.08
-1.00
-0.90
-0.72
-0.42
-0.07
0.22
0.34
0.23
-0.04
-0.35
-0.55
-0.60
-0.50
-0.33
-0.16
-0.02
0.08
0.16
0.20
0.16
0.03
-0.16
-0.34
-0.43
-0.37
-0.16
0.11
0.36
0.51
0.51
0.37
0.13
-0.18
-0.53
-0.88
-1.16
-1.28
-1.13
-0.70
-0.05
0.63
1.11
1.24
1.00
0.55
0.08
-0.24
-0.36
-0.35
-0.33
-0.38
-0.51
-0.65
-0.73
-0.71
-0.61
-0.48
-0.39
-0.37
-0.43
-0.55
-0.73
-0.92
-1.10
-1.21
-1.19
-1.04
-0.78
-0.52
-0.37
-0.39
-0.56
-0.76
-0.85
-0.73
-0.39
0.05
0.44
0.67
0.71
0.64
0.57
0.56
0.61
0.62
0.47
0.11
-0.42
-1.00
-1.43
-1.58
-1.39
-0.96
-0.49
-0.16
-0.11
-0.31
-0.66
-0.98
-1.12
-1.03
-0.77
-0.42
-0.10
0.14
0.27
0.29
0.21
0.02
-0.28
-0.65
-1.00
-1.23
-1.24
-1.02
-0.66
-0.31
-0.06
0.04
0.08
0.18
0.41
0.73
1.02
1.09
0.85
0.33
-0.32
-0.90
-1.26
-1.33
-1.17
-0.89
-0.63
-0.49
-0.49
-0.62
-0.82
-0.99
-1.08
-1.04
-0.86
-0.59
-0.28
-0.05
-0.01
-0.23
-0.71
-1.35
-1.97
-2.39
-2.52
-2.36
-2.01
-1.62
-1.27
-0.98
-0.72
-0.46
-0.22
-0.09
-0.13
-0.34
-0.65
-0.95
-1.13
-1.16
-1.07
-0.92
-0.79
-0.69
-0.60
-0.47
-0.26
-0.01
0.22
0.37
0.39
0.32
0.25
0.25
0.36
0.54
0.71
0.76
0.63
0.34
-0.02
-0.31
-0.42
-0.26
0.16
0.78
1.49
2.20
2.81
3.28
3.58
3.65
3.44
2.95
2.25
1.48
0.85
0.47
0.41
0.59
0.89
1.20
1.41
1.51
1.48
1.34
1.14
0.92
0.70
0.49
0.23
-0.15
-0.67
-1.29
-1.87
-2.27
-2.39
-2.23
-1.86
-1.36
-0.80
-0.18
0.49
1.19
1.83
2.34
2.62
2.59
2.26
1.68
0.96
0.24
-0.35
-0.70
-0.77
-0.62
-0.33
-0.04
0.19
0.29
0.23
0.03
-0.33
-0.81
-1.35
-1.86
-2.25
-2.45
-2.47
-2.38
-2.26
-2.19
-2.16
-2.11
-1.91
-1.49
-0.82
0.02
0.90
1.66
2.18
2.39
2.28
1.90
1.32
0.64
-0.00
-0.50
-0.77
-0.81
-0.70
-0.56
-0.48
-0.50
-0.56
-0.61
-0.59
-0.55
-0.55
-0.66
-0.90
-1.20
-1.48
-1.67
-1.76
-1.81
-1.88
-1.97
-2.01
-1.87
-1.43
-0.63
0.46
1.67
2.75
3.52
3.84
3.70
3.17
2.37
1.45
0.56
-0.18
-0.62
-0.70
-0.42
0.06
0.53
0.81
0.79
0.52
0.11
-0.30
-0.64
-0.91
-1.11
-1.25
-1.30
-1.24
-1.12
-1.07
-1.21
-1.59
-2.11
-2.53
-2.61
-2.19
-1.29
-0.07
1.25
2.44
3.36
3.90
4.00
3.61
2.81
1.77
0.74
-0.05
-0.46
-0.52
-0.33
-0.07
0.17
0.32
0.37
0.31
0.18
-0.02
-0.24
-0.45
-0.60
-0.70
-0.75
-0.76
-0.77
-0.83
-0.98
-1.27
-1.68
-2.13
-2.47
-2.56
-2.27
-1.59
-0.60
0.56
1.65
2.46
2.83
2.72
2.24
1.59
0.99
0.56
0.34
0.27
0.28
0.35
0.51
0.77
1.07
1.27
1.25
0.93
0.39
-0.17
-0.55
-0.63
-0.43
-0.07
0.23
0.32
0.11
-0.36
-0.98
-1.59
-2.00
-2.07
-1.74
-1.01
-0.02
1.07
2.09
2.86
3.27
3.27
2.86
2.11
1.18
0.27
-0.45
-0.84
-0.89
-0.70
-0.42
-0.21
-0.15
-0.23
-0.40
-0.60
-0.79
-0.99
-1.24
-1.55
-1.89
-2.20
-2.41
-2.45
-2.36
-2.20
-2.09
-2.13
-2.30
-2.49
-2.53
-2.28
-1.65
-0.71
0.39
1.47
2.35
2.90
3.08
2.87
2.33
1.57
0.74
0.04
-0.40
-0.52
-0.39
-0.11
0.15
0.26
0.14
-0.21
-0.75
-1.36
-1.89
-2.18
-2.12
-1.71
-1.12
-0.59
-0.36
-0.55
-1.13
-1.89
-2.58
-3.03
-3.17
-3.03
-2.68
-2.17
-1.48
-0.63
0.36
1.38
2.29
2.98
3.37
3.50
3.42
3.20
2.87
2.44
1.93
1.37
0.85
0.45
0.23
0.18
0.22
0.24
0.15
-0.05
-0.32
-0.57
-0.74
-0.81
-0.86
-0.93
-1.06
-1.19
-1.23
-1.12
-0.88
-0.65
-0.59
-0.82
-1.33
-2.01
-2.65
-3.04
-3.07
-2.69
-1.95
-0.95
0.18
1.31
2.28
2.93
3.20
3.08
2.69
2.21
1.81
1.57
1.50
1.50
1.49
1.42
1.29
1.11
0.85
0.49
-0.03
-0.64
-1.24
-1.63
-1.67
-1.35
-0.79
-0.23
0.13
0.16
-0.07
-0.42
-0.70
-0.83
-0.79
-0.68
-0.59
-0.59
-0.66
-0.78
-0.93
-1.12
-1.37
-1.69
-1.99
-2.15
-2.05
-1.62
-0.93
-0.11
0.67
1.31
1.73
1.97
2.05
2.01
1.86
1.62
1.30
0.95
0.67
0.50
0.47
0.53
0.61
0.62
0.53
0.33
0.12
-0.04
-0.06
0.10
0.42
0.82
1.20
1.42
1.36
0.98
0.31
-0.51
-1.26
-1.72
-1.79
-1.51
-1.07
-0.71
-0.61
-0.81
-1.17
-1.52
-1.70
-1.65
-1.43
-1.13
-0.78
-0.37
0.12
0.64
1.07
1.23
1.04
0.55
-0.06
-0.56
-0.80
-0.76
-0.58
-0.43
-0.40
-0.52
-0.70
-0.83
-0.84
-0.73
-0.55
-0.39
-0.29
-0.29
-0.39
-0.55
-0.71
-0.84
-0.92
-0.97
-1.04
-1.14
-1.24
-1.33
-1.38
-1.41
-1.49
-1.66
-1.86
-2.00
-1.94
-1.60
-1.01
-0.28
0.44
1.03
1.46
1.76
1.91
1.91
1.70
1.28
0.72
0.13
-0.36
-0.68
-0.85
-0.89
-0.86
-0.76
-0.63
-0.48
-0.36
-0.35
-0.43
-0.56
-0.63
-0.58
-0.40
-0.17
-0.01
-0.00
-0.13
-0.27
-0.30
-0.15
0.10
0.33
0.35
0.12
-0.32
-0.80
-1.16
-1.30
-1.25
-1.05
-0.81
-0.55
-0.27
0.04
0.38
0.71
0.95
1.06
1.01
0.85
0.64
0.40
0.17
-0.03
-0.16
-0.16
0.02
0.36
0.76
1.07
1.16
0.95
0.52
0.00
-0.44
-0.69
-0.72
-0.58
-0.34
-0.07
0.18
0.39
0.56
0.67
0.72
0.71
0.62
0.43
0.14
-0.24
-0.67
-1.08
-1.43
-1.65
-1.68
-1.48
-1.05
-0.42
0.32
1.02
1.56
1.86
1.88
1.69
1.37
1.01
0.69
0.43
0.24
0.10
0.00
-0.04
-0.03
0.07
0.24
0.46
0.66
0.79
0.75
0.54
0.16
-0.30
-0.74
-1.06
-1.16
-1.04
-0.72
-0.30
0.07
0.29
0.30
0.12
-0.18
-0.51
-0.84
-1.16
-1.49
-1.80
-1.99
-1.94
-1.54
-0.84
0.01
0.75
1.18
1.22
0.93
0.46
-0.02
-0.44
-0.74
-0.94
-1.06
-1.06
-0.93
-0.67
-0.30
0.14
0.54
0.82
0.93
0.86
0.66
0.40
0.19
0.06
0.02
0.02
0.02
-0.04
-0.13
-0.21
-0.26
-0.26
-0.30
-0.46
-0.81
-1.38
-2.05
-2.63
-2.93
-2.80
-2.23
-1.36
-0.41
0.43
1.05
1.43
1.61
1.64
1.55
1.37
1.12
0.84
0.56
0.28
0.03
-0.22
-0.44
-0.60
-0.63
-0.52
-0.29
-0.04
0.11
0.08
-0.15
-0.51
-0.87
-1.12
-1.19
-1.10
-0.94
-0.83
-0.83
-0.94
-1.10
-1.21
-1.21
-1.09
-0.94
-0.81
-0.73
-0.67
-0.56
-0.35
-0.01
0.44
0.94
1.44
1.87
2.16
2.22
2.02
1.57
0.97
0.40
0.01
-0.10
0.03
0.29
0.55
0.74
0.84
0.90
0.97
1.03
1.03
0.93
0.71
0.42
0.13
-0.08
-0.20
-0.27
-0.33
-0.40
-0.51
-0.66
-0.86
-1.09
-1.32
-1.45
-1.37
-1.02
-0.44
0.27
0.93
1.44
1.71
1.75
1.62
1.37
1.06
0.74
0.45
0.25
0.18
0.24
0.39
0.57
0.71
0.80
0.86
0.91
0.96
0.99
0.94
0.78
0.52
0.24
0.01
-0.11
-0.17
-0.29
-0.55
-0.97
-1.43
-1.79
-1.90
-1.76
-1.45
-1.12
-0.85
-0.65
-0.42
-0.10
0.34
0.83
1.27
1.55
1.63
1.52
1.28
1.01
0.78
0.63
0.56
0.55
0.55
0.47
0.28
-0.03
-0.39
-0.70
-0.86
-0.85
-0.72
-0.57
-0.49
-0.49
-0.55
-0.60
-0.60
-0.59
-0.64
-0.79
-1.04
-1.28
-1.39
-1.30
-1.03
-0.69
-0.43
-0.30
-0.24
-0.12
0.20
0.73
1.33
1.78
1.90
1.63
1.04
0.34
-0.29
-0.73
-0.96
-1.01
-0.94
-0.80
-0.66
-0.56
-0.54
-0.61
-0.76
-0.92
-1.07
-1.20
-1.31
-1.39
-1.46
-1.54
-1.64
-1.76
-1.84
-1.82
-1.61
-1.22
-0.71
-0.19
0.24
0.56
0.81
1.07
1.38
1.66
1.81
1.70
1.30
0.67
-0.01
-0.56
-0.84
-0.81
-0.55
-0.17
0.20
0.47
0.56
0.44
0.10
-0.42
-1.00
-1.48
-1.71
-1.61
-1.23
-0.74
-0.35
-0.23
-0.45
-0.91
-1.47
-1.93
-2.16
-2.10
-1.75
-1.18
-0.48
0.30
1.13
1.96
2.72
3.26
3.41
3.07
2.29
1.26
0.26
-0.42
-0.66
-0.50
-0.06
0.46
0.93
1.30
1.53
1.61
1.49
1.18
0.69
0.17
-0.24
-0.41
-0.32
-0.08
0.13
0.16
-0.08
-0.53
-1.04
-1.44
-1.58
-1.41
-0.95
-0.27
0.52
1.32
2.04
2.60
2.90
2.91
2.63
2.12
1.54
1.03
0.71
0.57
0.55
0.59
0.64
0.72
0.82
0.93
0.93
0.72
0.30
-0.22
-0.64
-0.80
-0.65
-0.31
0.02
0.22
0.23
0.15
0.04
-0.03
-0.09
-0.15
-0.24
-0.33
-0.38
-0.38
-0.31
-0.15
0.10
0.47
0.91
1.33
1.62
1.69
1.54
1.24
0.89
0.56
0.25
-0.07
-0.40
-0.68
-0.79
-0.66
-0.32
0.06
0.29
0.22
-0.16
-0.75
-1.32
-1.71
-1.86
-1.79
-1.61
-1.40
-1.22
-1.08
-1.02
-1.06
-1.23
-1.52
-1.81
-1.97
-1.85
-1.39
-0.63
0.28
1.15
1.81
2.16
2.18
1.92
1.46
0.95
0.51
0.24
0.18
0.27
0.40
0.47
0.43
0.30
0.16
0.10
0.11
0.16
0.17
0.11
0.03
-0.02
-0.00
0.05
0.04
-0.11
-0.44
-0.88
-1.35
-1.71
-1.92
-1.95
-1.78
-1.43
-0.91
-0.25
0.50
1.25
1.87
2.26
2.35
2.14
1.70
1.16
0.68
0.35
0.18
0.10
0.02
-0.10
-0.22
-0.24
-0.12
0.15
0.44
0.64
0.65
0.48
0.19
-0.13
-0.43
-0.71
-0.97
-1.20
-1.35
-1.42
-1.42
-1.40
-1.40
-1.38
-1.30
-1.09
-0.74
-0.30
0.14
0.54
0.93
1.36
1.84
2.27
2.48
2.32
1.81
1.12
0.49
0.15
0.12
0.28
0.40
0.33
0.05
-0.31
-0.58
-0.65
-0.53
-0.34
-0.20
-0.18
-0.27
-0.43
-0.58
-0.68
-0.75
-0.77
-0.77
-0.77
-0.79
-0.87
-1.02
-1.20
-1.33
-1.30
-1.02
-0.51
0.16
0.90
1.59
2.18
2.61
2.85
2.82
2.45
1.79
0.95
0.15
-0.40
-0.57
-0.38
0.02
0.43
0.65
0.57
0.21
-0.31
-0.81
-1.14
-1.20
-1.02
-0.71
-0.40
-0.21
-0.18
-0.27
-0.39
-0.50
-0.59
-0.74
-1.01
-1.42
-1.90
-2.30
-2.44
-2.21
-1.62
-0.76
0.16
0.95
1.47
1.65
1.55
1.24
0.87
0.53
0.31
0.23
0.25
0.30
0.31
0.23
0.06
-0.13
-0.28
-0.35
-0.32
-0.26
-0.23
-0.26
-0.36
-0.51
-0.65
-0.74
-0.76
-0.75
-0.74
-0.79
-0.91
-1.10
-1.34
-1.58
-1.73
-1.75
-1.56
-1.16
-0.57
0.13
0.85
1.51
2.00
2.28
2.30
2.07
1.65
1.14
0.65
0.28
0.08
0.04
0.07
0.12
0.13
0.10
0.02
-0.07
-0.16
-0.26
-0.36
-0.48
-0.59
-0.69
-0.73
-0.71
-0.63
-0.53
-0.45
-0.41
-0.43
-0.47
-0.50
-0.53
-0.57
-0.61
-0.64
-0.61
-0.45
-0.15
0.27
0.75
1.21
1.59
1.88
2.04
2.04
1.84
1.43
0.89
0.33
-0.10
-0.32
-0.31
-0.12
0.15
0.40
0.56
0.62
0.61
0.55
0.48
0.41
0.35
0.28
0.18
0.04
-0.16
-0.41
-0.67
-0.92
-1.11
-1.19
-1.14
-0.99
-0.78
-0.61
-0.52
-0.53
-0.58
-0.56
-0.34
0.14
0.82
1.55
2.13
2.42
2.38
2.11
1.71
1.31
0.91
0.49
0.08
-0.26
-0.42
-0.34
-0.05
0.31
0.62
0.79
0.84
0.84
0.88
0.94
0.96
0.86
0.62
0.26
-0.13
-0.50
-0.79
-0.98
-1.07
-1.11
-1.15
-1.28
-1.54
-1.93
-2.33
-2.60
-2.59
-2.22
-1.51
-0.59
0.37
1.24
1.90
2.31
2.45
2.34
2.01
1.54
0.97
0.40
-0.10
-0.48
-0.70
-0.70
-0.53
-0.23
0.06
0.26
0.28
0.13
-0.10
-0.36
-0.61
-0.89
-1.25
-1.68
-2.12
-2.42
-2.44
-2.14
-1.60
-1.00
-0.52
-0.28
-0.31
-0.51
-0.79
-1.02
-1.14
-1.11
-0.92
-0.59
-0.12
0.48
1.17
1.83
2.34
2.57
2.44
1.98
1.29
0.57
-0.01
-0.32
-0.32
-0.09
0.21
0.47
0.57
0.51
0.33
0.11
-0.09
-0.26
-0.40
-0.53
-0.64
-0.70
-0.68
-0.57
-0.41
-0.24
-0.11
-0.08
-0.19
-0.48
-0.97
-1.60
-2.25
-2.73
-2.86
-2.53
-1.76
-0.71
0.42
1.39
2.04
2.32
2.25
1.93
1.48
1.03
0.71
0.59
0.64
0.78
0.92
1.00
1.00
0.96
0.94
0.95
0.96
0.90
0.77
0.60
0.45
0.38
0.35
0.31
0.15
-0.15
-0.56
-0.94
-1.16
-1.17
-0.99
-0.73
-0.54
-0.52
-0.68
-0.88
-0.99
-0.86
-0.47
0.12
0.79
1.43
1.96
2.35
2.59
2.64
2.44
1.98
1.30
0.55
-0.12
-0.55
-0.66
-0.47
-0.11
0.27
0.53
0.57
0.40
0.07
-0.28
-0.56
-0.69
-0.67
-0.58
-0.47
-0.39
-0.36
-0.36
-0.38
-0.41
-0.46
-0.52
-0.61
-0.74
-0.93
-1.21
-1.54
-1.81
-1.88
-1.64
-1.06
-0.24
0.65
1.41
1.91
2.10
2.04
1.82
1.49
1.12
0.74
0.40
0.12
-0.06
-0.16
-0.18
-0.16
-0.14
-0.11
-0.06
-0.01
0.01
-0.05
-0.23
-0.52
-0.88
-1.21
-1.42
-1.47
-1.38
-1.19
-0.96
-0.73
-0.54
-0.41
-0.38
-0.48
-0.68
-0.88
-0.97
-0.85
-0.49
0.05
0.66
1.23
1.64
1.86
1.86
1.67
1.30
0.82
0.31
-0.18
-0.55
-0.74
-0.75
-0.63
-0.50
-0.46
-0.54
-0.72
-0.89
-0.97
-0.94
-0.86
-0.79
-0.76
-0.78
-0.77
-0.71
-0.65
-0.69
-0.89
-1.25
-1.66
-1.95
-1.99
-1.71
-1.17
-0.46
0.28
0.96
1.50
1.88
2.13
2.31
2.45
2.53
2.45
2.12
1.54
0.80
0.07
-0.42
-0.57
-0.41
-0.07
0.26
0.48
0.57
0.58
0.55
0.48
0.31
0.03
-0.34
-0.68
-0.88
-0.88
-0.73
-0.53
-0.41
-0.44
-0.59
-0.77
-0.89
-0.91
-0.88
-0.84
-0.81
-0.73
-0.52
-0.13
0.39
0.92
1.29
1.41
1.26
0.97
0.66
0.45
0.34
0.31
0.30
0.30
0.30
0.30
0.28
0.21
0.08
-0.07
-0.19
-0.22
-0.16
-0.08
-0.06
-0.15
-0.31
-0.44
-0.45
-0.33
-0.18
-0.13
-0.27
-0.58
-0.91
-1.12
-1.12
-0.95
-0.70
-0.46
-0.26
-0.03
0.32
0.77
1.22
1.53
1.55
1.28
0.81
0.31
-0.05
-0.21
-0.18
-0.05
0.10
0.20
0.27
0.32
0.38
0.41
0.36
0.18
-0.13
-0.49
-0.78
-0.87
-0.75
-0.51
-0.34
-0.40
-0.76
-1.28
-1.72
-1.88
-1.62
-1.04
-0.33
0.27
0.63
0.74
0.73
0.71
0.75
0.84
0.89
0.85
0.72
0.57
0.48
0.49
0.59
0.71
0.73
0.59
0.29
-0.09
-0.40
-0.55
-0.46
-0.20
0.10
0.29
0.26
-0.02
-0.48
-1.00
-1.44
-1.75
-1.92
-2.01
-2.07
-2.10
-2.08
-1.97
-1.73
-1.38
-0.92
-0.41
0.12
0.63
1.11
1.52
1.81
1.90
1.75
1.37
0.87
0.39
0.09
0.04
0.22
0.50
0.73
0.78
0.61
0.26
-0.15
-0.49
-0.66
-0.66
-0.56
-0.46
-0.41
-0.44
-0.50
-0.54
-0.54
-0.54
-0.61
-0.80
-1.06
-1.30
-1.38
-1.26
-0.95
-0.51
0.01
0.56
1.12
1.64
2.05
2.28
2.31
2.16
1.87
1.52
1.15
0.79
0.49
0.27
0.15
0.13
0.19
0.27
0.32
0.30
0.21
0.08
-0.07
-0.20
-0.30
-0.34
-0.33
-0.30
-0.33
-0.49
-0.81
-1.25
-1.72
-2.08
-2.21
-2.08
-1.69
-1.12
-0.44
0.28
0.97
1.58
2.05
2.32
2.35
2.14
1.74
1.23
0.73
0.36
0.20
0.29
0.55
0.88
1.15
1.26
1.18
0.97
0.73
0.52
0.38
0.28
0.21
0.18
0.22
0.35
0.60
0.87
1.07
1.06
0.75
0.14
-0.68
-1.53
-2.24
-2.68
-2.78
-2.54
-2.02
-1.30
-0.48
0.35
1.12
1.74
2.11
2.17
1.89
1.37
0.72
0.12
-0.25
-0.32
-0.09
0.33
0.81
1.21
1.46
1.52
1.40
1.11
0.69
0.18
-0.33
-0.76
-1.06
-1.19
-1.18
-1.11
-1.01
-0.96
-0.97
-1.08
-1.26
-1.51
-1.77
-1.98
-2.05
-1.94
-1.65
-1.21
-0.65
-0.01
0.70
1.42
2.06
2.49
2.57
2.28
1.69
0.98
0.37
-0.00
-0.06
0.13
0.46
0.80
1.04
1.12
1.05
0.83
0.50
0.08
-0.39
-0.82
-1.16
-1.35
-1.38
-1.33
-1.25
-1.25
-1.34
-1.53
-1.75
-1.96
-2.08
-2.06
-1.84
-1.44
-0.87
-0.19
0.53
1.21
1.83
2.36
2.77
3.00
2.94
2.53
1.79
0.87
-0.02
-0.68
-0.98
-0.93
-0.65
-0.27
0.06
0.27
0.35
0.31
0.17
-0.05
-0.31
-0.58
-0.80
-0.91
-0.93
-0.88
-0.86
-0.94
-1.15
-1.47
-1.86
-2.25
-2.57
-2.76
-2.68
-2.23
-1.34
-0.08
1.33
2.54
3.28
3.42
3.04
2.39
1.72
1.22
0.89
0.68
0.53
0.42
0.37
0.42
0.54
0.68
0.77
0.76
0.61
0.33
-0.02
-0.38
-0.67
-0.84
-0.90
-0.88
-0.84
-0.82
-0.81
-0.77
-0.66
-0.54
-0.51
-0.70
-1.11
-1.63
-2.04
-2.12
-1.78
-1.04
-0.05
0.98
1.89
2.57
2.94
2.95
2.61
1.99
1.26
0.62
0.22
0.12
0.26
0.51
0.73
0.86
0.89
0.85
0.78
0.68
0.56
0.42
0.26
0.10
-0.04
-0.18
-0.30
-0.37
-0.38
-0.30
-0.17
-0.06
-0.09
-0.33
-0.77
-1.30
-1.77
-2.03
-2.03
-1.80
-1.45
-1.06
-0.65
-0.16
0.45
1.14
1.79
2.19
2.19
1.79
1.10
0.32
-0.35
-0.81
-1.03
-1.01
-0.78
-0.36
0.17
0.68
1.02
1.06
0.80
0.38
-0.06
-0.36
-0.48
-0.44
-0.35
-0.27
-0.27
-0.42
-0.73
-1.21
-1.77
-2.27
-2.58
-2.62
-2.40
-2.01
-1.54
-1.02
-0.44
0.22
0.92
1.52
1.90
1.98
1.77
1.40
0.98
0.60
0.26
-0.04
-0.32
-0.50
-0.52
-0.31
0.10
0.57
0.94
1.07
0.91
0.54
0.08
-0.36
-0.72
-1.05
-1.40
-1.77
-2.13
-2.36
-2.40
-2.26
-2.06
-1.90
-1.84
-1.85
-1.78
-1.53
-1.08
-0.49
0.13
0.67
1.07
1.30
1.39
1.35
1.17
0.90
0.59
0.31
0.12
0.03
0.01
0.06
0.14
0.27
0.45
0.63
0.74
0.74
0.57
0.27
-0.10
-0.45
-0.68
-0.76
-0.66
-0.44
-0.18
0.00
-0.01
-0.28
-0.78
-1.40
-2.01
-2.43
-2.57
-2.42
-2.01
-1.44
-0.78
-0.09
0.56
1.14
1.62
1.97
2.18
2.22
2.12
1.89
1.58
1.26
1.00
0.85
0.82
0.89
1.01
1.14
1.21
1.17
1.01
0.74
0.43
0.17
0.05
0.07
0.17
0.21
0.12
-0.15
-0.49
-0.79
-0.97
-1.03
-1.06
-1.16
-1.37
-1.64
-1.82
-1.77
-1.41
-0.77
0.02
0.83
1.57
2.20
2.71
3.08
3.26
3.20
2.88
2.35
1.76
1.25
0.93
0.80
0.79
0.81
0.77
0.67
0.56
0.47
0.42
0.35
0.17
-0.14
-0.57
-1.01
-1.31
-1.36
-1.16
-0.82
-0.49
-0.34
-0.40
-0.65
-0.95
-1.19
-1.30
-1.31
-1.29
-1.30
-1.33
-1.28
-1.04
-0.50
0.29
1.18
1.98
2.52
2.73
2.67
2.45
2.18
1.90
1.59
1.22
0.84
0.51
0.33
0.37
0.57
0.85
1.08
1.18
1.10
0.86
0.52
0.16
-0.13
-0.32
-0.40
-0.43
-0.46
-0.54
-0.67
-0.82
-0.94
-1.04
-1.12
-1.23
-1.42
-1.70
-1.98
-2.20
-2.22
-1.98
-1.45
-0.68
0.20
1.04
1.69
2.12
2.32
2.39
2.37
2.30
2.14
1.85
1.44
0.95
0.47
0.07
-0.22
-0.42
-0.58
-0.71
-0.82
-0.86
-0.81
-0.67
-0.44
-0.14
0.18
0.45
0.58
0.51
0.23
-0.16
-0.51
-0.68
-0.63
-0.45
-0.32
-0.42
-0.85
-1.52
-2.21
-2.67
-2.70
-2.24
-1.39
-0.37
0.60
1.36
1.86
2.09
2.09
1.92
1.58
1.15
0.71
0.34
0.14
0.13
0.24
0.38
0.45
0.42
0.32
0.17
0.03
-0.09
-0.18
-0.22
-0.21
-0.16
-0.11
-0.10
-0.16
-0.29
-0.47
-0.70
-0.99
-1.36
-1.78
-2.16
-2.37
-2.27
-1.84
-1.16
-0.41
0.24
0.69
0.98
1.20
1.42
1.65
1.80
1.75
1.43
0.88
0.22
-0.34
-0.67
-0.69
-0.48
-0.17
0.10
0.22
0.21
0.11
0.02
-0.02
-0.02
-0.00
-0.04
-0.18
-0.44
-0.80
-1.21
-1.60
-1.90
-2.06
-2.10
-2.08
-2.09
-2.16
-2.24
-2.20
-1.90
-1.28
-0.40
0.56
1.43
2.05
2.35
2.36
2.11
1.67
1.12
0.58
0.19
0.08
0.32
0.81
1.38
1.78
1.86
1.58
1.06
0.48
-0.02
-0.39
-0.65
-0.86
-1.06
-1.27
-1.45
-1.56
-1.59
-1.53
-1.43
-1.34
-1.31
-1.38
-1.53
-1.68
-1.72
-1.55
-1.14
-0.52
0.22
0.97
1.62
2.14
2.47
2.59
2.46
2.07
1.46
0.76
0.11
-0.35
-0.56
-0.55
-0.42
-0.26
-0.12
0.01
0.16
0.31
0.45
0.51
0.47
0.33
0.13
-0.06
-0.18
-0.20
-0.10
0.08
0.29
0.43
0.36
-0.01
-0.65
-1.44
-2.15
-2.54
-2.47
-1.94
-1.07
-0.07
0.88
1.64
2.14
2.37
2.35
2.14
1.82
1.46
1.11
0.79
0.53
0.34
0.26
0.32
0.50
0.73
0.92
0.95
0.79
0.48
0.12
-0.15
-0.27
-0.22
-0.04
0.17
0.32
0.34
0.19
-0.13
-0.55
-1.00
-1.40
-1.69
-1.86
-1.89
-1.76
-1.45
-0.96
-0.32
0.42
1.17
1.85
2.39
2.75
2.95
3.00
2.94
2.82
2.67
2.56
2.54
2.67
2.96
3.39
3.91
4.46
4.98
5.46
5.89
6.26
6.58
6.86
7.15
7.50
7.97
8.59
9.33
10.11
10.86
11.57
12.25
12.95
13.65
14.30
14.75
14.83
14.44
13.54
12.15
10.34
8.13
5.52
2.52
-0.83
-4.38
-7.96
-11.32
-14.24
-16.54
-18.10
-18.85
-18.80
-18.09
-16.94
-15.67
-14.56
-13.79
-13.37
-13.17
-12.94
-12.51
-11.79
-10.86
-9.88
-9.02
-8.35
-7.83
-7.41
-7.04
-6.75
-6.61
-6.60
-6.59
-6.37
-5.73
-4.61
-3.12
-1.51
-0.08
1.00
1.65
1.91
1.85
1.55
1.09
0.57
0.11
-0.16
-0.20
-0.01
0.34
0.73
1.03
1.12
0.92
0.43
-0.20
-0.77
-1.09
-1.10
-0.87
-0.55
-0.31
-0.19
-0.14
-0.11
-0.10
-0.24
-0.63
-1.26
-1.98
-2.45
-2.43
-1.83
-0.83
0.22
1.03
1.45
1.59
1.65
1.79
2.02
2.22
2.22
1.95
1.50
1.02
0.66
0.48
0.40
0.32
0.15
-0.10
-0.35
-0.51
-0.51
-0.37
-0.18
-0.08
-0.14
-0.40
-0.81
-1.23
-1.54
-1.64
-1.55
-1.34
-1.13
-0.97
-0.90
-0.84
-0.71
-0.47
-0.09
0.44
1.05
1.72
2.36
2.86
3.11
3.03
2.60
1.93
1.14
0.43
-0.06
-0.26
-0.17
0.15
0.56
0.92
1.08
0.97
0.59
0.03
-0.57
-1.03
-1.22
-1.13
-0.81
-0.44
-0.20
-0.21
-0.47
-0.91
-1.38
-1.76
-2.01
-2.12
-2.12
-2.01
-1.75
-1.31
-0.71
-0.02
0.65
1.22
1.65
1.95
2.13
2.18
2.09
1.90
1.67
1.50
1.44
1.48
1.55
1.58
1.53
1.48
1.48
1.57
1.66
1.64
1.42
1.01
0.52
0.11
-0.13
-0.18
-0.14
-0.14
-0.27
-0.58
-1.00
-1.46
-1.86
-2.15
-2.29
-2.23
-1.96
-1.45
-0.71
0.19
1.09
1.83
2.23
2.26
1.99
1.56
1.12
0.75
0.42
0.10
-0.25
-0.55
-0.72
-0.66
-0.43
-0.14
0.03
-0.01
-0.25
-0.54
-0.74
-0.74
-0.57
-0.37
-0.25
-0.25
-0.35
-0.40
-0.34
-0.18
-0.04
-0.06
-0.31
-0.73
-1.12
-1.28
-1.11
-0.61
0.03
0.59
0.91
0.96
0.81
0.64
0.54
0.53
0.55
0.48
0.30
0.04
-0.20
-0.32
-0.29
-0.18
-0.06
0.01
0.05
0.08
0.15
0.22
0.23
0.12
-0.10
-0.37
-0.60
-0.74
-0.83
-0.94
-1.17
-1.53
-1.94
-2.28
-2.45
-2.41
-2.15
-1.74
-1.22
-0.60
0.12
0.89
1.65
2.23
2.51
2.40
1.94
1.30
0.69
0.29
0.18
0.31
0.56
0.83
0.99
0.98
0.76
0.34
-0.22
-0.84
-1.42
-1.87
-2.18
-2.37
-2.50
-2.63
-2.78
-2.93
-3.07
-3.19
-3.30
-3.46
-3.70
-4.01
-4.31
-4.49
-4.41
-3.97
-3.16
-2.06
-0.80
0.50
1.71
2.82
3.79
4.57
5.10
5.34
5.29
5.03
4.71
4.44
4.27
4.16
4.03
3.81
3.47
3.07
2.66
2.29
1.98
1.74
1.58
1.49
1.45
1.38
1.22
0.91
0.48
-0.04
-0.54
-0.92
-1.13
-1.17
-1.08
-0.95
-0.86
-0.86
-0.93
-1.01
-0.99
-0.79
-0.41
0.11
0.69
1.26
1.76
2.15
2.37
2.37
2.13
1.68
1.11
0.53
0.03
-0.34
-0.57
-0.67
-0.63
-0.44
-0.14
0.22
0.53
0.70
0.65
0.41
0.04
-0.36
-0.68
-0.85
-0.82
-0.66
-0.45
-0.29
-0.25
-0.36
-0.59
-0.89
-1.22
-1.49
-1.61
-1.50
-1.17
-0.65
-0.08
0.41
0.76
0.99
1.14
1.26
1.31
1.23
0.98
0.63
0.35
0.28
0.47
0.81
1.14
1.32
1.32
1.22
1.13
1.06
0.95
0.72
0.33
-0.15
-0.61
-0.93
-1.10
-1.19
-1.30
-1.46
-1.59
-1.60
-1.42
-1.10
-0.82
-0.74
-0.95
-1.36
-1.76
-1.89
-1.60
-0.93
-0.05
0.79
1.40
1.70
1.77
1.70
1.61
1.54
1.51
1.46
1.35
1.15
0.85
0.46
0.04
-0.34
-0.62
-0.76
-0.78
-0.69
-0.55
-0.37
-0.17
0.03
0.21
0.36
0.53
0.76
1.07
1.44
1.73
1.78
1.47
0.75
-0.24
-1.27
-2.12
-2.63
-2.75
-2.52
-2.04
-1.37
-0.58
0.23
0.92
1.33
1.38
1.12
0.69
0.29
0.05
-0.02
-0.03
-0.04
-0.11
-0.15
-0.07
0.16
0.52
0.91
1.23
1.42
1.47
1.41
1.23
0.95
0.60
0.27
0.01
-0.15
-0.30
-0.50
-0.80
-1.16
-1.46
-1.63
-1.65
-1.58
-1.50
-1.41
-1.24
-0.88
-0.30
0.40
1.03
1.37
1.37
1.10
0.79
0.62
0.66
0.85
1.05
1.13
1.06
0.89
0.74
0.67
0.70
0.75
0.77
0.69
0.50
0.24
-0.05
-0.35
-0.62
-0.81
-0.88
-0.82
-0.67
-0.51
-0.47
-0.59
-0.87
-1.23
-1.54
-1.72
-1.74
-1.61
-1.38
-1.10
-0.74
-0.31
0.19
0.71
1.15
1.37
1.28
0.90
0.33
-0.23
-0.61
-0.72
-0.62
-0.44
-0.36
-0.46
-0.70
-0.96
-1.08
-0.97
-0.66
-0.25
0.11
0.36
0.44
0.40
0.30
0.18
0.08
-0.01
-0.11
-0.24
-0.41
-0.59
-0.72
-0.74
-0.63
-0.43
-0.21
-0.03
0.12
0.31
0.62
1.07
1.59
2.02
2.26
2.26
2.09
1.84
1.58
1.30
1.00
0.64
0.29
0.01
-0.13
-0.11
-0.00
0.13
0.22
0.26
0.28
0.35
0.46
0.57
0.61
0.52
0.27
-0.05
-0.35
-0.55
-0.61
-0.59
-0.58
-0.68
-0.89
-1.14
-1.28
-1.18
-0.80
-0.19
0.50
1.13
1.56
1.73
1.64
1.34
0.93
0.50
0.13
-0.16
-0.39
-0.60
-0.77
-0.88
-0.84
-0.62
-0.25
0.18
0.54
0.71
0.66
0.46
0.20
-0.01
-0.09
-0.03
0.14
0.36
0.55
0.66
0.63
0.44
0.10
-0.33
-0.77
-1.13
-1.33
-1.31
-1.07
-0.64
-0.09
0.48
0.95
1.25
1.29
1.08
0.64
0.04
-0.59
-1.16
-1.58
-1.78
-1.76
-1.51
-1.07
-0.51
0.07
0.51
0.67
0.50
0.05
-0.54
-1.07
-1.36
-1.36
-1.09
-0.67
-0.22
0.13
0.32
0.31
0.14
-0.14
-0.42
-0.60
-0.60
-0.43
-0.13
0.20
0.53
0.82
1.04
1.16
1.08
0.70
0.02
-0.84
-1.64
-2.13
-2.14
-1.69
-0.94
-0.13
0.54
0.96
1.10
1.00
0.71
0.29
-0.17
-0.55
-0.74
-0.66
-0.37
0.00
0.28
0.35
0.17
-0.17
-0.58
-0.97
-1.31
-1.63
-1.92
-2.14
-2.21
-2.05
-1.63
-1.03
-0.38
0.17
0.54
0.72
0.76
0.72
0.63
0.49
0.26
-0.03
-0.29
-0.43
-0.36
-0.10
0.27
0.58
0.74
0.71
0.55
0.36
0.22
0.12
0.01
-0.15
-0.39
-0.66
-0.87
-0.99
-1.04
-1.07
-1.15
-1.30
-1.50
-1.68
-1.79
-1.77
-1.62
-1.34
-0.96
-0.51
-0.02
0.48
0.98
1.46
1.93
2.39
2.77
3.03
3.10
2.99
2.75
2.49
2.30
2.22
2.20
2.16
2.03
1.76
1.39
0.98
0.62
0.36
0.20
0.13
0.09
0.04
-0.04
-0.13
-0.21
-0.26
-0.30
-0.38
-0.55
-0.84
-1.19
-1.54
-1.78
-1.87
-1.80
-1.60
-1.28
-0.82
-0.20
0.57
1.39
2.12
2.57
2.68
2.44
1.95
1.37
0.81
0.34
0.01
-0.17
-0.19
-0.06
0.19
0.49
0.77
1.00
1.15
1.21
1.17
0.99
0.66
0.19
-0.34
-0.82
-1.15
-1.27
-1.21
-1.02
-0.78
-0.57
-0.45
-0.46
-0.62
-0.89
-1.19
-1.42
-1.46
-1.28
-0.85
-0.24
0.45
1.11
1.65
2.01
2.20
2.25
2.18
2.05
1.87
1.66
1.43
1.17
0.88
0.58
0.25
-0.08
-0.41
-0.69
-0.88
-0.95
-0.87
-0.66
-0.40
-0.19
-0.11
-0.20
-0.39
-0.60
-0.70
-0.62
-0.38
-0.10
0.08
0.05
-0.26
-0.83
-1.64
-2.64
-3.74
-4.77
-5.51
-5.71
-5.24
-4.12
-2.59
-1.01
0.28
1.07
1.36
1.27
0.96
0.60
0.27
0.01
-0.15
-0.18
-0.06
0.23
0.66
1.17
1.64
1.98
2.10
1.97
1.65
1.23
0.82
0.49
0.26
0.12
0.02
-0.04
-0.07
-0.07
-0.11
-0.26
-0.60
-1.10
-1.65
-2.09
-2.25
-2.09
-1.62
-0.98
-0.30
0.33
0.83
1.21
1.42
1.42
1.16
0.64
-0.08
-0.83
-1.47
-1.88
-2.06
-2.09
-2.07
-2.06
-2.10
-2.13
-2.14
-2.17
-2.29
-2.56
-2.97
-3.40
-3.69
-3.74
-3.54
-3.17
-2.81
-2.61
-2.63
-2.82
-3.02
-3.07
-2.81
-2.19
-1.21
0.03
1.45
2.91
4.30
5.51
6.45
7.08
7.42
7.54
7.49
7.28
6.88
6.24
5.40
4.48
3.66
3.08
2.78
2.67
2.59
2.40
2.07
1.61
1.10
0.60
0.14
-0.25
-0.52
-0.61
-0.52
-0.28
-0.03
0.12
0.11
-0.00
-0.12
-0.13
0.00
0.22
0.42
0.52
0.49
0.40
0.36
0.47
0.75
1.10
1.35
1.33
0.95
0.26
-0.58
-1.33
-1.84
-2.04
-1.97
-1.73
-1.41
-1.08
-0.80
-0.59
-0.49
-0.46
-0.41
-0.22
0.20
0.86
1.65
2.39
2.90
3.09
3.00
2.73
2.42
2.15
1.88
1.53
1.00
0.29
-0.49
-1.18
-1.58
-1.60
-1.29
-0.79
-0.27
0.13
0.36
0.46
0.47
0.44
0.38
0.26
0.05
-0.25
-0.62
-1.01
-1.37
-1.63
-1.76
-1.76
-1.63
-1.46
-1.28
-1.16
-1.09
-1.05
-1.02
-0.99
-0.97
-0.99
-1.03
-1.05
-1.01
-0.84
-0.59
-0.32
-0.15
-0.15
-0.32
-0.57
-0.78
-0.83
-0.66
-0.30
0.15
0.58
0.87
1.02
1.03
0.98
0.90
0.80
0.62
0.34
-0.01
-0.35
-0.53
-0.48
-0.22
0.13
0.36
0.35
0.11
-0.24
-0.53
-0.64
-0.62
-0.57
-0.60
-0.74
-0.95
-1.12
-1.19
-1.19
-1.17
-1.21
-1.28
-1.33
-1.25
-1.01
-0.60
-0.10
0.43
0.94
1.37
1.70
1.88
1.87
1.67
1.32
0.89
0.45
0.08
-0.17
-0.30
-0.32
-0.29
-0.29
-0.39
-0.63
-0.96
-1.28
-1.48
-1.49
-1.36
-1.17
-1.05
-1.09
-1.28
-1.56
-1.85
-2.05
-2.13
-2.03
-1.76
-1.34
-0.82
-0.28
0.19
0.57
0.87
1.14
1.42
1.69
1.86
1.84
1.57
1.08
0.49
-0.06
-0.41
-0.49
-0.33
-0.05
0.22
0.36
0.35
0.26
0.20
0.22
0.29
0.32
0.24
0.05
-0.19
-0.42
-0.59
-0.75
-0.95
-1.23
-1.56
-1.81
-1.86
-1.60
-1.01
-0.20
0.65
1.36
1.81
1.97
1.90
1.71
1.46
1.19
0.89
0.56
0.28
0.14
0.20
0.44
0.74
0.92
0.87
0.60
0.20
-0.19
-0.49
-0.69
-0.82
-0.96
-1.12
-1.31
-1.49
-1.66
-1.82
-1.97
-2.09
-2.12
-2.01
-1.72
-1.24
-0.62
0.07
0.74
1.31
1.71
1.93
1.92
1.72
1.33
0.80
0.17
-0.43
-0.88
-1.04
-0.82
-0.25
0.54
1.32
1.86
2.03
1.80
1.32
0.74
0.23
-0.13
-0.35
-0.45
-0.53
-0.62
-0.76
-0.91
-1.04
-1.08
-0.98
-0.72
-0.30
0.24
0.85
1.48
2.09
2.61
2.95
3.03
2.81
2.31
1.66
1.00
0.49
0.21
0.16
0.28
0.45
0.57
0.56
0.38
0.08
-0.30
-0.63
-0.83
-0.85
-0.72
-0.58
-0.55
-0.74
-1.15
-1.68
-2.13
-2.33
-2.16
-1.65
-0.90
-0.07
0.73
1.40
1.93
2.32
2.57
2.68
2.63
2.45
2.13
1.70
1.19
0.64
0.12
-0.28
-0.52
-0.55
-0.40
-0.19
-0.02
0.00
-0.12
-0.35
-0.60
-0.78
-0.87
-0.88
-0.87
-0.86
-0.87
-0.89
-0.89
-0.87
-0.82
-0.70
-0.47
-0.08
0.50
1.24
2.00
2.65
3.03
3.03
2.68
2.07
1.38
0.78
0.38
0.18
0.11
0.07
-0.02
-0.10
-0.10
0.06
0.37
0.72
0.94
0.95
0.75
0.47
0.25
0.14
0.07
-0.05
-0.31
-0.69
-1.11
-1.43
-1.58
-1.56
-1.38
-1.06
-0.56
0.12
0.95
1.83
2.56
3.00
3.01
2.61
1.89
1.00
0.12
-0.60
-1.06
-1.23
-1.11
-0.81
-0.46
-0.21
-0.18
-0.40
-0.80
-1.23
-1.55
-1.69
-1.67
-1.60
-1.60
-1.76
-2.04
-2.38
-2.65
-2.78
-2.69
-2.39
-1.86
-1.13
-0.27
0.60
1.35
1.85
2.01
1.83
1.43
0.94
0.51
0.23
0.08
0.01
-0.05
-0.14
-0.21
-0.20
-0.08
0.12
0.30
0.37
0.28
0.08
-0.14
-0.31
-0.41
-0.51
-0.65
-0.85
-1.06
-1.18
-1.16
-1.03
-0.87
-0.79
-0.81
-0.91
-0.99
-0.95
-0.70
-0.24
0.40
1.12
1.78
2.21
2.31
2.05
1.51
0.84
0.22
-0.22
-0.43
-0.46
-0.36
-0.20
-0.04
0.11
0.22
0.25
0.23
0.18
0.13
0.12
0.12
0.12
0.07
-0.05
-0.25
-0.52
-0.89
-1.33
-1.79
-2.16
-2.32
-2.16
-1.65
-0.86
0.08
0.97
1.68
2.12
2.29
2.21
1.97
1.60
1.18
0.78
0.47
0.34
0.42
0.69
1.05
1.36
1.47
1.32
0.93
0.40
-0.13
-0.58
-0.89
-1.08
-1.18
-1.20
-1.14
-1.00
-0.80
-0.64
-0.62
-0.85
-1.32
-1.91
-2.42
-2.67
-2.54
-2.08
-1.38
-0.64
0.02
0.50
0.75
0.78
0.63
0.37
0.07
-0.20
-0.43
-0.63
-0.86
-1.17
-1.53
-1.92
-2.26
-2.53
-2.75
-3.00
-3.35
-3.82
-4.37
-4.87
-5.20
-5.25
-5.00
-4.52
-3.98
-3.57
-3.40
-3.48
-3.63
-3.64
-3.29
-2.48
-1.26
0.24
1.87
3.48
4.96
6.25
7.26
7.87
8.05
7.81
7.27
6.63
6.10
5.77
5.67
5.67
5.63
5.39
4.90
4.16
3.25
2.28
1.33
0.45
-0.28
-0.83
-1.16
-1.26
-1.19
-1.03
-0.85
-0.71
-0.64
-0.64
-0.74
-0.98
-1.37
-1.87
-2.36
-2.71
-2.79
-2.55
-2.02
-1.27
-0.36
0.64
1.59
2.35
2.73
2.61
2.04
1.24
0.51
0.14
0.24
0.73
1.39
1.97
2.32
2.40
2.25
1.94
1.52
1.03
0.49
-0.01
-0.37
-0.51
-0.45
-0.26
-0.10
-0.09
-0.27
-0.61
-1.00
-1.38
-1.69
-1.93
-2.03
-1.92
-1.47
-0.67
0.36
1.36
2.07
2.34
2.21
1.87
1.55
1.34
1.17
0.94
0.57
0.11
-0.26
-0.41
-0.28
-0.01
0.22
0.24
0.02
-0.36
-0.78
-1.11
-1.32
-1.45
-1.54
-1.61
-1.65
-1.61
-1.50
-1.35
-1.29
-1.36
-1.56
-1.75
-1.75
-1.47
-0.91
-0.23
0.37
0.76
0.93
1.02
1.15
1.36
1.56
1.60
1.35
0.83
0.20
-0.32
-0.55
-0.44
-0.07
0.37
0.69
0.78
0.68
0.50
0.39
0.42
0.58
0.77
0.85
0.75
0.49
0.16
-0.17
-0.48
-0.84
-1.30
-1.86
-2.44
-2.88
-3.03
-2.80
-2.20
-1.30
-0.25
0.80
1.69
2.28
2.48
2.25
1.68
0.89
0.07
-0.62
-1.05
-1.21
-1.12
-0.89
-0.61
-0.36
-0.18
-0.06
0.03
0.09
0.12
0.05
-0.13
-0.42
-0.72
-0.93
-0.96
-0.78
-0.47
-0.17
-0.05
-0.21
-0.62
-1.13
-1.54
-1.67
-1.49
-1.07
-0.59
-0.20
0.04
0.15
0.24
0.37
0.56
0.75
0.90
0.99
1.06
1.18
1.36
1.60
1.82
1.91
1.77
1.35
0.68
-0.15
-0.98
-1.66
-2.02
-1.98
-1.56
-0.85
-0.01
0.76
1.31
1.53
1.40
0.97
0.35
-0.33
-0.91
-1.26
-1.31
-1.04
-0.53
0.15
0.89
1.59
2.15
2.47
2.48
2.15
1.53
0.75
-0.03
-0.60
-0.85
-0.80
-0.54
-0.27
-0.14
-0.26
-0.55
-0.88
-1.03
-0.87
-0.41
0.22
0.80
1.11
1.07
0.73
0.28
-0.13
-0.39
-0.51
-0.55
-0.62
-0.79
-1.04
-1.30
-1.45
-1.39
-1.03
-0.38
0.47
1.35
2.09
2.60
2.87
2.96
2.95
2.88
2.71
2.39
1.85
1.14
0.34
-0.41
-1.00
-1.35
-1.45
-1.34
-1.10
-0.80
-0.55
-0.43
-0.45
-0.61
-0.82
-1.00
-1.07
-1.04
-0.94
-0.86
-0.89
-1.05
-1.32
-1.63
-1.91
-2.09
-2.12
-1.97
-1.62
-1.10
-0.46
0.25
0.89
1.33
1.49
1.36
1.04
0.72
0.55
0.61
0.86
1.19
1.46
1.56
1.49
1.30
1.02
0.69
0.32
-0.08
-0.48
-0.81
-1.00
-1.03
-0.91
-0.74
-0.63
-0.71
-1.04
-1.58
-2.23
-2.80
-3.15
-3.20
-2.98
-2.56
-2.04
-1.50
-0.96
-0.44
0.07
0.56
1.01
1.40
1.67
1.76
1.65
1.39
1.07
0.85
0.80
0.89
1.00
1.01
0.90
0.71
0.57
0.53
0.55
0.50
0.27
-0.14
-0.63
-1.04
-1.26
-1.31
-1.28
-1.28
-1.30
-1.27
-1.09
-0.78
-0.45
-0.32
-0.50
-0.97
-1.52
-1.90
-1.92
-1.54
-0.91
-0.22
0.40
0.90
1.31
1.70
2.03
2.24
2.24
2.02
1.64
1.22
0.90
0.74
0.71
0.74
0.73
0.65
0.49
0.29
0.11
-0.06
-0.20
-0.31
-0.37
-0.35
-0.27
-0.17
-0.10
-0.12
-0.26
-0.50
-0.78
-1.04
-1.24
-1.33
-1.31
-1.21
-1.06
-0.91
-0.79
-0.70
-0.61
-0.46
-0.19
0.27
0.89
1.57
2.18
2.57
2.61
2.30
1.74
1.09
0.53
0.19
0.07
0.09
0.13
0.09
-0.09
-0.38
-0.73
-1.05
-1.23
-1.21
-0.96
-0.51
-0.02
0.35
0.47
0.29
-0.10
-0.55
-0.91
-1.09
-1.14
-1.16
-1.23
-1.41
-1.66
-1.87
-1.92
-1.75
-1.38
-0.89
-0.45
-0.16
-0.09
-0.18
-0.32
-0.38
-0.28
-0.01
0.33
0.65
0.84
0.84
0.70
0.47
0.26
0.15
0.15
0.25
0.37
0.45
0.43
0.27
-0.01
-0.37
-0.78
-1.20
-1.56
-1.81
-1.89
-1.77
-1.48
-1.11
-0.81
-0.72
-0.95
-1.47
-2.13
-2.71
-3.01
-2.90
-2.40
-1.63
-0.74
0.13
0.87
1.41
1.68
1.70
1.52
1.21
0.89
0.64
0.52
0.54
0.68
0.93
1.23
1.51
1.70
1.75
1.64
1.39
1.06
0.69
0.30
-0.11
-0.52
-0.88
-1.12
-1.17
-1.03
-0.72
-0.33
0.01
0.20
0.14
-0.17
-0.67
-1.20
-1.57
-1.58
-1.14
-0.27
0.90
2.15
3.24
3.97
4.24
4.08
3.59
2.89
2.13
1.42
0.85
0.48
0.34
0.42
0.65
0.91
1.08
1.08
0.90
0.60
0.26
-0.05
-0.30
-0.44
-0.47
-0.36
-0.16
0.06
0.17
0.06
-0.29
-0.80
-1.31
-1.67
-1.78
-1.62
-1.26
-0.75
-0.16
0.47
1.11
1.72
2.21
2.53
2.62
2.49
2.21
1.84
1.46
1.12
0.83
0.58
0.38
0.27
0.25
0.33
0.44
0.51
0.46
0.30
0.10
-0.07
-0.17
-0.23
-0.35
-0.56
-0.81
-0.98
-0.96
-0.73
-0.41
-0.20
-0.26
-0.59
-1.05
-1.41
-1.52
-1.30
-0.85
-0.27
0.33
0.92
1.47
1.97
2.36
2.53
2.41
1.97
1.27
0.45
-0.31
-0.83
-1.02
-0.87
-0.49
-0.05
0.26
0.34
0.18
-0.14
-0.49
-0.79
-1.02
-1.17
-1.24
-1.24
-1.13
-0.92
-0.71
-0.61
-0.76
-1.19
-1.79
-2.35
-2.63
-2.47
-1.87
-0.96
0.07
1.05
1.85
2.44
2.80
2.95
2.86
2.54
2.01
1.36
0.73
0.27
0.03
0.02
0.11
0.17
0.11
-0.03
-0.17
-0.21
-0.13
-0.03
-0.04
-0.24
-0.64
-1.08
-1.39
-1.45
-1.29
-1.00
-0.74
-0.62
-0.68
-0.86
-1.10
-1.32
-1.45
-1.44
-1.24
-0.85
-0.26
0.46
1.22
1.88
2.32
2.46
2.32
1.95
1.45
0.94
0.50
0.19
0.04
0.05
0.19
0.41
0.61
0.74
0.73
0.59
0.34
0.00
-0.36
-0.70
-0.93
-0.95
-0.74
-0.36
0.04
0.25
0.14
-0.28
-0.87
-1.45
-1.87
-2.04
-1.98
-1.71
-1.27
-0.66
0.06
0.80
1.42
1.81
1.93
1.81
1.54
1.18
0.75
0.26
-0.25
-0.71
-0.99
-0.99
-0.71
-0.24
0.26
0.62
0.76
0.69
0.47
0.22
0.01
-0.10
-0.12
-0.05
0.06
0.15
0.16
0.02
-0.28
-0.70
-1.16
-1.57
-1.90
-2.13
-2.27
-2.29
-2.14
-1.73
-1.06
-0.24
0.57
1.17
1.41
1.30
0.94
0.47
0.03
-0.32
-0.60
-0.86
-1.15
-1.45
-1.72
-1.86
-1.82
-1.58
-1.23
-0.92
-0.77
-0.89
-1.26
-1.78
-2.29
-2.67
-2.86
-2.90
-2.88
-2.89
-3.02
-3.26
-3.59
-3.97
-4.34
-4.64
-4.85
-4.89
-4.70
-4.17
-3.26
-1.98
-0.41
1.26
2.82
4.08
4.87
5.17
5.02
4.57
4.04
3.61
3.40
3.43
3.61
3.81
3.92
3.86
3.63
3.28
2.89
2.53
2.23
2.02
1.88
1.79
1.71
1.62
1.51
1.33
1.05
0.67
0.21
-0.23
-0.54
-0.62
-0.43
0.00
0.58
1.21
1.79
2.31
2.73
3.01
3.12
3.01
2.71
2.30
1.85
1.39
0.92
0.40
-0.14
-0.65
-1.03
-1.17
-1.07
-0.79
-0.47
-0.23
-0.15
-0.16
-0.18
-0.12
0.04
0.21
0.28
0.16
-0.11
-0.39
-0.53
-0.40
-0.05
0.37
0.65
0.62
0.26
-0.35
-1.08
-1.77
-2.34
-2.74
-2.89
-2.75
-2.31
-1.63
-0.82
-0.05
0.54
0.87
0.96
0.87
0.69
0.47
0.24
-0.01
-0.30
-0.63
-0.97
-1.31
-1.64
-1.96
-2.32
-2.73
-3.17
-3.52
-3.67
-3.50
-3.01
-2.33
-1.69
-1.29
-1.18
-1.31
-1.49
-1.57
-1.53
-1.48
-1.59
-1.93
-2.48
-3.03
-3.38
-3.38
-3.02
-2.38
-1.60
-0.78
-0.00
0.74
1.45
2.12
2.67
3.01
3.04
2.78
2.34
1.89
1.62
1.61
1.79
1.98
2.03
1.87
1.60
1.36
1.29
1.38
1.56
1.70
1.74
1.72
1.74
1.87
2.09
2.31
2.37
2.21
1.82
1.33
0.88
0.52
0.22
-0.14
-0.65
-1.26
-1.80
-2.05
-1.85
-1.24
-0.42
0.36
0.91
1.15
1.15
1.03
0.89
0.81
0.84
1.07
1.57
2.34
3.29
4.22
4.90
5.13
4.86
4.20
3.34
2.52
1.89
1.54
1.41
1.40
1.37
1.20
0.78
0.09
-0.85
-1.98
-3.16
-4.25
-5.12
-5.67
-5.89
-5.81
-5.46
-4.88
-4.11
-3.20
-2.22
-1.25
-0.38
0.37
0.98
1.45
1.74
1.82
1.65
1.27
0.79
0.37
0.15
0.22
0.57
1.10
1.68
2.14
2.34
2.19
1.69
0.94
0.12
-0.59
-1.07
-1.30
-1.37
-1.42
-1.55
-1.74
-1.93
-2.01
-1.96
-1.80
-1.68
-1.70
-1.95
-2.36
-2.78
-3.01
-2.86
-2.30
-1.42
-0.43
0.48
1.18
1.68
2.08
2.48
2.88
3.17
3.22
2.92
2.32
1.59
0.98
0.69
0.80
1.22
1.81
2.36
2.73
2.84
2.66
2.22
1.59
0.86
0.09
-0.67
-1.40
-2.05
-2.58
-2.89
-2.92
-2.69
-2.28
-1.86
-1.58
-1.55
-1.74
-2.04
-2.29
-2.40
-2.29
-1.97
-1.46
-0.79
0.02
0.92
1.79
2.50
2.93
3.04
2.85
2.49
2.11
1.85
1.81
1.99
2.31
2.58
2.58
2.16
1.29
0.12
-1.08
-2.09
-2.86
-3.56
-4.46
-5.79
-7.56
-9.54
-11.41
-12.85
-13.66
-13.83
-13.41
-12.47
-11.09
-9.37
-7.54
-5.90
-4.85
-4.68
-5.47
-6.89
-8.28
-8.77
-7.58
-4.37
0.62
6.58
12.45
17.25
20.43
21.96
22.22
21.69
20.77
19.60
18.08
16.03
13.33
10.01
6.28
2.45
-1.14
-4.20
-6.55
-8.08
-8.76
-8.63
-7.81
-6.48
-4.93
-3.48
-2.42
-1.97
-2.17
-2.89
-3.87
-4.78
-5.36
-5.40
-4.83
-3.60
-1.75
0.62
3.29
5.83
7.73
8.49
7.87
6.02
3.43
0.82
-1.19
-2.23
-2.27
-1.53
-0.31
1.12
2.61
4.07
5.41
6.54
7.29
7.54
7.22
6.38
5.21
3.95
2.82
1.91
1.20
0.53
-0.22
-1.12
-2.12
-3.14
-4.09
-4.99
-5.88
-6.78
-7.68
-8.49
-9.14
-9.59
-9.88
-10.03
-10.04
-9.81
-9.25
-8.30
-7.05
-5.66
-4.33
-3.21
-2.37
-1.79
-1.45
-1.30
-1.34
-1.55
-1.92
-2.37
-2.82
-3.09
-2.99
-2.32
-0.97
1.02
3.44
5.95
8.18
9.85
10.80
11.04
10.69
9.86
8.68
7.29
5.81
4.37
3.07
2.01
1.23
0.76
0.61
0.71
0.93
1.11
1.08
0.76
0.20
-0.44
-0.97
-1.24
-1.23
-1.05
-0.81
-0.61
-0.45
-0.28
-0.00
0.41
0.95
1.53
2.06
2.43
2.57
2.49
2.19
1.79
1.36
0.99
0.73
0.58
0.50
0.45
0.38
0.28
0.15
-0.02
-0.22
-0.45
-0.65
-0.78
-0.77
-0.61
-0.33
-0.04
0.15
0.19
0.08
-0.08
-0.22
-0.28
-0.31
-0.40
-0.64
-1.06
-1.63
-2.24
-2.78
-3.15
-3.28
-3.14
-2.72
-2.06
-1.21
-0.26
0.69
1.54
2.18
2.59
2.74
2.66
2.40
2.02
1.57
1.11
0.68
0.31
0.07
0.01
0.17
0.51
0.89
1.17
1.20
0.99
0.65
0.35
0.17
0.11
0.08
-0.04
-0.27
-0.58
-0.87
-1.09
-1.23
-1.35
-1.47
-1.58
-1.68
-1.74
-1.79
-1.81
-1.77
-1.59
-1.23
-0.68
-0.01
0.66
1.26
1.73
2.05
2.21
2.17
1.91
1.47
0.95
0.49
0.24
0.23
0.39
0.59
0.71
0.73
0.71
0.72
0.82
0.97
1.11
1.14
1.06
0.92
0.83
0.85
0.98
1.13
1.20
1.12
0.94
0.72
0.55
0.43
0.30
0.08
-0.27
-0.71
-1.08
-1.25
-1.11
-0.69
-0.10
0.52
1.06
1.49
1.84
2.14
2.40
2.56
2.58
2.41
2.09
1.73
1.47
1.42
1.61
1.95
2.27
2.42
2.28
1.84
1.16
0.33
-0.59
-1.54
-2.50
-3.41
-4.18
-4.71
-4.97
-4.98
-4.85
-4.72
-4.76
-5.04
-5.61
-6.40
-7.30
-8.16
-8.84
-9.24
-9.30
-8.96
-8.16
-6.88
-5.16
-3.17
-1.14
0.69
2.15
3.19
3.84
4.15
4.19
3.99
3.59
3.09
2.64
2.34
2.24
2.26
2.27
2.12
1.77
1.24
0.66
0.16
-0.18
-0.32
-0.28
-0.14
0.03
0.22
0.43
0.70
1.04
1.42
1.77
2.00
2.08
2.01
1.85
1.66
1.49
1.37
1.33
1.45
1.78
2.34
3.06
3.80
4.38
4.64
4.55
4.10
3.39
2.54
1.70
1.02
0.64
0.60
0.83
1.19
1.48
1.59
1.53
1.39
1.28
1.22
1.13
0.88
0.40
-0.24
-0.86
-1.22
-1.20
-0.82
-0.24
0.29
0.62
0.70
0.57
0.35
0.12
-0.07
-0.21
-0.26
-0.15
0.22
0.91
1.79
2.64
3.10
2.90
1.95
0.41
-1.42
-3.15
-4.49
-5.26
-5.41
-4.93
-3.82
-2.09
0.11
2.52
4.77
6.43
7.25
7.16
6.31
4.96
3.39
1.81
0.36
-0.80
-1.50
-1.59
-1.02
0.08
1.36
2.40
2.81
2.42
1.32
-0.21
-1.76
-2.94
-3.50
-3.39
-2.74
-1.85
-1.06
-0.62
-0.64
-1.02
-1.55
-2.00
-2.22
-2.22
-2.10
-2.02
-2.09
-2.32
-2.66
-2.98
-3.20
-3.30
-3.31
-3.32
-3.38
-3.48
-3.52
-3.41
-3.06
-2.47
-1.77
-1.09
-0.63
-0.49
-0.78
-1.51
-2.63
-4.01
-5.40
-6.46
-6.88
-6.45
-5.16
-3.24
-1.03
1.05
2.66
3.55
3.63
2.92
1.59
-0.08
-1.67
-2.78
-3.13
-2.65
-1.51
-0.09
1.21
2.05
2.26
1.84
0.95
-0.12
-1.02
-1.42
-1.05
0.18
2.16
4.59
7.08
9.20
10.63
11.20
10.90
9.90
8.45
6.86
5.40
4.25
3.41
2.77
2.16
1.48
0.71
-0.01
-0.50
-0.62
-0.31
0.34
1.11
1.68
1.72
0.96
-0.71
-3.24
-6.35
-9.60
-12.44
-14.37
-15.05
-14.52
-13.23
-11.99
-11.64
-12.67
-14.88
-17.31
-18.61
-17.64
-13.95
-8.08
-1.25
5.16
10.16
13.44
15.27
16.03
15.95
14.94
12.80
9.48
5.32
0.93
-2.95
-5.79
-7.41
-7.96
-7.81
-7.37
-6.92
-6.62
-6.53
-6.65
-6.90
-7.17
-7.32
-7.23
-6.80
-6.02
-4.96
-3.71
-2.45
-1.33
-0.52
-0.08
0.02
-0.02
0.10
0.69
1.97
3.88
6.12
8.18
9.54
9.87
9.17
7.71
5.97
4.37
3.20
2.58
2.46
2.76
3.39
4.25
5.22
6.13
6.78
7.02
6.85
6.39
5.84
5.36
5.00
4.70
4.32
3.79
3.17
2.60
2.23
2.10
2.09
2.01
1.62
0.81
-0.34
-1.62
-2.78
-3.62
-4.06
-4.17
-4.07
-3.87
-3.63
-3.35
-2.99
-2.55
-2.06
-1.56
-1.07
-0.54
0.10
0.93
1.94
3.03
4.05
4.88
5.49
5.92
6.25
6.49
6.64
6.64
6.46
6.11
5.62
5.00
4.26
3.36
2.32
1.17
-0.01
-1.08
-1.93
-2.43
-2.52
-2.21
-1.60
-0.87
-0.22
0.21
0.37
0.32
0.15
-0.03
-0.19
-0.35
-0.57
-0.88
-1.30
-1.82
-2.41
-3.00
-3.49
-3.78
-3.77
-3.48
-2.94
-2.26
-1.55
-0.83
-0.10
0.66
1.46
2.25
2.97
3.53
3.91
4.13
4.22
4.21
4.12
3.93
3.67
3.35
3.02
2.73
2.46
2.20
1.93
1.63
1.29
0.92
0.51
0.04
-0.47
-0.98
-1.45
-1.82
-2.10
-2.30
-2.49
-2.72
-2.98
-3.25
-3.49
-3.67
-3.81
-3.91
-3.97
-3.91
-3.66
-3.20
-2.55
-1.82
-1.12
-0.52
-0.04
0.37
0.75
1.08
1.34
1.48
1.47
1.34
1.11
0.82
0.51
0.19
-0.10
-0.35
-0.55
-0.70
-0.83
-0.95
-1.01
-0.97
-0.82
-0.58
-0.33
-0.14
-0.06
-0.06
-0.13
-0.22
-0.36
-0.58
-0.90
-1.25
-1.49
-1.52
-1.31
-0.99
-0.76
-0.82
-1.20
-1.78
-2.32
-2.61
-2.56
-2.24
-1.81
-1.39
-1.01
-0.58
0.01
0.80
1.70
2.53
3.09
3.23
2.95
2.36
1.68
1.09
0.70
0.53
0.50
0.53
0.56
0.57
0.52
0.41
0.18
-0.22
-0.77
-1.37
-1.88
-2.18
-2.21
-1.98
-1.61
-1.22
-0.90
-0.72
-0.66
-0.69
-0.78
-0.88
-0.95
-0.99
-0.99
-0.98
-0.99
-1.07
-1.20
-1.36
-1.50
-1.58
-1.58
-1.52
-1.41
-1.29
-1.15
-0.98
-0.75
-0.41
0.04
0.57
1.09
1.54
1.87
2.06
2.11
2.07
1.95
1.80
1.64
1.49
1.40
1.37
1.41
1.50
1.58
1.60
1.52
1.30
0.96
0.59
0.26
0.04
-0.03
-0.02
-0.01
-0.09
-0.29
-0.56
-0.81
-0.94
-0.94
-0.86
-0.81
-0.88
-1.09
-1.35
-1.53
-1.57
-1.47
-1.34
-1.34
-1.54
-1.91
-2.34
-2.70
-2.91
-3.02
-3.09
-3.20
-3.29
-3.29
-3.08
-2.63
-1.97
-1.22
-0.46
0.25
0.91
1.53
2.14
2.74
3.32
3.85
4.28
4.60
4.78
4.86
4.88
4.90
4.94
5.02
5.13
5.29
5.53
5.89
6.34
6.82
7.17
7.28
7.09
6.60
5.87
4.94
3.84
2.59
1.30
0.13
-0.73
-1.11
-0.97
-0.43
0.31
0.94
1.25
1.13
0.60
-0.18
-0.97
-1.54
-1.70
-1.44
-0.90
-0.35
-0.06
-0.23
-0.90
-1.87
-2.85
-3.57
-3.83
-3.66
-3.21
-2.71
-2.33
-2.13
-2.01
-1.82
-1.41
-0.67
0.44
1.82
3.20
4.12
4.00
2.43
-0.56
-4.28
-7.50
-8.87
-7.47
-3.21
3.08
9.98
16.06
20.30
22.32
22.32
20.75
18.12
14.80
11.03
6.99
2.93
-0.88
-4.12
-6.59
-8.18
-8.98
-9.19
-8.99
-8.51
-7.79
-6.81
-5.65
-4.46
-3.42
-2.61
-1.94
-1.15
-0.00
1.57
3.30
4.70
5.17
4.30
2.06
-1.28
-5.14
-8.96
-12.28
-14.84
-16.52
-17.35
-17.39
-16.78
-15.69
-14.29
-12.70
-10.96
-9.11
-7.21
-5.49
-4.27
-3.89
-4.50
-5.89
-7.57
-8.86
-9.15
-8.08
-5.66
-2.13
2.12
6.62
10.93
14.61
17.25
18.60
18.55
17.27
15.10
12.40
9.45
6.37
3.14
-0.29
-3.85
-7.32
-10.35
-12.53
-13.60
-13.45
-12.21
-10.21
-7.92
-5.85
-4.37
-3.67
-3.59
-3.74
-3.53
-2.41
-0.11
3.29
7.29
11.16
14.17
15.81
15.92
14.62
12.24
9.19
5.83
2.47
-0.64
-3.35
-5.55
-7.23
-8.44
-9.25
-9.76
-10.05
-10.17
-10.13
-9.88
-9.38
-8.61
-7.63
-6.61
-5.78
-5.30
-5.25
-5.55
-6.01
-6.43
-6.66
-6.60
-6.23
-5.55
-4.61
-3.52
-2.48
-1.67
-1.26
-1.27
-1.58
-2.01
-2.35
-2.46
-2.27
-1.75
-0.87
0.40
2.10
4.27
6.85
9.70
12.48
14.77
16.05
15.95
14.35
11.49
7.90
4.22
0.97
-1.53
-3.25
-4.30
-4.79
-4.83
-4.46
-3.79
-2.96
-2.20
-1.70
-1.55
-1.72
-2.06
-2.41
-2.65
-2.79
-2.86
-2.91
-2.88
-2.69
-2.21
-1.41
-0.34
0.80
1.78
2.41
2.63
2.48
2.13
1.78
1.65
1.90
2.55
3.51
4.55
5.40
5.87
5.93
5.72
5.50
5.55
6.00
6.84
7.85
8.69
9.04
8.66
7.48
5.59
3.22
0.69
-1.62
-3.37
-4.25
-4.09
-2.92
-1.04
1.09
2.93
4.08
4.36
3.84
2.72
1.31
-0.13
-1.39
-2.29
-2.73
-2.72
-2.38
-1.94
-1.58
-1.45
-1.54
-1.79
-2.12
-2.48
-2.84
-3.16
-3.38
-3.40
-3.17
-2.71
-2.08
-1.37
-0.64
0.10
0.81
1.43
1.84
1.94
1.69
1.18
0.54
-0.10
-0.67
-1.19
-1.70
-2.22
-2.70
-3.03
-3.09
-2.81
-2.21
-1.37
-0.41
0.55
1.39
2.04
2.47
2.69
2.75
2.75
2.75
2.82
2.96
3.09
3.18
3.15
3.02
2.81
2.61
2.44
2.36
2.37
2.46
2.58
2.69
2.68
2.51
2.12
1.52
0.78
-0.01
-0.77
-1.45
-1.99
-2.37
-2.54
-2.49
-2.24
-1.83
-1.37
-0.97
-0.70
-0.62
-0.69
-0.87
-1.05
-1.16
-1.12
-0.91
-0.59
-0.27
-0.08
-0.13
-0.42
-0.85
-1.30
-1.71
-2.10
-2.55
-3.18
-3.98
-4.79
-5.37
-5.47
-4.94
-3.81
-2.30
-0.68
0.80
1.96
2.75
3.19
3.40
3.48
3.58
3.76
4.02
4.27
4.38
4.27
3.89
3.33
2.69
2.06
1.45
0.85
0.22
-0.42
-0.99
-1.41
-1.63
-1.68
-1.65
-1.61
-1.62
-1.65
-1.63
-1.49
-1.18
-0.70
-0.10
0.53
1.10
1.51
1.70
1.64
1.32
0.73
-0.06
-0.98
-1.90
-2.66
-3.16
-3.36
-3.29
-3.06
-2.74
-2.38
-1.97
-1.53
-1.07
-0.65
-0.30
-0.02
0.26
0.61
1.06
1.54
1.92
2.05
1.82
1.22
0.35
-0.64
-1.57
-2.33
-2.87
-3.19
-3.28
-3.16
-2.81
-2.23
-1.45
-0.57
0.25
0.87
1.19
1.22
1.10
1.07
1.30
1.89
2.73
3.61
4.26
4.55
4.49
4.24
3.99
3.89
3.93
4.03
4.09
4.06
3.93
3.71
3.39
2.93
2.31
1.55
0.72
-0.05
-0.66
-1.03
-1.13
-1.01
-0.76
-0.53
-0.42
-0.45
-0.55
-0.54
-0.28
0.28
1.04
1.78
2.26
2.33
2.03
1.50
0.94
0.48
0.16
-0.06
-0.21
-0.30
-0.26
-0.03
0.38
0.87
1.27
1.41
1.24
0.83
0.35
-0.04
-0.25
-0.38
-0.59
-1.03
-1.73
-2.54
-3.23
-3.61
-3.60
-3.29
-2.83
-2.35
-1.90
-1.46
-1.00
-0.52
-0.07
0.31
0.63
0.93
1.28
1.70
2.14
2.53
2.77
2.84
2.79
2.73
2.73
2.83
3.00
3.12
3.11
2.89
2.47
1.94
1.41
0.98
0.68
0.49
0.36
0.21
-0.01
-0.32
-0.69
-1.08
-1.42
-1.62
-1.65
-1.53
-1.34
-1.21
-1.22
-1.39
-1.65
-1.87
-1.96
-1.88
-1.69
-1.55
-1.59
-1.84
-2.20
-2.49
-2.50
-2.14
-1.50
-0.82
-0.35
-0.24
-0.46
-0.83
-1.11
-1.16
-1.01
-0.83
-0.79
-0.95
-1.23
-1.47
-1.53
-1.41
-1.21
-1.08
-1.13
-1.37
-1.72
-2.12
-2.53
-2.94
-3.32
-3.59
-3.64
-3.37
-2.78
-2.00
-1.25
-0.75
-0.60
-0.73
-0.98
-1.14
-1.08
-0.77
-0.28
0.26
0.73
1.09
1.31
1.43
1.49
1.55
1.62
1.69
1.70
1.56
1.24
0.76
0.18
-0.34
-0.68
-0.76
-0.57
-0.21
0.21
0.59
0.88
1.09
1.27
1.46
1.63
1.72
1.61
1.25
0.67
0.03
-0.48
-0.74
-0.74
-0.61
-0.53
-0.63
-0.93
-1.39
-1.91
-2.42
-2.86
-3.22
-3.47
-3.59
-3.53
-3.26
-2.75
-2.01
-1.12
-0.18
0.67
1.27
1.55
1.53
1.29
0.99
0.76
0.68
0.75
0.97
1.29
1.68
2.07
2.38
2.53
2.46
2.19
1.77
1.28
0.79
0.36
0.02
-0.20
-0.28
-0.26
-0.19
-0.18
-0.30
-0.53
-0.81
-1.04
-1.17
-1.17
-1.12
-1.07
-1.04
-1.02
-0.98
-0.88
-0.69
-0.40
0.02
0.54
1.14
1.74
2.26
2.68
2.97
3.17
3.27
3.27
3.12
2.80
2.35
1.88
1.51
1.30
1.25
1.26
1.18
0.89
0.36
-0.34
-1.07
-1.64
-1.96
-1.98
-1.78
-1.43
-1.02
-0.62
-0.23
0.11
0.37
0.51
0.54
0.47
0.36
0.27
0.24
0.26
0.31
0.34
0.32
0.21
-0.02
-0.33
-0.64
-0.83
-0.78
-0.47
0.08
0.73
1.30
1.64
1.64
1.33
0.82
0.27
-0.15
-0.32
-0.23
0.04
0.40
0.74
1.02
1.21
1.31
1.31
1.17
0.90
0.53
0.16
-0.14
-0.30
-0.33
-0.26
-0.21
-0.26
-0.45
-0.78
-1.17
-1.50
-1.66
-1.60
-1.39
-1.14
-0.99
-0.98
-1.08
-1.18
-1.18
-1.07
-0.89
-0.70
-0.52
-0.28
0.11
0.75
1.61
2.58
3.47
4.10
4.35
4.19
3.70
3.05
2.38
1.88
1.62
1.60
1.73
1.88
1.95
1.89
1.75
1.59
1.49
1.43
1.35
1.18
0.89
0.52
0.11
-0.25
-0.57
-0.87
-1.21
-1.61
-2.07
-2.52
-2.92
-3.23
-3.47
-3.61
-3.64
-3.57
-3.40
-3.24
-3.19
-3.34
-3.71
-4.18
-4.55
-4.63
-4.29
-3.52
-2.46
-1.31
-0.30
0.32
0.41
-0.10
-1.14
-2.53
-4.04
-5.46
-6.66
-7.61
-8.35
-8.91
-9.35
-9.67
-9.87
-9.93
-9.85
-9.65
-9.29
-8.74
-7.92
-6.80
-5.39
-3.79
-2.17
-0.71
0.43
1.19
1.59
1.72
1.67
1.49
1.22
0.91
0.65
0.58
0.88
1.61
2.74
4.12
5.53
6.70
7.44
7.64
7.29
6.56
5.73
5.10
4.91
5.25
5.98
6.85
7.56
7.92
7.84
7.42
6.78
6.03
5.26
4.54
3.91
3.46
3.25
3.32
3.59
3.91
4.11
4.07
3.78
3.35
2.96
2.80
2.97
3.46
4.12
4.79
5.33
5.78
6.40
7.60
9.80
13.17
17.41
21.80
25.39
27.37
27.36
25.53
22.43
18.71
14.85
11.13
7.62
4.40
1.51
-1.11
-3.74
-6.85
-10.79
-15.55
-20.47
-24.45
-26.39
-25.80
-23.05
-19.32
-16.12
-14.62
-15.24
-17.57
-20.70
-23.59
-25.53
-26.20
-25.64
-24.06
-21.68
-18.70
-15.29
-11.65
-8.13
-5.10
-2.97
-1.96
-2.03
-2.77
-3.53
-3.68
-2.85
-1.10
1.27
3.90
6.67
9.76
13.44
17.79
22.47
26.78
29.91
31.26
30.61
28.07
23.87
18.18
11.20
3.33
-4.70
-11.82
-16.94
-19.33
-18.88
-16.12
-12.00
-7.51
-3.40
-0.08
2.26
3.52
3.61
2.50
0.31
-2.63
-5.81
-8.67
-10.75
-11.82
-11.91
-11.25
-10.18
-9.03
-8.04
-7.27
-6.65
-6.02
-5.25
-4.28
-3.19
-2.13
-1.21
-0.49
0.07
0.56
1.04
1.50
1.89
2.21
2.46
2.71
2.98
3.26
3.44
3.43
3.24
2.97
2.82
2.91
3.27
3.75
4.12
4.23
4.07
3.78
3.54
3.45
3.42
3.28
2.86
2.12
1.24
0.45
-0.02
-0.10
0.15
0.54
0.91
1.19
1.36
1.49
1.59
1.66
1.61
1.40
1.04
0.65
0.39
0.40
0.72
1.27
1.88
2.41
2.76
2.93
3.00
3.01
3.00
2.91
2.71
2.40
2.04
1.73
1.53
1.46
1.48
1.55
1.61
1.62
1.54
1.38
1.15
0.88
0.64
0.45
0.33
0.24
0.12
-0.04
-0.23
-0.39
-0.45
-0.36
-0.15
0.12
0.37
0.51
0.50
0.34
0.02
-0.39
-0.82
-1.17
-1.31
-1.12
-0.58
0.22
1.13
1.92
2.37
2.37
1.94
1.22
0.44
-0.17
-0.50
-0.55
-0.48
-0.47
-0.67
-1.11
-1.69
-2.26
-2.63
-2.72
-2.55
-2.20
-1.80
-1.45
-1.21
-1.15
-1.28
-1.61
-2.03
-2.41
-2.54
-2.29
-1.66
-0.76
0.18
0.94
1.37
1.46
1.27
0.91
0.50
0.12
-0.17
-0.27
-0.14
0.24
0.81
1.43
1.98
2.40
2.68
2.91
3.12
3.32
3.45
3.42
3.17
2.67
1.98
1.20
0.51
0.02
-0.20
-0.15
0.04
0.20
0.15
-0.21
-0.86
-1.69
-2.52
-3.13
-3.35
-3.08
-2.36
-1.34
-0.31
0.45
0.70
0.39
-0.34
-1.23
-1.98
-2.39
-2.42
-2.17
-1.77
-1.34
-0.91
-0.45
0.06
0.60
1.13
1.60
1.99
2.30
2.59
2.91
3.26
3.58
3.81
3.88
3.79
3.57
3.29
3.02
2.79
2.56
2.26
1.81
1.20
0.48
-0.20
-0.68
-0.84
-0.64
-0.15
0.52
1.22
1.84
2.35
2.71
2.92
2.95
2.78
2.40
1.83
1.14
0.41
-0.28
-0.86
-1.28
-1.51
-1.53
-1.33
-0.96
-0.52
-0.13
0.07
-0.01
-0.40
-1.04
-1.78
-2.44
-2.83
-2.88
-2.66
-2.32
-2.07
-2.03
-2.23
-2.58
-2.97
-3.33
-3.62
-3.86
-3.99
-3.95
-3.65
-3.04
-2.23
-1.38
-0.69
-0.25
-0.06
-0.04
-0.08
-0.13
-0.20
-0.32
-0.49
-0.68
-0.81
-0.84
-0.77
-0.66
-0.58
-0.59
-0.66
-0.78
-0.91
-1.02
-1.10
-1.12
-1.07
-0.94
-0.79
-0.71
-0.79
-1.04
-1.39
-1.71
-1.84
-1.74
-1.43
-1.06
-0.75
-0.56
-0.47
-0.36
-0.14
0.22
0.68
1.12
1.44
1.58
1.52
1.34
1.08
0.83
0.63
0.54
0.57
0.71
0.91
1.07
1.11
1.01
0.79
0.54
0.31
0.10
-0.18
-0.57
-1.05
-1.48
-1.68
-1.59
-1.29
-0.99
-0.92
-1.18
-1.65
-2.07
-2.22
-1.98
-1.45
-0.80
-0.19
0.32
0.79
1.28
1.81
2.35
2.82
3.16
3.35
3.39
3.32
3.14
2.88
2.55
2.18
1.83
1.52
1.26
1.06
0.91
0.79
0.71
0.69
0.76
0.91
1.15
1.41
1.61
1.70
1.66
1.52
1.35
1.22
1.13
1.06
0.96
0.81
0.63
0.46
0.33
0.27
0.30
0.48
0.83
1.36
1.97
2.54
2.92
3.05
2.95
2.72
2.44
2.15
1.85
1.51
1.16
0.84
0.63
0.55
0.57
0.59
0.50
0.23
-0.19
-0.66
-1.02
-1.13
-0.96
-0.61
-0.29
-0.24
-0.58
-1.25
-2.05
-2.70
-3.02
-2.98
-2.71
-2.39
-2.20
-2.25
-2.53
-2.95
-3.36
-3.63
-3.63
-3.35
-2.88
-2.35
-1.90
-1.60
-1.40
-1.26
-1.10
-0.93
-0.78
-0.67
-0.59
-0.45
-0.18
0.23
0.73
1.17
1.43
1.41
1.12
0.64
0.06
-0.50
-1.01
-1.43
-1.77
-2.00
-2.13
-2.14
-2.07
-1.95
-1.84
-1.79
-1.82
-1.93
-2.11
-2.29
-2.39
-2.33
-2.04
-1.53
-0.84
-0.08
0.63
1.21
1.64
1.93
2.11
2.19
2.15
2.00
1.76
1.49
1.23
1.05
0.92
0.81
0.68
0.48
0.22
-0.08
-0.38
-0.64
-0.84
-0.93
-0.91
-0.78
-0.56
-0.35
-0.23
-0.27
-0.48
-0.79
-1.12
-1.39
-1.53
-1.53
-1.41
-1.19
-0.92
-0.61
-0.33
-0.11
-0.03
-0.07
-0.22
-0.41
-0.58
-0.68
-0.72
-0.68
-0.62
-0.57
-0.57
-0.65
-0.80
-0.96
-1.00
-0.83
-0.43
0.09
0.56
0.80
0.76
0.52
0.27
0.17
0.28
0.53
0.78
0.92
0.92
0.83
0.68
0.49
0.21
-0.22
-0.78
-1.36
-1.81
-1.97
-1.78
-1.27
-0.56
0.19
0.83
1.29
1.53
1.53
1.32
0.95
0.51
0.13
-0.02
0.12
0.53
1.07
1.54
1.78
1.73
1.45
1.06
0.69
0.41
0.28
0.28
0.40
0.62
0.87
1.06
1.14
1.05
0.83
0.55
0.28
0.03
-0.21
-0.51
-0.88
-1.30
-1.68
-1.94
-1.97
-1.72
-1.23
-0.55
0.16
0.75
1.11
1.16
0.92
0.49
0.03
-0.30
-0.40
-0.25
0.09
0.51
0.90
1.17
1.29
1.25
1.07
0.79
0.46
0.15
-0.11
-0.29
-0.43
-0.58
-0.78
-0.99
-1.14
-1.14
-0.95
-0.61
-0.23
0.09
0.24
0.18
-0.10
-0.56
-1.15
-1.73
-2.11
-2.15
-1.75
-1.00
-0.07
0.78
1.37
1.60
1.48
1.09
0.54
-0.07
-0.61
-0.96
-1.01
-0.72
-0.15
0.58
1.30
1.88
2.21
2.26
2.01
1.50
0.83
0.14
-0.43
-0.81
-0.98
-1.00
-0.98
-1.02
-1.14
-1.32
-1.53
-1.69
-1.78
-1.77
-1.65
-1.44
-1.13
-0.74
-0.30
0.14
0.55
0.88
1.11
1.24
1.30
1.36
1.43
1.51
1.54
1.51
1.40
1.32
1.38
1.65
2.14
2.74
3.30
3.72
3.94
4.04
4.07
4.07
4.00
3.79
3.43
2.96
2.55
2.31
2.27
2.37
2.44
2.35
2.08
1.70
1.30
0.91
0.52
0.07
-0.41
-0.81
-0.95
-0.74
-0.22
0.44
0.99
1.30
1.34
1.19
0.98
0.76
0.53
0.29
0.03
-0.15
-0.14
0.07
0.40
0.70
0.80
0.64
0.28
-0.17
-0.57
-0.83
-0.96
-0.99
-0.93
-0.80
-0.60
-0.35
-0.15
-0.09
-0.27
-0.70
-1.31
-1.95
-2.47
-2.71
-2.63
-2.26
-1.74
-1.19
-0.75
-0.46
-0.34
-0.33
-0.41
-0.58
-0.83
-1.14
-1.45
-1.70
-1.80
-1.75
-1.58
-1.33
-1.04
-0.72
-0.38
-0.04
0.22
0.33
0.21
-0.12
-0.58
-1.04
-1.37
-1.49
-1.43
-1.25
-1.10
-1.09
-1.28
-1.64
-2.08
-2.49
-2.74
-2.77
-2.58
-2.22
-1.76
-1.27
-0.77
-0.28
0.16
0.50
0.68
0.67
0.50
0.26
0.05
-0.05
-0.04
0.04
0.08
0.03
-0.09
-0.23
-0.31
-0.28
-0.16
-0.01
0.05
-0.04
-0.29
-0.68
-1.10
-1.47
-1.75
-1.92
-2.03
-2.09
-2.11
-2.05
-1.89
-1.63
-1.34
-1.05
-0.80
-0.59
-0.36
-0.10
0.23
0.58
0.90
1.13
1.21
1.16
1.01
0.83
0.68
0.61
0.62
0.67
0.72
0.77
0.81
0.82
0.81
0.73
0.56
0.29
-0.03
-0.36
-0.64
-0.85
-0.98
-1.07
-1.15
-1.24
-1.36
-1.50
-1.63
-1.67
-1.55
-1.24
-0.75
-0.19
0.34
0.72
0.89
0.87
0.71
0.53
0.44
0.47
0.63
0.85
1.05
1.19
1.26
1.27
1.24
1.15
0.99
0.73
0.38
0.01
-0.25
-0.30
-0.13
0.17
0.42
0.46
0.23
-0.19
-0.64
-0.96
-1.10
-1.09
-1.09
-1.21
-1.49
-1.84
-2.16
-2.34
-2.33
-2.12
-1.71
-1.08
-0.28
0.59
1.37
1.85
1.95
1.69
1.21
0.74
0.44
0.38
0.53
0.79
1.09
1.38
1.64
1.84
1.94
1.87
1.60
1.15
0.58
0.04
-0.37
-0.54
-0.46
-0.20
0.08
0.25
0.20
-0.05
-0.42
-0.74
-0.92
-0.94
-0.89
-0.91
-1.10
-1.48
-1.93
-2.30
-2.42
-2.23
-1.76
-1.11
-0.44
0.13
0.52
0.74
0.83
0.85
0.87
0.92
1.00
1.11
1.26
1.47
1.73
1.98
2.19
2.28
2.22
2.02
1.74
1.47
1.30
1.30
1.45
1.68
1.86
1.86
1.61
1.15
0.60
0.13
-0.14
-0.21
-0.18
-0.17
-0.28
-0.48
-0.71
-0.88
-1.00
-1.11
-1.32
-1.67
-2.11
-2.55
-2.86
-2.95
-2.82
-2.51
-2.07
-1.57
-1.03
-0.48
0.02
0.40
0.59
0.58
0.41
0.19
0.05
0.06
0.24
0.53
0.85
1.11
1.27
1.34
1.32
1.26
1.18
1.11
1.07
1.05
1.05
1.05
1.03
0.97
0.88
0.75
0.58
0.36
0.11
-0.12
-0.32
-0.43
-0.46
-0.42
-0.38
-0.38
-0.44
-0.60
-0.83
-1.15
-1.54
-1.99
-2.44
-2.83
-3.09
-3.15
-3.00
-2.65
-2.10
-1.36
-0.50
0.38
1.10
1.50
1.54
1.29
0.95
0.76
0.86
1.20
1.65
2.03
2.22
2.22
2.12
2.00
1.86
1.65
1.30
0.82
0.32
-0.05
-0.18
-0.05
0.25
0.56
0.74
0.74
0.60
0.39
0.19
0.01
-0.18
-0.37
-0.55
-0.66
-0.68
-0.61
-0.49
-0.38
-0.33
-0.38
-0.56
-0.91
-1.41
-2.00
-2.55
-2.89
-2.88
-2.46
-1.69
-0.70
0.31
1.14
1.65
1.79
1.61
1.23
0.86
0.66
0.75
1.12
1.66
2.18
2.55
2.69
2.60
2.33
1.93
1.43
0.89
0.37
-0.04
-0.28
-0.34
-0.27
-0.16
-0.09
-0.09
-0.16
-0.27
-0.39
-0.53
-0.68
-0.82
-0.90
-0.90
-0.85
-0.82
-0.88
-1.06
-1.34
-1.61
-1.81
-1.90
-1.89
-1.82
-1.73
-1.63
-1.50
-1.32
-1.05
-0.68
-0.26
0.14
0.42
0.49
0.32
-0.03
-0.42
-0.72
-0.86
-0.84
-0.75
-0.68
-0.68
-0.77
-0.93
-1.14
-1.41
-1.73
-2.06
-2.39
-2.66
-2.91
-3.20
-3.59
-4.10
-4.69
-5.33
-5.99
-6.69
-7.50
-8.43
-9.43
-10.40
-11.22
-11.83
-12.27
-12.59
-12.89
-13.23
-13.69
-14.32
-15.08
-15.84
-16.29
-16.02
-14.67
-12.08
-8.37
-3.94
0.68
5.02
8.77
11.78
14.01
15.49
16.26
16.44
16.20
15.76
15.31
14.95
14.67
14.40
14.08
13.68
13.21
12.71
12.20
11.71
11.26
10.85
10.47
10.11
9.72
9.27
8.73
8.13
7.54
7.03
6.69
6.57
6.68
6.97
7.37
7.79
8.20
8.61
9.05
9.52
9.98
10.31
10.46
10.44
10.39
10.50
10.92
11.66
12.56
13.39
13.93
14.07
13.77
13.03
11.80
9.97
7.46
4.31
0.73
-2.99
-6.55
-9.79
-12.68
-15.30
-17.70
-19.80
-21.39
-22.16
-21.86
-20.44
-18.10
-15.32
-12.69
-10.69
-9.55
-9.13
-9.03
-8.84
-8.25
-7.25
-6.06
-4.95
-4.15
-3.75
-3.65
-3.72
-3.83
-3.92
-3.99
-4.04
-4.11
-4.15
-4.09
-3.84
-3.30
-2.45
-1.38
-0.27
0.69
1.35
1.65
1.69
1.62
1.57
1.60
1.67
1.71
1.68
1.57
1.44
1.35
1.33
1.38
1.47
1.56
1.58
1.46
1.17
0.71
0.18
-0.24
-0.35
-0.08
0.46
1.04
1.37
1.29
0.81
0.15
-0.47
-0.85
-1.01
-1.05
-1.10
-1.26
-1.52
-1.79
-1.98
-2.05
-2.00
-1.91
-1.81
-1.74
-1.62
-1.39
-0.98
-0.43
0.16
0.61
0.79
0.65
0.29
-0.11
-0.39
-0.45
-0.34
-0.15
0.04
0.21
0.42
0.70
1.05
1.37
1.51
1.36
0.94
0.39
-0.08
-0.30
-0.25
-0.05
0.10
0.05
-0.23
-0.60
-0.88
-0.94
-0.80
-0.63
-0.63
-0.91
-1.44
-2.02
-2.48
-2.71
-2.73
-2.63
-2.47
-2.23
-1.85
-1.25
-0.44
0.44
1.20
1.67
1.78
1.57
1.17
0.70
0.26
-0.09
-0.33
-0.40
-0.27
0.09
0.60
1.13
1.48
1.56
1.33
0.90
0.43
0.04
-0.22
-0.36
-0.40
-0.35
-0.21
0.00
0.25
0.45
0.52
0.42
0.16
-0.18
-0.55
-0.91
-1.29
-1.69
-2.12
-2.54
-2.88
-3.01
-2.84
-2.32
-1.49
-0.47
0.55
1.35
1.79
1.87
1.66
1.29
0.90
0.54
0.23
-0.01
-0.16
-0.15
0.05
0.43
0.87
1.21
1.28
1.01
0.48
-0.11
-0.53
-0.62
-0.39
0.04
0.46
0.69
0.62
0.29
-0.20
-0.75
-1.23
-1.60
-1.81
-1.88
-1.84
-1.78
-1.77
-1.89
-2.17
-2.55
-2.88
-3.02
-2.80
-2.17
-1.16
0.08
1.31
2.30
2.85
2.89
2.50
1.87
1.21
0.72
0.50
0.59
0.96
1.52
2.16
2.77
3.23
3.43
3.31
2.87
2.19
1.41
0.70
0.20
-0.04
-0.12
-0.19
-0.46
-0.99
-1.70
-2.42
-2.92
-3.10
-2.97
-2.66
-2.34
-2.05
-1.78
-1.47
-1.07
-0.59
-0.07
0.44
0.92
1.36
1.76
2.07
2.25
2.24
2.04
1.72
1.36
1.08
0.95
0.97
1.10
1.25
1.36
1.43
1.49
1.60
1.78
2.00
2.17
2.22
2.09
1.83
1.52
1.27
1.15
1.14
1.20
1.22
1.15
0.97
0.70
0.37
-0.01
-0.42
-0.87
-1.36
-1.82
-2.17
-2.32
-2.19
-1.76
-1.11
-0.37
0.31
0.81
1.12
1.29
1.41
1.53
1.63
1.68
1.65
1.61
1.67
1.92
2.36
2.88
3.34
3.62
3.69
3.67
3.62
3.62
3.60
3.52
3.29
2.94
2.51
2.08
1.66
1.23
0.76
0.24
-0.25
-0.64
-0.86
-0.92
-0.91
-0.93
-1.08
-1.37
-1.74
-2.03
-2.10
-1.89
-1.38
-0.68
0.08
0.77
1.26
1.48
1.41
1.07
0.53
-0.10
-0.69
-1.11
-1.26
-1.12
-0.77
-0.31
0.09
0.31
0.29
0.04
-0.37
-0.83
-1.21
-1.44
-1.47
-1.32
-1.05
-0.73
-0.44
-0.26
-0.20
-0.25
-0.39
-0.61
-0.91
-1.29
-1.72
-2.12
-2.38
-2.43
-2.25
-1.88
-1.39
-0.85
-0.28
0.33
0.97
1.58
2.07
2.37
2.43
2.29
1.97
1.51
0.96
0.36
-0.18
-0.54
-0.60
-0.36
0.09
0.60
0.96
1.06
0.88
0.51
0.06
-0.36
-0.71
-1.00
-1.20
-1.31
-1.34
-1.29
-1.20
-1.13
-1.17
-1.37
-1.75
-2.22
-2.65
-2.87
-2.77
-2.31
-1.51
-0.51
0.52
1.40
1.98
2.22
2.16
1.88
1.48
1.02
0.53
0.07
-0.29
-0.46
-0.40
-0.16
0.15
0.39
0.45
0.35
0.20
0.15
0.27
0.50
0.73
0.78
0.59
0.20
-0.28
-0.69
-0.95
-1.07
-1.12
-1.19
-1.37
-1.65
-1.97
-2.26
-2.44
-2.45
-2.26
-1.89
-1.37
-0.80
-0.25
0.21
0.54
0.74
0.84
0.85
0.79
0.67
0.55
0.48
0.49
0.58
0.65
0.62
0.43
0.12
-0.19
-0.38
-0.37
-0.20
0.03
0.20
0.23
0.11
-0.05
-0.18
-0.18
-0.05
0.13
0.27
0.25
0.01
-0.44
-1.05
-1.71
-2.30
-2.73
-2.93
-2.88
-2.58
-2.06
-1.38
-0.61
0.15
0.79
1.24
1.47
1.52
1.46
1.37
1.30
1.24
1.15
0.97
0.71
0.42
0.18
0.08
0.19
0.45
0.76
0.98
1.00
0.81
0.49
0.16
-0.05
-0.09
0.01
0.15
0.26
0.29
0.26
0.23
0.22
0.21
0.19
0.11
-0.04
-0.22
-0.42
-0.64
-0.90
-1.20
-1.49
-1.63
-1.51
-1.06
-0.32
0.53
1.31
1.86
2.14
2.21
2.14
1.98
1.73
1.37
0.94
0.51
0.18
0.04
0.11
0.38
0.78
1.22
1.60
1.82
1.80
1.51
1.02
0.46
-0.03
-0.34
-0.47
-0.46
-0.37
-0.29
-0.25
-0.25
-0.31
-0.44
-0.64
-0.90
-1.21
-1.53
-1.83
-2.09
-2.27
-2.36
-2.34
-2.20
-1.93
-1.54
-1.04
-0.48
0.09
0.59
0.98
1.26
1.46
1.62
1.73
1.76
1.69
1.51
1.26
1.00
0.80
0.66
0.55
0.44
0.30
0.13
-0.07
-0.25
-0.40
-0.49
-0.52
-0.45
-0.27
-0.02
0.24
0.45
0.54
0.53
0.44
0.32
0.21
0.10
-0.07
-0.30
-0.61
-0.92
-1.22
-1.51
-1.82
-2.20
-2.61
-2.93
-2.98
-2.60
-1.80
-0.76
0.24
0.93
1.15
0.97
0.55
0.12
-0.19
-0.36
-0.45
-0.51
-0.57
-0.57
-0.48
-0.29
-0.05
0.14
0.20
0.14
-0.01
-0.15
-0.24
-0.30
-0.36
-0.49
-0.69
-0.90
-1.06
-1.14
-1.13
-1.09
-1.07
-1.07
-1.07
-1.00
-0.85
-0.65
-0.49
-0.45
-0.56
-0.78
-1.01
-1.13
-1.03
-0.68
-0.11
0.59
1.30
1.92
2.34
2.54
2.49
2.24
1.82
1.33
0.86
0.51
0.36
0.43
0.67
0.99
1.28
1.48
1.56
1.55
1.46
1.31
1.10
0.84
0.53
0.26
0.08
0.03
0.12
0.25
0.34
0.32
0.19
0.03
-0.07
-0.03
0.14
0.40
0.66
0.87
1.00
1.09
1.19
1.32
1.48
1.65
1.79
1.86
1.84
1.69
1.42
1.04
0.59
0.10
-0.37
-0.80
-1.14
-1.37
-1.45
-1.35
-1.11
-0.77
-0.40
-0.07
0.17
0.32
0.39
0.40
0.39
0.37
0.34
0.29
0.22
0.14
0.07
0.01
-0.06
-0.20
-0.48
-0.89
-1.40
-1.90
-2.28
-2.45
-2.44
-2.31
-2.13
-1.96
-1.79
-1.59
-1.30
-0.95
-0.59
-0.29
-0.12
-0.05
-0.05
-0.04
0.01
0.09
0.18
0.24
0.26
0.26
0.28
0.33
0.41
0.49
0.52
0.50
0.44
0.38
0.33
0.32
0.31
0.27
0.14
-0.13
-0.51
-0.89
-1.15
-1.18
-1.00
-0.74
-0.57
-0.65
-0.99
-1.48
-1.95
-2.22
-2.23
-1.99
-1.55
-0.97
-0.31
0.35
0.93
1.32
1.48
1.43
1.28
1.14
1.10
1.14
1.22
1.27
1.25
1.13
0.92
0.64
0.33
0.03
-0.20
-0.34
-0.39
-0.38
-0.37
-0.40
-0.51
-0.67
-0.83
-0.97
-1.05
-1.05
-0.97
-0.83
-0.67
-0.58
-0.60
-0.76
-1.06
-1.45
-1.86
-2.21
-2.42
-2.40
-2.08
-1.44
-0.53
0.56
1.64
2.54
3.13
3.36
3.27
2.95
2.51
2.05
1.64
1.33
1.15
1.11
1.17
1.29
1.47
1.67
1.93
2.21
2.45
2.54
2.42
2.07
1.57
1.07
0.70
0.53
0.51
0.55
0.52
0.35
0.04
-0.37
-0.79
-1.17
-1.45
-1.64
-1.79
-1.94
-2.15
-2.40
-2.63
-2.76
-2.75
-2.61
-2.44
-2.30
-2.24
-2.22
-2.16
-1.97
-1.65
-1.28
-0.99
-0.89
-0.99
-1.19
-1.32
-1.24
-0.89
-0.33
0.30
0.82
1.11
1.10
0.83
0.40
-0.01
-0.26
-0.24
0.04
0.48
0.93
1.27
1.44
1.43
1.26
0.90
0.36
-0.35
-1.11
-1.76
-2.16
-2.27
-2.18
-2.02
-1.92
-1.92
-1.95
-1.90
-1.70
-1.35
-0.89
-0.40
0.05
0.45
0.76
0.95
0.94
0.71
0.27
-0.24
-0.66
-0.78
-0.54
0.00
0.68
1.25
1.58
1.63
1.49
1.26
1.03
0.82
0.65
0.57
0.63
0.85
1.15
1.43
1.55
1.47
1.25
0.98
0.79
0.68
0.62
0.55
0.46
0.36
0.29
0.24
0.18
0.09
0.00
-0.01
0.14
0.49
0.99
1.52
1.95
2.17
2.14
1.89
1.47
0.96
0.48
0.11
-0.07
-0.04
0.16
0.43
0.64
0.70
0.56
0.26
-0.15
-0.56
-0.91
-1.12
-1.17
-1.05
-0.76
-0.36
0.10
0.55
0.92
1.14
1.16
0.94
0.50
-0.13
-0.84
-1.47
-1.89
-1.96
-1.67
-1.11
-0.46
0.08
0.37
0.39
0.23
0.03
-0.08
-0.08
-0.00
0.06
0.06
0.03
0.02
0.09
0.25
0.43
0.53
0.49
0.35
0.17
0.10
0.18
0.38
0.60
0.75
0.77
0.73
0.71
0.76
0.87
0.93
0.87
0.66
0.33
-0.01
-0.31
-0.55
-0.78
-1.03
-1.29
-1.49
-1.57
-1.48
-1.23
-0.83
-0.34
0.22
0.78
1.26
1.57
1.65
1.51
1.21
0.84
0.49
0.22
0.07
0.06
0.22
0.55
0.98
1.39
1.66
1.73
1.60
1.34
1.02
0.69
0.37
0.10
-0.06
-0.06
0.13
0.42
0.66
0.72
0.56
0.24
-0.14
-0.47
-0.75
-1.05
-1.46
-1.96
-2.45
-2.76
-2.72
-2.28
-1.50
-0.59
0.23
0.78
0.96
0.79
0.38
-0.11
-0.54
-0.79
-0.84
-0.70
-0.42
-0.07
0.32
0.69
0.97
1.10
1.03
0.74
0.29
-0.17
-0.49
-0.55
-0.37
-0.08
0.12
0.09
-0.16
-0.54
-0.89
-1.07
-1.06
-0.92
-0.74
-0.60
-0.57
-0.66
-0.89
-1.23
-1.59
-1.83
-1.81
-1.46
-0.82
-0.05
0.64
1.10
1.24
1.06
0.63
0.05
-0.55
-1.04
-1.30
-1.30
-1.09
-0.85
-0.72
-0.79
-1.00
-1.24
-1.39
-1.40
-1.35
-1.33
-1.40
-1.56
-1.72
-1.81
-1.84
-1.88
-2.04
-2.37
-2.88
-3.48
-4.05
-4.51
-4.83
-5.04
-5.19
-5.28
-5.24
-4.94
-4.25
-3.12
-1.62
0.05
1.65
2.93
3.77
4.18
4.28
4.22
4.14
4.12
4.16
4.26
4.42
4.61
4.81
4.95
4.95
4.76
4.38
3.88
3.35
2.88
2.49
2.12
1.70
1.23
0.73
0.31
0.06
0.02
0.12
0.23
0.21
-0.02
-0.46
-0.98
-1.46
-1.80
-1.95
-1.97
-1.89
-1.68
-1.30
-0.71
0.09
0.94
1.66
2.07
2.14
1.93
1.62
1.38
1.27
1.29
1.39
1.53
1.66
1.76
1.81
1.78
1.67
1.49
1.26
1.01
0.74
0.45
0.14
-0.18
-0.46
-0.69
-0.85
-0.95
-1.00
-0.99
-0.90
-0.74
-0.55
-0.36
-0.21
-0.11
-0.03
0.05
0.10
0.11
0.06
-0.05
-0.15
-0.13
0.06
0.44
0.93
1.40
1.76
1.94
1.95
1.84
1.65
1.44
1.20
0.96
0.74
0.58
0.51
0.55
0.66
0.80
0.89
0.86
0.67
0.29
-0.24
-0.85
-1.41
-1.84
-2.05
-2.06
-1.89
-1.63
-1.32
-1.01
-0.76
-0.61
-0.62
-0.80
-1.07
-1.34
-1.50
-1.47
-1.28
-1.00
-0.72
-0.52
-0.39
-0.29
-0.16
0.04
0.33
0.67
0.97
1.15
1.17
1.01
0.72
0.42
0.21
0.16
0.26
0.41
0.48
0.41
0.20
-0.02
-0.08
0.07
0.40
0.71
0.77
0.49
-0.09
-0.74
-1.23
-1.40
-1.29
-1.07
-0.96
-1.06
-1.35
-1.68
-1.87
-1.82
-1.54
-1.14
-0.77
-0.52
-0.41
-0.35
-0.24
-0.03
0.24
0.47
0.59
0.57
0.51
0.50
0.63
0.85
1.06
1.14
1.03
0.74
0.36
0.01
-0.24
-0.38
-0.42
-0.44
-0.47
-0.56
-0.68
-0.79
-0.83
-0.78
-0.65
-0.51
-0.43
-0.44
-0.59
-0.84
-1.18
-1.58
-1.98
-2.28
-2.38
-2.19
-1.70
-1.01
-0.26
0.39
0.84
1.07
1.13
1.09
0.99
0.85
0.73
0.66
0.70
0.86
1.09
1.28
1.34
1.27
1.13
1.02
1.03
1.16
1.34
1.49
1.56
1.56
1.52
1.46
1.35
1.15
0.82
0.36
-0.14
-0.60
-0.91
-1.03
-0.99
-0.87
-0.82
-0.92
-1.15
-1.39
-1.43
-1.14
-0.51
0.31
1.07
1.58
1.80
1.83
1.80
1.82
1.83
1.74
1.46
1.03
0.60
0.35
0.40
0.72
1.16
1.52
1.71
1.70
1.59
1.47
1.38
1.31
1.23
1.11
0.98
0.87
0.83
0.82
0.82
0.77
0.63
0.42
0.13
-0.18
-0.50
-0.78
-0.94
-0.95
-0.78
-0.48
-0.14
0.16
0.36
0.43
0.39
0.26
0.06
-0.19
-0.50
-0.88
-1.31
-1.78
-2.22
-2.57
-2.76
-2.73
-2.45
-2.00
-1.48
-1.06
-0.86
-0.94
-1.27
-1.72
-2.06
-2.07
-1.64
-0.82
0.17
1.04
1.52
1.51
1.09
0.47
-0.13
-0.63
-1.06
-1.53
-2.13
-2.82
-3.48
-3.89
-3.92
-3.50
-2.66
-1.47
-0.01
1.59
3.12
4.23
4.54
3.84
2.25
0.31
-1.24
-1.73
-0.91
0.92
3.02
4.56
5.00
4.34
3.05
1.79
1.12
1.22
1.95
2.98
4.04
5.02
5.91
6.73
7.35
7.57
7.11
5.85
3.80
1.20
-1.62
-4.33
-6.63
-8.31
-9.27
-9.44
-8.88
-7.71
-6.08
-4.14
-2.09
-0.09
1.61
2.72
2.96
2.10
0.12
-2.77
-6.12
-9.34
-11.77
-12.92
-12.60
-10.97
-8.47
-5.68
-3.09
-0.95
0.76
2.23
3.61
4.94
6.11
6.94
7.36
7.46
7.49
7.75
8.39
9.30
10.07
10.12
8.91
6.14
1.90
-3.38
-9.14
-14.86
-20.18
-24.87
-28.76
-31.61
-33.15
-33.15
-31.54
-28.47
-24.27
-19.37
-14.21
-9.13
-4.39
-0.21
3.31
6.07
8.10
9.44
10.21
10.49
10.36
9.86
9.06
8.01
6.87
5.80
5.04
4.80
5.21
6.30
8.02
10.19
12.57
14.86
16.73
17.89
18.21
17.74
16.75
15.58
14.55
13.85
13.43
13.12
12.63
11.75
10.40
8.64
6.64
4.62
2.85
1.61
1.15
1.71
3.35
5.94
9.12
12.35
15.09
16.92
17.66
17.41
16.41
14.96
13.28
11.45
9.44
7.20
4.66
1.84
-1.15
-4.14
-6.94
-9.39
-11.46
-13.20
-14.74
-16.20
-17.60
-18.87
-19.87
-20.47
-20.59
-20.22
-19.39
-18.18
-16.62
-14.77
-12.72
-10.65
-8.79
-7.37
-6.49
-6.10
-5.98
-5.79
-5.27
-4.29
-2.96
-1.57
-0.43
0.24
0.34
-0.03
-0.69
-1.46
-2.14
-2.53
-2.42
-1.68
-0.33
1.40
3.02
4.03
4.12
3.30
1.98
0.69
-0.09
-0.16
0.40
1.31
2.25
2.97
3.37
3.40
3.13
2.63
2.04
1.46
1.01
0.68
0.43
0.17
-0.13
-0.47
-0.76
-1.00
-1.18
-1.39
-1.69
-2.05
-2.38
-2.50
-2.33
-1.87
-1.29
-0.80
-0.57
-0.64
-0.96
-1.43
-2.03
-2.79
-3.85
-5.29
-7.11
-9.21
-11.41
-13.48
-15.18
-16.36
-16.95
-16.99
-16.64
-16.07
-15.47
-14.91
-14.36
-13.68
-12.65
-11.06
-8.75
-5.74
-2.24
1.34
4.51
6.84
8.11
8.43
8.20
7.95
8.14
9.12
10.96
13.57
16.65
19.84
22.77
25.12
26.68
27.35
27.15
26.19
24.60
22.53
20.12
17.53
14.88
12.26
9.73
7.32
5.03
2.95
1.22
0.07
-0.29
0.28
1.73
3.79
6.06
8.08
9.49
10.09
9.91
9.10
7.91
6.57
5.28
4.09
2.95
1.69
0.09
-2.01
-4.65
-7.66
-10.74
-13.53
-15.75
-17.20
-17.83
-17.67
-16.73
-15.04
-12.65
-9.65
-6.21
-2.61
0.87
4.01
6.72
9.02
11.00
12.67
13.91
14.50
14.19
12.88
10.65
7.76
4.53
1.24
-1.81
-4.28
-5.81
-6.15
-5.32
-3.78
-2.33
-1.77
-2.55
-4.52
-7.01
-9.18
-10.36
-10.35
-9.35
-7.73
-5.87
-3.99
-2.28
-0.94
-0.26
-0.46
-1.59
-3.41
-5.44
-7.14
-8.03
-7.88
-6.66
-4.59
-2.07
0.39
2.29
3.25
3.19
2.38
1.36
0.70
0.78
1.58
2.81
4.02
4.84
5.07
4.66
3.58
1.77
-0.78
-3.91
-7.27
-10.30
-12.47
-13.40
-13.06
-11.73
-9.86
-7.90
-6.11
-4.53
-3.02
-1.37
0.59
2.85
5.20
7.30
8.82
9.57
9.55
9.00
8.21
7.43
6.74
6.09
5.35
4.40
3.26
2.05
0.96
0.15
-0.30
-0.45
-0.42
-0.36
-0.34
-0.34
-0.24
0.09
0.74
1.69
2.82
3.91
4.77
5.23
5.20
4.74
4.03
3.33
2.89
2.88
3.28
3.91
4.46
4.63
4.25
3.30
1.89
0.24
-1.46
-3.05
-4.44
-5.63
-6.62
-7.45
-8.10
-8.43
-8.23
-7.21
-5.23
-2.35
1.01
4.20
6.47
7.26
6.37
4.08
0.97
-2.25
-4.96
-6.84
-7.76
-7.81
-7.15
-5.95
-4.47
-3.00
-1.90
-1.44
-1.75
-2.73
-4.06
-5.30
-6.06
-6.10
-5.41
-4.19
-2.73
-1.37
-0.42
-0.05
-0.34
-1.16
-2.24
-3.19
-3.65
-3.41
-2.48
-1.11
0.35
1.55
2.28
2.48
2.23
1.66
0.90
0.06
-0.74
-1.37
-1.73
-1.74
-1.41
-0.81
-0.04
0.79
1.59
2.28
2.81
3.17
3.38
3.53
3.71
3.97
4.29
4.55
4.60
4.36
3.83
3.13
2.38
1.68
1.05
0.45
-0.15
-0.73
-1.19
-1.41
-1.27
-0.72
0.18
1.27
2.26
2.91
3.06
2.70
2.02
1.27
0.65
0.24
-0.06
-0.41
-0.93
-1.63
-2.42
-3.18
-3.86
-4.44
-4.94
-5.35
-5.57
-5.53
-5.15
-4.48
-3.65
-2.86
-2.29
-2.01
-1.97
-1.99
-1.92
-1.65
-1.17
-0.60
-0.03
0.46
0.91
1.40
2.00
2.73
3.51
4.23
4.81
5.20
5.40
5.40
5.19
4.69
3.88
2.81
1.63
0.53
-0.30
-0.77
-0.84
-0.59
-0.07
0.61
1.35
2.05
2.59
2.88
2.92
2.79
2.60
2.45
2.36
2.24
2.00
1.55
0.93
0.24
-0.43
-1.03
-1.59
-2.19
-2.83
-3.47
-3.94
-4.13
-3.95
-3.48
-2.84
-2.18
-1.59
-1.08
-0.63
-0.19
0.24
0.61
0.88
1.01
1.05
1.03
1.01
0.98
0.90
0.70
0.29
-0.32
-1.07
-1.81
-2.41
-2.76
-2.88
-2.84
-2.71
-2.58
-2.45
-2.28
-2.00
-1.60
-1.09
-0.55
-0.04
0.38
0.72
0.99
1.19
1.33
1.35
1.23
0.94
0.52
0.06
-0.30
-0.46
-0.37
-0.05
0.40
0.85
1.21
1.40
1.43
1.31
1.05
0.70
0.28
-0.12
-0.41
-0.50
-0.34
0.04
0.50
0.95
1.31
1.58
1.81
2.04
2.26
2.39
2.32
2.01
1.46
0.75
0.02
-0.61
-1.04
-1.25
-1.25
-1.11
-0.89
-0.66
-0.48
-0.39
-0.40
-0.49
-0.59
-0.63
-0.54
-0.32
0.01
0.36
0.69
0.95
1.12
1.20
1.20
1.11
0.91
0.63
0.30
-0.03
-0.32
-0.57
-0.76
-0.91
-1.02
-1.07
-1.05
-0.96
-0.80
-0.55
-0.25
0.06
0.29
0.35
0.17
-0.22
-0.74
-1.22
-1.53
-1.57
-1.37
-1.03
-0.70
-0.50
-0.50
-0.69
-0.98
-1.25
-1.35
-1.22
-0.86
-0.37
0.14
0.57
0.85
1.04
1.21
1.40
1.59
1.71
1.65
1.34
0.84
0.26
-0.24
-0.52
-0.56
-0.44
-0.27
-0.17
-0.20
-0.35
-0.60
-0.89
-1.16
-1.39
-1.52
-1.51
-1.30
-0.93
-0.48
-0.08
0.17
0.24
0.21
0.18
0.17
0.14
-0.01
-0.30
-0.65
-0.90
-0.87
-0.51
0.09
0.72
1.17
1.35
1.34
1.24
1.17
1.15
1.15
1.11
1.05
0.97
0.93
0.90
0.85
0.73
0.54
0.31
0.08
-0.08
-0.17
-0.18
-0.14
-0.09
-0.04
0.02
0.10
0.21
0.31
0.31
0.15
-0.20
-0.69
-1.19
-1.55
-1.67
-1.57
-1.34
-1.14
-1.04
-1.06
-1.10
-1.06
-0.84
-0.42
0.17
0.84
1.45
1.87
2.02
1.86
1.49
1.06
0.72
0.57
0.59
0.68
0.77
0.78
0.76
0.74
0.70
0.59
0.34
-0.08
-0.57
-0.95
-1.09
-0.94
-0.59
-0.26
-0.13
-0.26
-0.61
-1.00
-1.25
-1.30
-1.15
-0.93
-0.78
-0.80
-0.95
-1.14
-1.22
-1.09
-0.76
-0.34
0.05
0.29
0.41
0.50
0.69
0.99
1.35
1.66
1.80
1.73
1.47
1.09
0.68
0.30
0.02
-0.12
-0.05
0.21
0.63
1.06
1.39
1.51
1.40
1.09
0.64
0.13
-0.37
-0.79
-1.05
-1.10
-0.96
-0.71
-0.46
-0.33
-0.38
-0.62
-0.97
-1.34
-1.58
-1.60
-1.35
-0.85
-0.20
0.46
0.99
1.34
1.50
1.52
1.45
1.29
1.03
0.65
0.18
-0.32
-0.74
-0.98
-1.00
-0.83
-0.56
-0.31
-0.15
-0.10
-0.14
-0.19
-0.24
-0.27
-0.35
-0.46
-0.62
-0.76
-0.81
-0.77
-0.65
-0.55
-0.52
-0.60
-0.76
-0.95
-1.10
-1.21
-1.29
-1.41
-1.57
-1.74
-1.85
-1.82
-1.60
-1.21
-0.69
-0.11
0.45
0.97
1.44
1.83
2.13
2.29
2.26
2.05
1.67
1.21
0.76
0.40
0.18
0.10
0.12
0.19
0.25
0.28
0.29
0.29
0.28
0.24
0.14
-0.04
-0.31
-0.61
-0.91
-1.17
-1.37
-1.51
-1.56
-1.47
-1.19
-0.72
-0.11
0.53
1.07
1.42
1.54
1.44
1.18
0.85
0.51
0.25
0.15
0.23
0.50
0.88
1.29
1.59
1.68
1.50
1.07
0.53
0.03
-0.31
-0.42
-0.37
-0.26
-0.18
-0.16
-0.19
-0.22
-0.22
-0.23
-0.27
-0.37
-0.49
-0.61
-0.69
-0.75
-0.81
-0.88
-0.87
-0.72
-0.36
0.17
0.73
1.17
1.36
1.28
1.00
0.66
0.38
0.22
0.15
0.15
0.18
0.24
0.34
0.51
0.69
0.77
0.64
0.23
-0.38
-1.02
-1.49
-1.64
-1.48
-1.15
-0.84
-0.71
-0.81
-1.07
-1.35
-1.57
-1.67
-1.64
-1.50
-1.25
-0.91
-0.47
0.02
0.56
1.11
1.70
2.30
2.83
3.19
3.23
2.90
2.24
1.41
0.60
-0.04
-0.43
-0.61
-0.63
-0.57
-0.50
-0.44
-0.42
-0.45
-0.49
-0.47
-0.33
-0.05
0.31
0.61
0.70
0.49
0.05
-0.47
-0.88
-1.04
-0.95
-0.72
-0.49
-0.35
-0.31
-0.28
-0.18
0.04
0.36
0.71
0.99
1.15
1.19
1.12
0.96
0.72
0.38
-0.06
-0.47
-0.72
-0.66
-0.26
0.39
1.07
1.54
1.66
1.38
0.83
0.16
-0.47
-0.98
-1.33
-1.50
-1.52
-1.40
-1.21
-1.04
-0.94
-0.98
-1.15
-1.38
-1.56
-1.58
-1.34
-0.83
-0.15
0.54
1.07
1.30
1.19
0.78
0.23
-0.32
-0.72
-0.89
-0.86
-0.66
-0.41
-0.20
-0.11
-0.14
-0.26
-0.42
-0.55
-0.61
-0.58
-0.49
-0.37
-0.28
-0.26
-0.34
-0.54
-0.84
-1.20
-1.58
-1.89
-2.07
-2.04
-1.76
-1.23
-0.52
0.22
0.82
1.16
1.20
1.02
0.72
0.41
0.15
-0.04
-0.14
-0.16
-0.09
0.07
0.24
0.37
0.38
0.27
0.06
-0.18
-0.38
-0.52
-0.61
-0.71
-0.86
-1.03
-1.20
-1.31
-1.32
-1.28
-1.27
-1.37
-1.59
-1.83
-1.93
-1.76
-1.31
-0.66
0.02
0.62
1.08
1.42
1.67
1.80
1.78
1.56
1.18
0.76
0.40
0.19
0.14
0.19
0.27
0.32
0.35
0.37
0.40
0.47
0.53
0.54
0.44
0.18
-0.19
-0.60
-0.94
-1.09
-1.03
-0.77
-0.47
-0.27
-0.31
-0.64
-1.17
-1.71
-2.04
-1.94
-1.35
-0.34
0.85
1.93
2.70
3.06
3.09
2.94
2.72
2.50
2.24
1.90
1.48
1.06
0.75
0.61
0.66
0.80
0.92
0.95
0.87
0.71
0.54
0.36
0.18
-0.01
-0.19
-0.30
-0.31
-0.19
0.04
0.31
0.51
0.55
0.34
-0.12
-0.78
-1.45
-1.90
-1.89
-1.36
-0.41
0.70
1.67
2.30
2.55
2.53
2.35
2.07
1.66
1.12
0.52
0.02
-0.21
-0.09
0.30
0.74
1.03
1.05
0.84
0.53
0.26
0.12
0.08
0.07
0.00
-0.14
-0.33
-0.52
-0.68
-0.79
-0.83
-0.82
-0.79
-0.77
-0.85
-1.05
-1.34
-1.60
-1.68
-1.41
-0.76
0.16
1.13
1.91
2.35
2.45
2.33
2.11
1.86
1.59
1.28
0.95
0.64
0.44
0.37
0.42
0.52
0.61
0.64
0.62
0.57
0.45
0.20
-0.24
-0.83
-1.43
-1.82
-1.84
-1.46
-0.82
-0.21
0.12
0.03
-0.45
-1.10
-1.69
-2.06
-2.13
-1.93
-1.53
-1.02
-0.45
0.15
0.72
1.24
1.66
1.96
2.09
2.04
1.83
1.50
1.12
0.80
0.60
0.55
0.60
0.65
0.62
0.50
0.35
0.24
0.24
0.33
0.44
0.44
0.26
-0.09
-0.50
-0.85
-1.06
-1.11
-1.07
-1.00
-0.98
-1.06
-1.23
-1.46
-1.71
-1.93
-2.05
-2.03
-1.83
-1.47
-0.99
-0.42
0.20
0.87
1.55
2.18
2.63
2.81
2.66
2.24
1.69
1.18
0.84
0.71
0.76
0.92
1.10
1.24
1.28
1.18
0.91
0.53
0.15
-0.13
-0.22
-0.15
-0.02
0.02
-0.09
-0.32
-0.56
-0.74
-0.78
-0.74
-0.68
-0.69
-0.77
-0.92
-1.11
-1.33
-1.60
-1.92
-2.21
-2.34
-2.13
-1.50
-0.46
0.78
1.93
2.72
3.01
2.90
2.56
2.21
1.93
1.67
1.33
0.89
0.41
0.04
-0.08
0.06
0.36
0.64
0.77
0.72
0.55
0.38
0.29
0.30
0.35
0.40
0.39
0.31
0.15
-0.05
-0.24
-0.42
-0.61
-0.86
-1.21
-1.67
-2.19
-2.70
-3.13
-3.37
-3.35
-3.02
-2.36
-1.47
-0.49
0.39
1.05
1.44
1.59
1.57
1.44
1.24
1.00
0.76
0.58
0.50
0.51
0.60
0.74
0.91
1.08
1.20
1.19
0.98
0.60
0.12
-0.33
-0.65
-0.83
-0.95
-1.06
-1.18
-1.25
-1.21
-1.06
-0.86
-0.74
-0.81
-1.07
-1.44
-1.80
-2.03
-2.04
-1.79
-1.31
-0.63
0.16
0.95
1.63
2.14
2.45
2.54
2.42
2.10
1.59
0.94
0.24
-0.39
-0.84
-1.05
-1.01
-0.79
-0.45
-0.08
0.26
0.50
0.57
0.42
0.04
-0.50
-1.07
-1.52
-1.70
-1.55
-1.14
-0.62
-0.18
0.05
0.03
-0.23
-0.64
-1.14
-1.67
-2.14
-2.45
-2.48
-2.15
-1.46
-0.53
0.46
1.33
1.95
2.29
2.36
2.21
1.87
1.38
0.77
0.15
-0.34
-0.60
-0.53
-0.16
0.38
0.90
1.21
1.20
0.87
0.35
-0.19
-0.61
-0.86
-0.99
-1.07
-1.17
-1.27
-1.30
-1.20
-0.97
-0.67
-0.46
-0.45
-0.69
-1.08
-1.49
-1.76
-1.84
-1.73
-1.48
-1.14
-0.69
-0.09
0.68
1.55
2.40
3.02
3.24
2.97
2.23
1.20
0.10
-0.83
-1.40
-1.56
-1.32
-0.81
-0.17
0.45
0.91
1.14
1.08
0.78
0.31
-0.18
-0.55
-0.70
-0.64
-0.41
-0.13
0.09
0.17
0.10
-0.12
-0.43
-0.77
-1.07
-1.28
-1.38
-1.34
-1.12
-0.73
-0.15
0.56
1.28
1.89
2.26
2.30
2.03
1.53
0.94
0.37
-0.08
-0.38
-0.51
-0.51
-0.43
-0.32
-0.22
-0.14
-0.05
0.10
0.35
0.69
1.02
1.22
1.19
0.92
0.48
-0.02
-0.44
-0.70
-0.77
-0.66
-0.46
-0.25
-0.14
-0.21
-0.49
-0.91
-1.35
-1.63
-1.63
-1.32
-0.74
-0.01
0.72
1.35
1.78
1.96
1.85
1.48
0.90
0.21
-0.43
-0.91
-1.14
-1.09
-0.81
-0.39
0.09
0.51
0.79
0.90
0.83
0.64
0.43
0.28
0.21
0.20
0.20
0.17
0.09
0.01
-0.04
-0.07
-0.18
-0.46
-0.97
-1.62
-2.26
-2.63
-2.58
-2.06
-1.19
-0.21
0.67
1.31
1.69
1.84
1.83
1.70
1.45
1.09
0.61
0.10
-0.33
-0.55
-0.50
-0.22
0.18
0.53
0.73
0.75
0.64
0.50
0.37
0.28
0.20
0.13
0.08
0.09
0.21
0.39
0.56
0.60
0.48
0.20
-0.17
-0.57
-0.96
-1.31
-1.61
-1.82
-1.87
-1.75
-1.46
-1.07
-0.61
-0.10
0.45
1.04
1.59
2.01
2.21
2.17
1.93
1.62
1.35
1.15
0.97
0.73
0.42
0.09
-0.11
-0.09
0.17
0.50
0.70
0.62
0.24
-0.31
-0.80
-1.05
-0.99
-0.72
-0.40
-0.18
-0.10
-0.18
-0.34
-0.57
-0.84
-1.14
-1.43
-1.66
-1.75
-1.67
-1.39
-0.93
-0.32
0.38
1.08
1.67
2.04
2.13
1.99
1.74
1.52
1.41
1.43
1.49
1.48
1.34
1.11
0.87
0.67
0.54
0.42
0.21
-0.10
-0.48
-0.79
-0.90
-0.74
-0.36
0.11
0.50
0.70
0.69
0.51
0.22
-0.15
-0.60
-1.14
-1.75
-2.35
-2.80
-2.99
-2.84
-2.37
-1.68
-0.90
-0.19
0.34
0.62
0.64
0.47
0.18
-0.14
-0.43
-0.69
-0.90
-1.03
-1.05
-0.90
-0.59
-0.18
0.19
0.42
0.46
0.35
0.19
0.08
0.03
-0.01
-0.12
-0.34
-0.64
-0.96
-1.21
-1.37
-1.41
-1.36
-1.25
-1.13
-1.08
-1.13
-1.28
-1.45
-1.49
-1.29
-0.75
0.05
0.97
1.82
2.39
2.59
2.43
2.02
1.51
1.05
0.73
0.57
0.53
0.52
0.48
0.37
0.22
0.08
-0.02
-0.07
-0.09
-0.13
-0.18
-0.20
-0.20
-0.19
-0.26
-0.49
-0.92
-1.49
-2.08
-2.53
-2.71
-2.60
-2.26
-1.83
-1.42
-1.08
-0.80
-0.47
-0.03
0.56
1.22
1.82
2.18
2.18
1.81
1.18
0.47
-0.18
-0.62
-0.81
-0.72
-0.37
0.22
0.95
1.68
2.21
2.37
2.10
1.50
0.74
0.06
-0.41
-0.63
-0.69
-0.69
-0.70
-0.75
-0.83
-0.89
-0.95
-1.03
-1.12
-1.25
-1.34
-1.35
-1.20
-0.85
-0.31
0.35
1.06
1.73
2.28
2.66
2.82
2.76
2.47
2.00
1.44
0.92
0.56
0.41
0.46
0.64
0.84
0.97
0.97
0.87
0.72
0.58
0.49
0.40
0.27
0.05
-0.25
-0.57
-0.81
-0.88
-0.76
-0.51
-0.23
-0.05
-0.06
-0.27
-0.65
-1.09
-1.44
-1.60
-1.49
-1.12
-0.59
0.01
0.60
1.16
1.67
2.08
2.33
2.32
2.04
1.54
0.95
0.40
-0.00
-0.22
-0.27
-0.17
0.05
0.34
0.67
0.94
1.10
1.13
1.03
0.84
0.58
0.27
-0.04
-0.31
-0.46
-0.47
-0.34
-0.18
-0.07
-0.09
-0.27
-0.57
-0.92
-1.25
-1.51
-1.64
-1.61
-1.40
-1.02
-0.56
-0.09
0.29
0.59
0.84
1.06
1.26
1.40
1.38
1.17
0.79
0.38
0.05
-0.09
-0.05
0.07
0.15
0.09
-0.12
-0.46
-0.83
-1.18
-1.49
-1.75
-1.99
-2.17
-2.23
-2.15
-1.92
-1.59
-1.25
-1.02
-1.00
-1.21
-1.58
-1.96
-2.19
-2.13
-1.74
-1.08
-0.25
0.61
1.43
2.14
2.69
3.04
3.11
2.90
2.42
1.78
1.11
0.54
0.16
-0.01
0.03
0.23
0.51
0.78
0.93
0.90
0.70
0.42
0.17
0.03
0.01
0.06
0.08
-0.04
-0.30
-0.66
-1.06
-1.44
-1.82
-2.19
-2.56
-2.85
-2.90
-2.57
-1.83
-0.75
0.47
1.58
2.40
2.84
2.94
2.74
2.34
1.79
1.14
0.49
-0.03
-0.33
-0.38
-0.23
0.03
0.29
0.53
0.72
0.88
1.00
1.02
0.88
0.56
0.10
-0.39
-0.79
-1.01
-1.06
-1.00
-0.97
-1.06
-1.31
-1.67
-2.00
-2.20
-2.20
-2.01
-1.71
-1.39
-1.09
-0.80
-0.46
-0.03
0.49
1.05
1.57
1.95
2.13
2.09
1.84
1.42
0.93
0.48
0.18
0.12
0.33
0.76
1.25
1.64
1.78
1.61
1.17
0.58
-0.01
-0.47
-0.78
-0.98
-1.11
-1.22
-1.29
-1.28
-1.17
-1.01
-0.89
-0.91
-1.10
-1.44
-1.81
-2.09
-2.17
-1.99
-1.58
-0.97
-0.23
0.53
1.21
1.72
1.98
2.03
1.90
1.71
1.51
1.34
1.18
1.01
0.81
0.58
0.36
0.19
0.12
0.17
0.31
0.52
0.73
0.90
0.96
0.90
0.69
0.35
-0.09
-0.57
-1.00
-1.27
-1.30
-1.08
-0.71
-0.36
-0.22
-0.43
-0.97
-1.72
-2.45
-2.96
-3.07
-2.72
-1.97
-0.94
0.19
1.22
1.99
2.41
2.44
2.15
1.64
1.02
0.42
-0.05
-0.33
-0.36
-0.18
0.12
0.43
0.62
0.63
0.50
0.30
0.13
0.00
-0.11
-0.29
-0.56
-0.89
-1.16
-1.25
-1.13
-0.86
-0.62
-0.56
-0.76
-1.16
-1.63
-2.03
-2.26
-2.31
-2.19
-1.88
-1.37
-0.64
0.28
1.25
2.09
2.64
2.82
2.65
2.24
1.70
1.12
0.57
0.08
-0.30
-0.50
-0.44
-0.12
0.40
0.95
1.34
1.43
1.16
0.61
-0.06
-0.69
-1.14
-1.34
-1.32
-1.17
-0.96
-0.78
-0.70
-0.72
-0.82
-0.97
-1.09
-1.13
-1.08
-0.95
-0.73
-0.41
0.04
0.68
1.48
2.35
3.09
3.47
3.36
2.73
1.76
0.72
-0.13
-0.58
-0.59
-0.24
0.30
0.82
1.18
1.31
1.19
0.88
0.46
0.02
-0.38
-0.65
-0.73
-0.62
-0.41
-0.24
-0.24
-0.50
-0.95
-1.44
-1.82
-2.03
-2.11
-2.19
-2.33
-2.50
-2.56
-2.34
-1.77
-0.90
0.10
1.07
1.88
2.47
2.85
3.00
2.88
2.46
1.77
0.94
0.21
-0.22
-0.20
0.21
0.79
1.28
1.46
1.29
0.86
0.35
-0.09
-0.41
-0.61
-0.73
-0.82
-0.84
-0.78
-0.64
-0.45
-0.32
-0.33
-0.52
-0.83
-1.14
-1.30
-1.22
-0.94
-0.59
-0.31
-0.20
-0.19
-0.14
0.12
0.65
1.35
2.00
2.40
2.44
2.14
1.68
1.22
0.90
0.71
0.62
0.55
0.48
0.41
0.38
0.41
0.47
0.50
0.41
0.18
-0.17
-0.54
-0.82
-0.97
-1.03
-1.08
-1.18
-1.35
-1.50
-1.56
-1.48
-1.34
-1.27
-1.39
-1.73
-2.18
-2.53
-2.59
-2.23
-1.50
-0.54
0.42
1.18
1.62
1.71
1.51
1.11
0.65
0.23
-0.07
-0.19
-0.12
0.11
0.41
0.68
0.84
0.85
0.76
0.63
0.50
0.37
0.19
-0.07
-0.42
-0.82
-1.17
-1.39
-1.44
-1.33
-1.10
-0.88
-0.78
-0.85
-1.10
-1.43
-1.71
-1.80
-1.61
-1.14
-0.44
0.39
1.26
2.06
2.68
3.06
3.13
2.88
2.39
1.79
1.25
0.88
0.73
0.77
0.87
0.92
0.83
0.57
0.22
-0.14
-0.42
-0.53
-0.47
-0.26
0.00
0.23
0.34
0.29
0.12
-0.13
-0.41
-0.71
-1.05
-1.44
-1.84
-2.18
-2.32
-2.19
-1.77
-1.13
-0.40
0.30
0.85
1.24
1.46
1.54
1.53
1.43
1.27
1.06
0.82
0.60
0.47
0.48
0.60
0.78
0.95
1.01
0.96
0.79
0.56
0.28
-0.03
-0.38
-0.75
-1.07
-1.25
-1.24
-1.03
-0.73
-0.49
-0.43
-0.58
-0.86
-1.13
-1.27
-1.20
-0.99
-0.72
-0.46
-0.20
0.11
0.54
1.11
1.73
2.28
2.63
2.68
2.44
1.97
1.38
0.82
0.38
0.15
0.10
0.19
0.29
0.32
0.25
0.11
-0.01
-0.07
-0.08
-0.11
-0.26
-0.55
-0.92
-1.25
-1.38
-1.27
-0.97
-0.67
-0.54
-0.70
-1.08
-1.48
-1.68
-1.53
-1.05
-0.36
0.34
0.89
1.24
1.41
1.46
1.41
1.25
0.93
0.46
-0.08
-0.56
-0.84
-0.85
-0.62
-0.26
0.10
0.31
0.32
0.15
-0.14
-0.44
-0.68
-0.84
-0.94
-1.02
-1.10
-1.18
-1.24
-1.27
-1.28
-1.29
-1.36
-1.53
-1.78
-2.04
-2.21
-2.20
-1.95
-1.49
-0.87
-0.18
0.52
1.16
1.71
2.12
2.33
2.31
2.05
1.58
1.03
0.53
0.17
0.03
0.07
0.25
0.50
0.72
0.84
0.78
0.51
0.08
-0.44
-0.90
-1.19
-1.24
-1.06
-0.72
-0.36
-0.13
-0.13
-0.45
-1.04
-1.79
-2.52
-3.00
-3.09
-2.70
-1.89
-0.80
0.40
1.48
2.26
2.63
2.60
2.27
1.78
1.30
0.90
0.62
0.44
0.32
0.25
0.21
0.18
0.15
0.11
0.08
0.08
0.12
0.18
0.21
0.14
-0.02
-0.28
-0.58
-0.89
-1.16
-1.33
-1.34
-1.16
-0.85
-0.53
-0.36
-0.47
-0.81
-1.21
-1.43
-1.28
-0.73
0.10
1.00
1.77
2.27
2.44
2.31
1.94
1.38
0.74
0.11
-0.40
-0.68
-0.68
-0.39
0.11
0.66
1.11
1.31
1.24
0.97
0.62
0.31
0.08
-0.11
-0.31
-0.52
-0.66
-0.58
-0.22
0.33
0.85
1.04
0.74
-0.00
-0.88
-1.52
-1.60
-1.08
-0.16
0.82
1.55
1.91
1.98
1.91
1.85
1.79
1.65
1.33
0.83
0.25
-0.23
-0.47
-0.44
-0.22
0.06
0.27
0.38
0.41
0.45
0.53
0.63
0.71
0.69
0.54
0.29
-0.01
-0.30
-0.54
-0.77
-1.02
-1.31
-1.60
-1.82
-1.92
-1.89
-1.72
-1.42
-0.96
-0.34
0.44
1.24
1.89
2.23
2.18
1.79
1.22
0.63
0.16
-0.17
-0.36
-0.40
-0.30
-0.06
0.30
0.68
0.98
1.09
0.96
0.59
0.07
-0.50
-0.99
-1.32
-1.46
-1.45
-1.38
-1.36
-1.47
-1.68
-1.94
-2.13
-2.15
-1.99
-1.70
-1.38
-1.09
-0.81
-0.49
-0.06
0.48
1.06
1.54
1.80
1.79
1.57
1.24
0.92
0.67
0.49
0.38
0.34
0.37
0.48
0.61
0.68
0.61
0.37
0.03
-0.32
-0.57
-0.68
-0.66
-0.57
-0.48
-0.43
-0.44
-0.52
-0.67
-0.86
-1.06
-1.24
-1.34
-1.38
-1.39
-1.36
-1.27
-0.99
-0.44
0.41
1.43
2.37
3.00
3.17
2.93
2.48
2.04
1.74
1.58
1.43
1.22
0.90
0.58
0.34
0.23
0.19
0.13
-0.03
-0.29
-0.57
-0.74
-0.75
-0.58
-0.30
0.00
0.26
0.40
0.35
0.08
-0.41
-1.04
-1.68
-2.19
-2.45
-2.42
-2.12
-1.64
-1.02
-0.28
0.52
1.34
2.05
2.51
2.62
2.41
1.98
1.47
1.02
0.70
0.53
0.47
0.45
0.42
0.37
0.29
0.20
0.12
0.07
0.07
0.13
0.24
0.35
0.42
0.42
0.35
0.25
0.17
0.16
0.20
0.23
0.18
0.00
-0.28
-0.61
-0.89
-1.07
-1.16
-1.19
-1.14
-0.99
-0.65
-0.09
0.64
1.38
1.94
2.17
2.03
1.59
1.02
0.48
0.07
-0.22
-0.40
-0.55
-0.68
-0.79
-0.85
-0.85
-0.81
-0.74
-0.70
-0.69
-0.73
-0.76
-0.75
-0.64
-0.45
-0.23
-0.08
-0.07
-0.23
-0.52
-0.87
-1.24
-1.60
-1.94
-2.19
-2.28
-2.09
-1.57
-0.80
0.06
0.83
1.32
1.49
1.36
1.01
0.59
0.22
0.00
0.01
0.22
0.50
0.70
0.68
0.42
0.01
-0.39
-0.66
-0.79
-0.84
-0.88
-0.94
-0.96
-0.86
-0.61
-0.29
-0.04
0.01
-0.18
-0.54
-0.93
-1.23
-1.43
-1.58
-1.74
-1.95
-2.11
-2.06
-1.68
-0.93
0.08
1.13
1.99
2.51
2.63
2.46
2.15
1.83
1.60
1.47
1.40
1.34
1.26
1.15
1.03
0.92
0.83
0.75
0.62
0.40
0.08
-0.29
-0.63
-0.80
-0.77
-0.59
-0.40
-0.38
-0.61
-1.05
-1.55
-1.95
-2.19
-2.29
-2.32
-2.32
-2.27
-2.04
-1.52
-0.69
0.34
1.38
2.21
2.71
2.83
2.65
2.30
1.92
1.61
1.42
1.32
1.27
1.23
1.16
1.08
1.01
0.94
0.81
0.58
0.22
-0.23
-0.70
-1.08
-1.29
-1.30
-1.15
-0.91
-0.64
-0.42
-0.25
-0.15
-0.11
-0.15
-0.31
-0.59
-1.01
-1.49
-1.93
-2.19
-2.16
-1.80
-1.18
-0.41
0.41
1.17
1.81
2.26
2.47
2.40
2.04
1.48
0.84
0.30
0.01
0.05
0.34
0.74
1.05
1.15
1.03
0.74
0.43
0.18
0.02
-0.09
-0.19
-0.33
-0.47
-0.55
-0.54
-0.46
-0.39
-0.44
-0.64
-0.99
-1.41
-1.79
-2.01
-2.00
-1.77
-1.36
-0.84
-0.28
0.28
0.80
1.22
1.48
1.50
1.29
0.87
0.36
-0.11
-0.40
-0.46
-0.29
0.04
0.42
0.74
0.91
0.86
0.62
0.25
-0.12
-0.42
-0.58
-0.60
-0.53
-0.42
-0.34
-0.34
-0.47
-0.72
-1.02
-1.24
-1.29
-1.15
-0.88
-0.63
-0.52
-0.55
-0.59
-0.48
-0.07
0.65
1.48
2.20
2.59
2.54
2.11
1.50
0.92
0.57
0.50
0.66
0.96
1.26
1.49
1.67
1.83
2.01
2.22
2.43
2.57
2.58
2.39
1.97
1.30
0.40
-0.65
-1.68
-2.50
-2.98
-3.04
-2.79
-2.45
-2.27
-2.45
-2.95
-3.58
-4.00
-3.89
-3.08
-1.57
0.42
2.56
4.51
6.02
6.97
7.35
7.30
7.05
6.82
6.75
6.84
6.94
6.79
6.12
4.77
2.78
0.38
-2.08
-4.21
-5.70
-6.38
-6.28
-5.59
-4.57
-3.52
-2.72
-2.33
-2.38
-2.78
-3.34
-3.88
-4.28
-4.55
-4.74
-4.91
-5.07
-5.16
-5.11
-4.90
-4.56
-4.12
-3.59
-2.92
-2.07
-1.03
0.07
1.00
1.58
1.73
1.54
1.20
0.93
0.84
0.89
0.98
1.01
0.98
0.95
1.00
1.13
1.28
1.32
1.15
0.79
0.32
-0.08
-0.29
-0.24
-0.01
0.30
0.54
0.65
0.61
0.45
0.22
-0.08
-0.43
-0.84
-1.26
-1.61
-1.80
-1.74
-1.42
-0.88
-0.22
0.44
0.99
1.38
1.57
1.60
1.50
1.32
1.05
0.70
0.24
-0.28
-0.78
-1.15
-1.29
-1.22
-1.02
-0.86
-0.89
-1.20
-1.76
-2.43
-3.05
-3.48
-3.69
-3.74
-3.75
-3.81
-3.92
-4.05
-4.12
-4.11
-4.08
-4.10
-4.23
-4.36
-4.33
-3.93
-3.08
-1.88
-0.56
0.61
1.50
2.07
2.43
2.72
3.00
3.30
3.60
3.84
4.00
4.06
4.02
3.86
3.59
3.26
2.96
2.77
2.74
2.82
2.92
2.91
2.72
2.33
1.79
1.22
0.72
0.38
0.25
0.35
0.62
0.91
1.07
0.92
0.41
-0.36
-1.13
-1.62
-1.60
-1.05
-0.12
0.91
1.78
2.33
2.55
2.52
2.34
2.08
1.78
1.44
1.11
0.81
0.61
0.54
0.63
0.82
1.03
1.17
1.17
1.04
0.79
0.46
0.12
-0.21
-0.50
-0.71
-0.83
-0.86
-0.81
-0.73
-0.68
-0.69
-0.80
-1.02
-1.33
-1.70
-2.03
-2.22
-2.15
-1.77
-1.06
-0.15
0.83
1.70
2.31
2.58
2.50
2.11
1.57
1.02
0.61
0.42
0.43
0.58
0.73
0.84
0.87
0.87
0.87
0.89
0.89
0.81
0.64
0.39
0.15
-0.01
-0.07
-0.06
-0.08
-0.19
-0.40
-0.66
-0.93
-1.20
-1.49
-1.84
-2.21
-2.48
-2.46
-2.04
-1.19
-0.05
1.12
2.09
2.65
2.76
2.47
1.93
1.28
0.68
0.21
-0.06
-0.14
-0.05
0.16
0.39
0.55
0.56
0.39
0.08
-0.30
-0.62
-0.85
-0.98
-1.09
-1.24
-1.46
-1.70
-1.85
-1.84
-1.68
-1.46
-1.29
-1.28
-1.42
-1.63
-1.78
-1.74
-1.45
-0.90
-0.17
0.58
1.21
1.58
1.64
1.45
1.13
0.83
0.65
0.57
0.50
0.33
0.05
-0.26
-0.44
-0.37
-0.05
0.36
0.66
0.68
0.42
-0.00
-0.45
-0.82
-1.07
-1.25
-1.38
-1.43
-1.38
-1.24
-1.02
-0.83
-0.74
-0.78
-0.91
-1.05
-1.08
-0.90
-0.42
0.32
1.22
2.06
2.62
2.75
2.44
1.81
1.07
0.44
0.02
-0.13
-0.07
0.10
0.30
0.45
0.49
0.41
0.24
0.02
-0.19
-0.36
-0.45
-0.45
-0.38
-0.24
-0.11
-0.05
-0.13
-0.37
-0.72
-1.06
-1.30
-1.37
-1.29
-1.10
-0.86
-0.58
-0.25
0.14
0.58
1.03
1.41
1.69
1.86
1.90
1.83
1.65
1.37
1.01
0.63
0.29
0.05
-0.05
-0.03
0.08
0.24
0.41
0.51
0.48
0.27
-0.12
-0.60
-0.99
-1.13
-0.97
-0.57
-0.11
0.19
0.25
0.11
-0.11
-0.27
-0.36
-0.42
-0.54
-0.68
-0.72
-0.51
0.05
0.89
1.82
2.57
2.99
3.03
2.76
2.34
1.86
1.37
0.87
0.35
-0.18
-0.66
-1.01
-1.21
-1.26
-1.18
-1.05
-0.91
-0.79
-0.71
-0.66
-0.64
-0.63
-0.65
-0.68
-0.74
-0.86
-1.08
-1.40
-1.82
-2.23
-2.48
-2.45
-2.05
-1.34
-0.44
0.46
1.21
1.76
2.13
2.37
2.49
2.44
2.13
1.50
0.63
-0.28
-0.97
-1.22
-1.00
-0.42
0.25
0.79
1.06
1.07
0.90
0.65
0.37
0.04
-0.33
-0.72
-1.07
-1.32
-1.45
-1.47
-1.45
-1.45
-1.52
-1.66
-1.81
-1.93
-1.93
-1.76
-1.37
-0.74
0.10
1.06
1.99
2.71
3.08
3.06
2.71
2.19
1.70
1.38
1.29
1.38
1.54
1.62
1.53
1.26
0.86
0.44
0.07
-0.21
-0.39
-0.48
-0.49
-0.42
-0.29
-0.15
-0.05
-0.07
-0.24
-0.53
-0.86
-1.16
-1.40
-1.60
-1.77
-1.91
-1.90
-1.62
-0.96
0.04
1.23
2.30
3.01
3.22
2.99
2.50
1.97
1.52
1.17
0.89
0.63
0.42
0.30
0.32
0.42
0.52
0.52
0.40
0.19
-0.03
-0.20
-0.30
-0.35
-0.41
-0.48
-0.51
-0.44
-0.26
-0.01
0.20
0.23
-0.03
-0.58
-1.27
-1.92
-2.32
-2.37
-2.05
-1.50
-0.83
-0.18
0.37
0.78
1.03
1.14
1.11
0.97
0.75
0.47
0.14
-0.20
-0.50
-0.70
-0.76
-0.72
-0.65
-0.63
-0.68
-0.79
-0.90
-0.97
-1.01
-1.07
-1.20
-1.46
-1.79
-2.12
-2.34
-2.38
-2.25
-2.02
-1.80
-1.69
-1.69
-1.76
-1.79
-1.65
-1.28
-0.67
0.14
1.04
1.90
2.55
2.90
2.87
2.52
1.99
1.42
0.97
0.67
0.51
0.45
0.42
0.40
0.40
0.42
0.44
0.44
0.37
0.21
-0.04
-0.32
-0.58
-0.74
-0.76
-0.69
-0.62
-0.66
-0.86
-1.15
-1.43
-1.59
-1.60
-1.48
-1.33
-1.19
-1.07
-0.89
-0.59
-0.17
0.34
0.84
1.27
1.59
1.80
1.91
1.92
1.83
1.65
1.39
1.12
0.87
0.69
0.62
0.67
0.80
0.98
1.13
1.20
1.14
0.95
0.65
0.27
-0.14
-0.51
-0.78
-0.90
-0.89
-0.75
-0.55
-0.42
-0.46
-0.72
-1.16
-1.66
-2.05
-2.19
-2.01
-1.54
-0.90
-0.19
0.48
1.08
1.57
1.92
2.09
2.04
1.77
1.38
1.01
0.79
0.81
1.06
1.43
1.78
1.96
1.92
1.67
1.28
0.83
0.41
0.08
-0.11
-0.16
-0.10
0.00
0.07
0.07
-0.01
-0.12
-0.20
-0.25
-0.34
-0.58
-1.03
-1.65
-2.31
-2.80
-2.98
-2.77
-2.23
-1.46
-0.58
0.30
1.09
1.72
2.09
2.16
1.91
1.42
0.83
0.31
-0.04
-0.15
-0.06
0.14
0.33
0.43
0.38
0.23
0.04
-0.13
-0.23
-0.31
-0.42
-0.58
-0.79
-0.96
-1.01
-0.92
-0.74
-0.58
-0.52
-0.59
-0.73
-0.86
-0.97
-1.07
-1.20
-1.37
-1.48
-1.38
-0.94
-0.18
0.79
1.72
2.40
2.69
2.59
2.19
1.62
1.02
0.48
0.08
-0.14
-0.16
0.00
0.28
0.60
0.87
1.01
1.00
0.89
0.70
0.50
0.30
0.10
-0.14
-0.43
-0.75
-1.08
-1.33
-1.48
-1.56
-1.64
-1.78
-2.04
-2.34
-2.57
-2.57
-2.26
-1.65
-0.84
0.04
0.85
1.54
2.10
2.51
2.74
2.72
2.41
1.86
1.17
0.52
0.05
-0.16
-0.17
-0.04
0.15
0.34
0.51
0.63
0.71
0.73
0.68
0.53
0.27
-0.10
-0.54
-0.96
-1.24
-1.28
-1.08
-0.75
-0.47
-0.39
-0.59
-0.98
-1.41
-1.68
-1.66
-1.36
-0.84
-0.22
0.42
1.03
1.61
2.16
2.59
2.81
2.66
2.12
1.27
0.36
-0.35
-0.65
-0.53
-0.14
0.29
0.58
0.64
0.54
0.37
0.20
0.04
-0.15
-0.41
-0.77
-1.17
-1.52
-1.75
-1.79
-1.65
-1.40
-1.16
-1.05
-1.11
-1.34
-1.64
-1.90
-2.00
-1.90
-1.57
-1.02
-0.31
0.49
1.26
1.86
2.15
2.08
1.65
0.93
0.08
-0.75
-1.40
-1.76
-1.78
-1.51
-1.03
-0.50
-0.06
0.19
0.22
0.06
-0.22
-0.54
-0.84
-1.07
-1.21
-1.23
-1.15
-1.02
-0.90
-0.90
-1.07
-1.40
-1.79
-2.13
-2.28
-2.18
-1.82
-1.27
-0.59
0.16
0.92
1.63
2.18
2.44
2.34
1.88
1.20
0.48
-0.12
-0.52
-0.71
-0.73
-0.60
-0.35
0.03
0.44
0.76
0.81
0.55
0.02
-0.59
-1.08
-1.30
-1.23
-0.96
-0.61
-0.30
-0.09
-0.02
-0.09
-0.28
-0.55
-0.78
-0.86
-0.73
-0.39
0.05
0.51
0.90
1.24
1.55
1.85
2.08
2.15
1.98
1.57
1.01
0.47
0.11
-0.00
0.10
0.30
0.47
0.52
0.46
0.35
0.26
0.26
0.32
0.41
0.43
0.36
0.24
0.13
0.05
-0.01
-0.09
-0.27
-0.54
-0.84
-1.05
-1.06
-0.81
-0.33
0.27
0.87
1.36
1.68
1.81
1.77
1.53
1.14
0.66
0.21
-0.06
-0.04
0.26
0.72
1.16
1.40
1.38
1.18
0.93
0.76
0.67
0.60
0.43
0.13
-0.25
-0.61
-0.87
-1.00
-1.03
-1.05
-1.14
-1.31
-1.53
-1.69
-1.71
-1.53
-1.14
-0.61
-0.05
0.46
0.87
1.15
1.28
1.26
1.08
