1533173737.00
64.000000
-0.00
-0.00
-0.00
-0.00
-0.00
-0.00
-0.00
-0.00
-0.00
-0.00
0.00
0.01
0.01
-0.00
-0.03
-0.05
-0.05
0.00
0.13
0.36
0.66
1.01
1.37
1.72
2.06
2.40
2.79
3.24
3.80
4.42
5.06
5.66
6.20
6.68
7.15
7.68
8.31
9.14
10.09
11.04
11.89
12.57
13.13
13.75
14.65
15.97
17.94
20.37
22.96
25.41
27.52
29.37
31.28
33.73
37.06
41.68
47.23
53.16
58.86
63.92
68.39
72.79
77.82
84.07
92.09
101.35
110.99
120.06
127.92
134.58
140.71
147.75
154.49
163.26
174.60
188.48
203.49
216.56
223.31
219.24
201.23
168.67
124.12
71.34
14.37
-43.99
-102.52
-161.06
-219.49
-277.01
-332.23
-383.36
-429.56
-470.63
-506.66
-537.38
-561.56
-577.08
-581.46
-572.82
-550.43
-515.51
-470.63
-419.13
-364.44
-309.55
-256.68
-207.06
-160.70
-116.17
-71.25
-23.64
27.81
82.16
136.36
186.19
227.77
258.81
279.14
290.11
293.66
291.44
284.49
273.59
259.68
244.10
228.31
213.42
199.78
187.01
174.25
160.73
146.21
131.12
116.37
102.95
91.50
82.06
74.15
67.04
60.04
52.80
45.35
38.00
31.16
25.24
20.28
16.13
12.54
9.28
6.23
3.43
0.92
-1.20
-2.92
-4.29
-5.38
-6.24
-6.97
-7.60
-8.21
-8.79
-9.28
-9.62
-9.74
-9.60
-9.26
-8.82
-8.37
-7.96
-7.55
-7.06
-6.46
-5.83
-5.31
-5.01
-4.93
-4.91
-4.78
-4.38
-3.71
-2.94
-2.32
-2.00
-2.03
-2.32
-2.71
-3.08
-3.34
-3.46
-3.38
-3.06
-2.50
-1.80
-1.14
-0.70
-0.59
-0.76
-1.03
-1.20
-1.15
-0.89
-0.55
-0.29
-0.21
-0.30
-0.50
-0.71
-0.90
-1.02
-1.08
-1.08
-1.01
-0.91
-0.79
-0.66
-0.52
-0.36
-0.16
0.12
0.51
1.03
1.69
2.47
3.26
3.94
4.45
4.76
4.95
5.09
5.25
5.39
5.42
5.23
4.74
3.93
2.86
1.63
0.24
-1.26
-2.78
-4.22
-5.41
-6.23
-6.59
-6.55
-6.27
-5.94
-5.69
-5.55
-5.46
-5.31
-5.08
-4.78
-4.48
-4.22
-3.99
-3.73
-3.38
-2.98
-2.58
-2.29
-2.12
-2.06
-1.99
-1.86
-1.65
-1.44
-1.27
-1.19
-1.16
-1.13
-1.03
-0.84
-0.54
-0.17
0.24
0.63
0.98
1.23
1.37
1.37
1.30
1.17
1.05
0.94
0.88
0.87
0.90
0.94
0.91
0.75
0.40
-0.10
-0.62
-1.00
-1.12
-0.95
-0.57
-0.10
0.35
0.76
1.14
1.48
1.81
2.11
2.37
2.60
2.80
3.03
3.30
3.60
3.90
4.18
4.40
4.49
4.41
4.08
3.46
2.59
1.57
0.58
-0.18
-0.63
-0.81
-0.85
-0.92
-1.14
-1.52
-1.97
-2.39
-2.70
-2.90
-3.06
-3.21
-3.36
-3.48
-3.51
-3.47
-3.41
-3.43
-3.58
-3.84
-4.13
-4.34
-4.41
-4.36
-4.28
-4.25
-4.32
-4.40
-4.34
-4.01
-3.32
-2.35
-1.26
-0.28
0.42
0.76
0.81
0.71
0.64
0.72
0.96
1.31
1.71
2.13
2.57
3.00
3.40
3.72
3.92
3.96
3.84
3.62
3.31
2.99
2.68
2.41
2.14
1.81
1.34
0.70
-0.06
-0.79
-1.33
-1.59
-1.57
-1.40
-1.23
-1.14
-1.14
-1.16
-1.14
-1.06
-0.97
-0.93
-0.96
-1.04
-1.14
-1.24
-1.34
-1.50
-1.80
-2.23
-2.79
-3.39
-3.93
-4.33
-4.52
-4.51
-4.30
-3.92
-3.42
-2.84
-2.25
-1.72
-1.28
-0.94
-0.62
-0.25
0.26
0.92
1.66
2.33
2.78
2.94
2.83
2.55
2.21
1.89
1.60
1.37
1.20
1.11
1.14
1.28
1.48
1.65
1.67
1.45
0.99
0.35
-0.34
-0.97
-1.44
-1.74
-1.90
-1.98
-1.98
-1.91
-1.74
-1.49
-1.19
-0.90
-0.72
-0.68
-0.81
-1.11
-1.55
-2.05
-2.52
-2.88
-3.12
-3.24
-3.32
-3.39
-3.43
-3.41
-3.30
-3.12
-2.89
-2.65
-2.38
-2.03
-1.56
-0.95
-0.24
0.50
1.21
1.86
2.45
3.00
3.51
3.97
4.34
4.62
4.79
4.84
4.77
4.52
4.07
3.37
2.46
1.44
0.47
-0.23
-0.53
-0.41
0.03
0.56
0.92
0.92
0.46
-0.42
-1.58
-2.80
-3.87
-4.60
-4.92
-4.82
-4.42
-3.91
-3.49
-3.28
-3.32
-3.52
-3.72
-3.74
-3.49
-2.96
-2.25
-1.49
-0.82
-0.28
0.16
0.59
1.10
1.71
2.34
2.85
3.06
2.92
2.46
1.84
1.28
0.93
0.87
1.04
1.33
1.65
1.96
2.25
2.55
2.85
3.13
3.37
3.58
3.83
4.19
4.67
5.13
5.37
5.18
4.48
3.34
1.99
0.67
-0.44
-1.31
-1.97
-2.52
-2.99
-3.41
-3.78
-4.12
-4.46
-4.81
-5.11
-5.28
-5.21
-4.81
-4.10
-3.15
-2.07
-0.97
0.05
0.96
1.73
2.37
2.87
3.24
3.47
3.57
3.54
3.38
3.13
2.81
2.47
2.14
1.86
1.66
1.55
1.52
1.50
1.43
1.23
0.89
0.50
0.24
0.24
0.56
1.11
1.68
2.10
2.27
2.22
2.07
1.92
1.78
1.61
1.33
0.88
0.31
-0.32
-0.92
-1.41
-1.76
-2.01
-2.16
-2.23
-2.21
-2.06
-1.72
-1.17
-0.48
0.23
0.78
1.06
1.10
1.02
0.97
1.04
1.20
1.32
1.30
1.11
0.85
0.70
0.79
1.14
1.64
2.17
2.61
2.92
3.14
3.30
3.43
3.54
3.59
3.54
3.35
3.01
2.49
1.82
1.01
0.11
-0.81
-1.67
-2.35
-2.73
-2.74
-2.41
-1.84
-1.21
-0.71
-0.50
-0.67
-1.17
-1.88
-2.57
-3.05
-3.18
-2.92
-2.35
-1.64
-0.92
-0.33
0.09
0.35
0.47
0.44
0.28
0.03
-0.25
-0.50
-0.67
-0.71
-0.61
-0.35
0.06
0.59
1.13
1.55
1.72
1.60
1.27
0.86
0.56
0.49
0.65
1.00
1.42
1.81
2.06
2.08
1.82
1.26
0.48
-0.35
-1.08
-1.56
-1.80
-1.92
-2.08
-2.38
-2.83
-3.32
-3.69
-3.80
-3.57
-3.00
-2.18
-1.23
-0.25
0.61
1.26
1.66
1.77
1.62
1.28
0.83
0.39
0.13
0.15
0.52
1.14
1.82
2.33
2.45
2.14
1.48
0.70
0.06
-0.27
-0.27
-0.03
0.27
0.52
0.70
0.85
1.03
1.24
1.34
1.19
0.70
-0.10
-0.99
-1.75
-2.19
-2.29
-2.17
-2.00
-1.94
-2.05
-2.30
-2.64
-2.99
-3.29
-3.47
-3.49
-3.35
-3.06
-2.65
-2.17
-1.60
-0.89
-0.05
0.89
1.79
2.49
2.84
2.81
2.47
1.96
1.47
1.13
1.00
1.06
1.27
1.53
1.79
1.98
2.07
2.02
1.80
1.40
0.90
0.39
-0.01
-0.24
-0.32
-0.36
-0.49
-0.78
-1.22
-1.69
-2.06
-2.26
-2.29
-2.26
-2.28
-2.43
-2.72
-3.09
-3.45
-3.73
-3.89
-3.95
-3.94
-3.84
-3.58
-3.12
-2.42
-1.56
-0.67
0.06
0.55
0.75
0.72
0.54
0.25
-0.13
-0.59
-1.12
-1.67
-2.16
-2.58
-2.90
-3.13
-3.28
-3.34
-3.28
-3.07
-2.66
-2.01
-1.13
-0.08
1.04
2.08
2.96
3.60
4.02
4.24
4.28
4.14
3.85
3.47
3.05
2.65
2.24
1.78
1.21
0.55
-0.10
-0.57
-0.76
-0.62
-0.24
0.25
0.74
1.18
1.56
1.92
2.27
2.59
2.86
3.03
3.09
3.02
2.84
2.56
2.21
1.85
1.50
1.20
0.97
0.81
0.69
0.57
0.43
0.24
0.02
-0.22
-0.42
-0.56
-0.61
-0.60
-0.57
-0.53
-0.48
-0.43
-0.34
-0.22
-0.06
0.11
0.23
0.23
0.01
-0.48
-1.19
-2.03
-2.83
-3.43
-3.75
-3.83
-3.76
-3.66
-3.64
-3.70
-3.79
-3.81
-3.67
-3.33
-2.80
-2.13
-1.39
-0.66
0.05
0.69
1.27
1.74
2.07
2.23
2.21
2.05
1.82
1.58
1.38
1.27
1.27
1.38
1.55
1.72
1.81
1.79
1.69
1.62
1.66
1.86
2.17
2.51
2.75
2.83
2.76
2.58
2.36
2.10
1.78
1.37
0.86
0.28
-0.28
-0.73
-1.01
-1.13
-1.14
-1.12
-1.10
-1.13
-1.23
-1.42
-1.74
-2.22
-2.86
-3.58
-4.20
-4.57
-4.55
-4.11
-3.32
-2.32
-1.28
-0.37
0.30
0.70
0.85
0.83
0.76
0.76
0.87
1.12
1.45
1.81
2.16
2.46
2.68
2.81
2.84
2.77
2.59
2.32
1.96
1.53
1.07
0.68
0.45
0.45
0.63
0.88
1.07
1.11
1.00
0.81
0.65
0.51
0.34
0.04
-0.42
-1.00
-1.58
-2.05
-2.36
-2.52
-2.62
-2.70
-2.78
-2.85
-2.91
-3.00
-3.17
-3.48
-3.89
-4.30
-4.51
-4.37
-3.81
-2.91
-1.87
-0.90
-0.15
0.34
0.65
0.95
1.37
1.95
2.64
3.30
3.81
4.09
4.11
3.91
3.54
3.03
2.46
1.88
1.38
1.04
0.89
0.92
1.08
1.30
1.52
1.72
1.93
2.12
2.27
2.31
2.18
1.84
1.34
0.75
0.19
-0.25
-0.55
-0.71
-0.77
-0.77
-0.79
-0.85
-0.97
-1.17
-1.43
-1.71
-1.98
-2.24
-2.52
-2.87
-3.31
-3.82
-4.30
-4.59
-4.58
-4.22
-3.59
-2.84
-2.13
-1.55
-1.09
-0.70
-0.31
0.14
0.64
1.16
1.67
2.11
2.46
2.69
2.81
2.85
2.89
2.96
3.10
3.27
3.40
3.45
3.41
3.30
3.17
3.06
2.95
2.84
2.75
2.70
2.70
2.75
2.79
2.74
2.54
2.20
1.76
1.32
0.97
0.72
0.54
0.35
0.10
-0.21
-0.50
-0.70
-0.75
-0.69
-0.63
-0.70
-0.97
-1.41
-1.88
-2.25
-2.44
-2.42
-2.28
-2.07
-1.82
-1.54
-1.23
-0.95
-0.73
-0.63
-0.66
-0.82
-1.07
-1.35
-1.62
-1.86
-2.03
-2.11
-2.06
-1.89
-1.62
-1.33
-1.10
-1.05
-1.22
-1.59
-2.06
-2.49
-2.77
-2.91
-3.03
-3.26
-3.62
-4.01
-4.24
-4.20
-3.95
-3.69
-3.65
-3.93
-4.39
-4.70
-4.56
-3.85
-2.66
-1.30
-0.03
0.94
1.59
1.96
2.11
2.06
1.82
1.40
0.89
0.42
0.12
0.08
0.28
0.68
1.17
1.65
2.06
2.41
2.68
2.89
2.99
2.92
2.67
2.28
1.88
1.58
1.47
1.49
1.53
1.50
1.40
1.33
1.45
1.84
2.42
3.02
3.41
3.46
3.11
2.40
1.39
0.14
-1.24
-2.61
-3.80
-4.66
-5.10
-5.15
-4.90
-4.44
-3.83
-3.04
-2.09
-1.05
-0.05
0.75
1.27
1.52
1.58
1.53
1.37
1.05
0.52
-0.22
-1.04
-1.77
-2.25
-2.42
-2.31
-2.03
-1.71
-1.41
-1.13
-0.86
-0.60
-0.38
-0.23
-0.16
-0.14
-0.14
-0.12
-0.09
-0.11
-0.27
-0.61
-1.09
-1.61
-2.05
-2.33
-2.43
-2.42
-2.44
-2.63
-3.11
-3.90
-4.90
-5.99
-7.03
-7.91
-8.65
-9.30
-9.96
-10.74
-11.66
-12.74
-13.93
-15.13
-16.25
-17.21
-17.97
-18.55
-19.04
-19.53
-20.05
-20.50
-20.66
-20.17
-18.67
-15.82
-11.45
-5.62
1.32
8.74
15.89
22.10
26.95
30.37
32.56
33.84
34.46
34.56
34.18
33.37
32.17
30.70
29.01
27.12
25.03
22.81
20.62
18.68
17.19
16.24
15.71
15.42
15.15
14.79
14.35
13.90
13.49
13.13
12.77
12.35
11.88
11.38
10.89
10.39
9.84
9.17
8.37
7.47
6.59
5.86
5.37
5.16
5.16
5.26
5.28
5.07
4.55
3.77
2.84
1.94
1.20
0.65
0.22
-0.21
-0.78
-1.57
-2.54
-3.55
-4.35
-4.63
-4.10
-2.61
-0.19
2.92
6.31
9.59
12.48
14.88
16.88
18.61
20.18
21.59
22.76
23.58
23.94
23.69
22.61
20.42
16.81
11.62
4.95
-2.77
-10.82
-18.43
-24.99
-30.20
-34.15
-37.08
-39.26
-40.80
-41.72
-41.98
-41.64
-40.89
-39.95
-38.97
-38.00
-36.94
-35.69
-34.23
-32.59
-30.87
-29.09
-27.19
-25.10
-22.73
-20.08
-17.20
-14.20
-11.17
-8.20
-5.37
-2.75
-0.41
1.60
3.27
4.62
5.73
6.64
7.41
8.03
8.49
8.72
8.68
8.37
7.85
7.23
6.64
6.16
5.74
5.29
4.68
3.84
2.87
1.93
1.23
0.88
0.87
1.06
1.29
1.42
1.39
1.27
1.12
0.98
0.83
0.61
0.29
-0.13
-0.58
-0.98
-1.27
-1.48
-1.70
-2.02
-2.55
-3.27
-4.09
-4.92
-5.68
-6.34
-6.92
-7.39
-7.71
-7.80
-7.67
-7.37
-7.03
-6.79
-6.68
-6.64
-6.51
-6.11
-5.32
-4.16
-2.72
-1.20
0.19
1.34
2.21
2.85
3.38
3.93
4.56
5.31
6.17
7.09
8.00
8.80
9.40
9.77
9.92
9.99
10.10
10.34
10.68
11.02
11.21
11.17
10.91
10.46
9.85
9.11
8.27
7.42
6.65
6.04
5.57
5.15
4.62
3.88
2.94
1.89
0.91
0.17
-0.26
-0.39
-0.40
-0.51
-0.90
-1.70
-2.88
-4.30
-5.73
-7.01
-8.00
-8.62
-8.83
-8.60
-7.94
-6.92
-5.68
-4.39
-3.23
-2.31
-1.65
-1.21
-0.89
-0.60
-0.27
0.16
0.72
1.41
2.23
3.13
4.03
4.84
5.44
5.73
5.69
5.38
4.93
4.46
4.02
3.61
3.18
2.71
2.23
1.84
1.58
1.49
1.51
1.55
1.54
1.41
1.16
0.78
0.29
-0.30
-0.94
-1.59
-2.20
-2.73
-3.19
-3.60
-3.99
-4.39
-4.80
-5.21
-5.63
-6.01
-6.32
-6.50
-6.51
-6.32
-5.92
-5.34
-4.60
-3.72
-2.75
-1.76
-0.81
0.04
0.77
1.44
2.12
2.84
3.55
4.16
4.57
4.76
4.80
4.81
4.86
4.98
5.08
5.08
4.91
4.62
4.26
3.93
3.63
3.37
3.15
2.95
2.83
2.78
2.76
2.69
2.52
2.20
1.77
1.29
0.81
0.38
0.00
-0.32
-0.58
-0.78
-0.97
-1.19
-1.50
-1.93
-2.50
-3.21
-4.02
-4.86
-5.59
-6.05
-6.09
-5.65
-4.79
-3.68
-2.52
-1.48
-0.60
0.13
0.77
1.38
1.92
2.37
2.72
2.94
3.07
3.11
3.09
3.05
3.03
3.08
3.19
3.35
3.48
3.52
3.45
3.33
3.23
3.17
3.11
2.95
2.58
1.98
1.21
0.39
-0.40
-1.15
-1.95
-2.85
-3.86
-4.91
-5.89
-6.72
-7.39
-7.95
-8.47
-8.92
-9.22
-9.27
-9.02
-8.57
-8.14
-8.00
-8.31
-9.06
-10.03
-10.89
-11.36
-11.38
-11.10
-10.86
-10.98
-11.56
-12.47
-13.44
-14.18
-14.59
-14.75
-14.86
-15.11
-15.61
-16.37
-17.31
-18.28
-18.98
-19.05
-18.08
-15.79
-12.22
-7.73
-2.78
2.21
7.21
12.51
18.59
25.82
34.11
42.82
50.93
57.35
61.41
63.17
63.50
63.71
65.01
67.86
71.82
75.77
78.53
79.50
78.77
76.70
73.45
68.71
61.79
52.01
38.93
22.38
2.40
-20.62
-45.54
-70.24
-91.66
-106.65
-113.08
-110.78
-101.75
-89.33
-77.01
-67.17
-60.59
-56.64
-53.92
-50.98
-46.76
-40.94
-33.82
-26.20
-18.90
-12.44
-6.79
-1.49
4.14
10.61
18.07
26.31
34.82
42.86
49.62
54.34
56.44
55.62
51.96
45.91
38.31
30.32
23.25
18.21
15.71
15.48
16.45
17.18
16.37
13.47
8.85
3.60
-0.99
-4.01
-5.30
-5.43
-5.42
-6.19
-8.29
-11.64
-15.67
-19.54
-22.56
-24.37
-24.96
-24.55
-23.40
-21.66
-19.38
-16.62
-13.58
-10.62
-8.11
-6.36
-5.46
-5.28
-5.57
-6.05
-6.56
-7.01
-7.45
-7.91
-8.41
-8.87
-9.19
-9.25
-9.01
-8.49
-7.82
-7.12
-6.49
-5.93
-5.41
-4.90
-4.39
-3.98
-3.74
-3.69
-3.76
-3.76
-3.49
-2.80
-1.68
-0.24
1.29
2.66
3.65
4.14
4.14
3.72
2.99
1.99
0.72
-0.81
-2.53
-4.27
-5.75
-6.69
-6.95
-6.49
-5.42
-3.89
-2.06
-0.06
1.95
3.79
5.28
6.31
6.85
6.96
6.76
6.35
5.82
5.25
4.75
4.45
4.48
4.90
5.63
6.48
7.24
7.71
7.87
7.85
7.86
8.09
8.59
9.25
9.80
9.97
9.57
8.56
7.09
5.40
3.75
2.35
1.28
0.58
0.17
-0.03
-0.16
-0.36
-0.76
-1.46
-2.45
-3.62
-4.78
-5.72
-6.25
-6.31
-5.96
-5.40
-4.90
-4.75
-5.15
-6.13
-7.55
-9.12
-10.49
-11.42
-11.75
-11.53
-10.85
-9.84
-8.57
-7.12
-5.55
-3.99
-2.57
-1.39
-0.46
0.29
0.94
1.57
2.23
2.87
3.47
3.96
4.30
4.39
4.18
3.68
3.02
2.41
2.06
2.07
2.37
2.75
2.99
2.96
2.71
2.39
2.17
2.12
2.18
2.24
2.17
1.94
1.59
1.24
0.97
0.81
0.71
0.57
0.25
-0.33
-1.18
-2.20
-3.25
-4.14
-4.70
-4.80
-4.38
-3.43
-2.04
-0.36
1.40
2.99
4.20
4.89
5.07
4.84
4.39
3.94
3.63
3.50
3.55
3.69
3.85
3.94
3.92
3.79
3.54
3.23
2.89
2.55
2.19
1.79
1.33
0.77
0.14
-0.53
-1.19
-1.81
-2.37
-2.85
-3.26
-3.61
-3.91
-4.18
-4.39
-4.54
-4.52
-4.24
-3.66
-2.78
-1.71
-0.63
0.26
0.78
0.85
0.51
-0.10
-0.76
-1.23
-1.33
-0.96
-0.16
0.92
2.11
3.19
4.02
4.54
4.80
4.85
4.79
4.63
4.39
4.08
3.75
3.50
3.45
3.62
3.99
4.41
4.75
4.96
5.05
5.11
5.17
5.23
5.20
4.99
4.59
4.04
3.45
2.90
2.40
1.97
1.59
1.28
1.06
0.92
0.81
0.66
0.41
0.06
-0.36
-0.75
-1.07
-1.31
-1.50
-1.68
-1.88
-2.14
-2.50
-3.03
-3.76
-4.66
-5.61
-6.36
-6.69
-6.41
-5.52
-4.13
-2.46
-0.79
0.65
1.69
2.24
2.35
2.17
1.94
1.86
2.07
2.58
3.23
3.85
4.28
4.49
4.53
4.48
4.37
4.19
3.88
3.44
2.96
2.57
2.35
2.31
2.31
2.20
1.88
1.41
0.93
0.57
0.40
0.33
0.25
0.05
-0.28
-0.68
-1.06
-1.39
-1.70
-2.05
-2.46
-2.93
-3.42
-3.91
-4.42
-5.01
-5.74
-6.59
-7.47
-8.19
-8.55
-8.36
-7.52
-6.04
-4.04
-1.74
0.59
2.71
4.38
5.43
5.80
5.50
4.67
3.53
2.36
1.39
0.72
0.38
0.32
0.48
0.89
1.60
2.63
3.85
5.03
5.89
6.21
5.95
5.24
4.35
3.51
2.89
2.54
2.39
2.34
2.29
2.17
1.93
1.54
0.98
0.27
-0.56
-1.48
-2.40
-3.22
-3.86
-4.25
-4.39
-4.34
-4.22
-4.15
-4.27
-4.63
-5.25
-6.06
-6.91
-7.62
-8.00
-7.92
-7.33
-6.28
-4.93
-3.48
-2.11
-0.91
0.11
0.98
1.77
2.50
3.15
3.65
3.96
4.05
3.96
3.76
3.52
3.27
3.06
2.89
2.78
2.70
2.62
2.50
2.29
1.97
1.58
1.21
0.91
0.74
0.65
0.61
0.56
0.51
0.47
0.46
0.46
0.44
0.33
0.12
-0.18
-0.57
-1.02
-1.53
-2.07
-2.55
-2.80
-2.67
-2.07
-1.08
0.08
1.15
1.88
2.16
1.97
1.39
0.54
-0.45
-1.43
-2.22
-2.67
-2.71
-2.35
-1.72
-1.00
-0.30
0.38
1.13
2.07
3.25
4.62
6.03
7.32
8.36
9.11
9.56
9.72
9.54
8.99
8.09
6.94
5.71
4.55
3.52
2.53
1.39
-0.10
-2.05
-4.34
-6.74
-8.89
-10.53
-11.47
-11.73
-11.40
-10.65
-9.63
-8.49
-7.31
-6.16
-5.10
-4.19
-3.49
-3.06
-2.97
-3.18
-3.64
-4.24
-4.87
-5.52
-6.20
-6.97
-7.81
-8.56
-8.97
-8.79
-7.94
-6.58
-5.01
-3.59
-2.55
-1.92
-1.55
-1.26
-0.87
-0.36
0.24
0.85
1.42
1.96
2.52
3.12
3.77
4.41
4.93
5.23
5.26
5.05
4.69
4.26
3.82
3.34
2.83
2.28
1.74
1.27
0.91
0.66
0.47
0.28
0.09
-0.05
-0.07
0.09
0.40
0.78
1.10
1.23
1.11
0.78
0.27
-0.37
-1.16
-2.15
-3.38
-4.77
-6.14
-7.21
-7.76
-7.65
-6.95
-5.85
-4.59
-3.39
-2.40
-1.65
-1.11
-0.77
-0.57
-0.49
-0.47
-0.47
-0.40
-0.22
0.09
0.51
0.98
1.47
1.94
2.44
3.00
3.60
4.21
4.75
5.12
5.28
5.25
5.09
4.91
4.78
4.75
4.82
4.95
5.07
5.13
5.03
4.72
4.18
3.44
2.56
1.67
0.82
0.04
-0.71
-1.52
-2.41
-3.35
-4.16
-4.65
-4.63
-4.01
-2.88
-1.42
0.10
1.52
2.76
3.85
4.89
5.92
6.87
7.59
7.95
7.86
7.38
6.69
5.97
5.42
5.12
5.09
5.33
5.73
6.17
6.47
6.42
5.89
4.83
3.24
1.25
-1.04
-3.42
-5.68
-7.59
-8.94
-9.66
-9.79
-9.50
-9.01
-8.47
-7.94
-7.40
-6.85
-6.26
-5.68
-5.10
-4.53
-3.96
-3.45
-3.07
-2.96
-3.16
-3.63
-4.23
-4.75
-5.05
-5.12
-5.09
-5.12
-5.34
-5.79
-6.35
-6.89
-7.29
-7.50
-7.53
-7.41
-7.16
-6.75
-6.16
-5.41
-4.55
-3.68
-2.87
-2.09
-1.31
-0.43
0.55
1.58
2.54
3.28
3.74
3.89
3.78
3.49
3.09
2.65
2.27
1.99
1.86
1.84
1.87
1.91
1.94
1.99
2.05
2.07
1.96
1.60
0.99
0.27
-0.26
-0.35
0.17
1.23
2.60
3.95
5.02
5.68
5.96
5.97
5.80
5.54
5.24
4.91
4.58
4.22
3.84
3.39
2.87
2.31
1.80
1.45
1.34
1.47
1.73
1.98
2.10
2.04
1.86
1.66
1.53
1.46
1.43
1.37
1.25
1.09
0.90
0.67
0.35
-0.10
-0.69
-1.38
-2.15
-2.97
-3.82
-4.69
-5.50
-6.11
-6.38
-6.19
-5.53
-4.50
-3.26
-2.00
-0.83
0.19
1.08
1.86
2.52
3.05
3.43
3.64
3.68
3.60
3.49
3.44
3.51
3.71
3.95
4.13
4.12
3.87
3.41
2.84
2.25
1.72
1.28
0.91
0.62
0.41
0.29
0.27
0.31
0.34
0.32
0.21
-0.04
-0.44
-1.01
-1.71
-2.48
-3.21
-3.77
-4.05
-4.00
-3.62
-2.94
-2.04
-0.96
0.20
1.36
2.41
3.24
3.78
4.01
3.97
3.77
3.55
3.43
3.51
3.76
4.06
4.25
4.17
3.77
3.10
2.35
1.74
1.38
1.29
1.34
1.37
1.29
1.07
0.79
0.52
0.26
-0.04
-0.46
-1.04
-1.74
-2.42
-2.97
-3.34
-3.60
-3.87
-4.26
-4.78
-5.31
-5.67
-5.72
-5.38
-4.71
-3.81
-2.78
-1.69
-0.56
0.57
1.66
2.63
3.39
3.87
4.06
4.02
3.83
3.60
3.40
3.26
3.18
3.15
3.15
3.18
3.24
3.34
3.42
3.44
3.32
3.03
2.59
2.05
1.47
0.90
0.38
-0.06
-0.38
-0.60
-0.73
-0.85
-1.01
-1.30
-1.73
-2.28
-2.88
-3.48
-4.03
-4.52
-4.98
-5.39
-5.70
-5.81
-5.61
-5.03
-4.10
-2.94
-1.76
-0.72
0.08
0.65
1.07
1.43
1.81
2.19
2.51
2.67
2.65
2.49
2.30
2.23
2.36
2.66
2.98
3.15
3.05
2.73
2.31
1.96
1.74
1.62
1.49
1.27
0.95
0.61
0.34
0.14
-0.04
-0.27
-0.60
-0.99
-1.35
-1.65
-1.89
-2.13
-2.41
-2.79
-3.23
-3.74
-4.30
-4.86
-5.35
-5.68
-5.72
-5.41
-4.76
-3.85
-2.83
-1.84
-0.96
-0.21
0.46
1.09
1.73
2.36
2.92
3.31
3.42
3.24
2.85
2.45
2.23
2.32
2.65
3.05
3.31
3.28
3.00
2.60
2.27
2.11
2.11
2.17
2.17
2.08
1.92
1.75
1.61
1.49
1.33
1.07
0.68
0.19
-0.31
-0.73
-1.03
-1.21
-1.35
-1.54
-1.86
-2.32
-2.86
-3.39
-3.80
-4.06
-4.22
-4.40
-4.66
-5.00
-5.28
-5.30
-4.90
-4.07
-2.91
-1.66
-0.51
0.42
1.12
1.64
2.02
2.25
2.31
2.21
2.02
1.87
1.86
2.01
2.28
2.54
2.68
2.65
2.44
2.11
1.76
1.49
1.37
1.42
1.57
1.73
1.81
1.77
1.60
1.36
1.09
0.80
0.49
0.17
-0.17
-0.48
-0.72
-0.90
-1.04
-1.22
-1.46
-1.78
-2.15
-2.51
-2.83
-3.08
-3.26
-3.42
-3.60
-3.84
-4.12
-4.33
-4.33
-3.98
-3.25
-2.22
-1.06
0.04
0.90
1.48
1.78
1.86
1.75
1.51
1.20
0.92
0.78
0.87
1.17
1.55
1.84
1.92
1.76
1.45
1.15
0.96
0.95
1.05
1.18
1.22
1.10
0.81
0.37
-0.13
-0.60
-0.96
-1.18
-1.25
-1.19
-1.05
-0.88
-0.72
-0.61
-0.61
-0.77
-1.12
-1.68
-2.41
-3.25
-4.09
-4.83
-5.36
-5.62
-5.57
-5.27
-4.78
-4.18
-3.51
-2.78
-1.99
-1.12
-0.20
0.72
1.55
2.19
2.59
2.75
2.69
2.51
2.27
2.06
1.93
1.89
1.93
2.04
2.19
2.34
2.46
2.53
2.54
2.49
2.37
2.17
1.89
1.54
1.20
0.94
0.82
0.79
0.77
0.66
0.40
0.05
-0.29
-0.51
-0.58
-0.55
-0.56
-0.76
-1.22
-1.97
-2.92
-3.89
-4.71
-5.25
-5.44
-5.34
-5.07
-4.71
-4.29
-3.77
-3.08
-2.22
-1.28
-0.39
0.35
0.90
1.32
1.68
2.00
2.28
2.47
2.53
2.49
2.41
2.33
2.31
2.35
2.42
2.48
2.49
2.43
2.32
2.21
2.14
2.12
2.09
1.96
1.65
1.17
0.60
0.05
-0.36
-0.56
-0.57
-0.46
-0.34
-0.30
-0.40
-0.68
-1.07
-1.49
-1.87
-2.20
-2.53
-2.93
-3.50
-4.20
-4.92
-5.44
-5.57
-5.20
-4.35
-3.19
-1.93
-0.74
0.29
1.14
1.84
2.38
2.74
2.85
2.69
2.36
2.01
1.82
1.89
2.20
2.63
3.04
3.30
3.39
3.32
3.17
2.97
2.72
2.43
2.11
1.74
1.36
0.96
0.54
0.09
-0.42
-0.93
-1.40
-1.77
-2.03
-2.21
-2.39
-2.66
-3.07
-3.61
-4.24
-4.90
-5.53
-6.12
-6.65
-7.10
-7.41
-7.50
-7.26
-6.69
-5.86
-4.96
-4.19
-3.70
-3.49
-3.47
-3.45
-3.30
-2.98
-2.50
-1.91
-1.26
-0.53
0.28
1.18
2.12
3.01
3.80
4.45
4.99
5.44
5.83
6.12
6.26
6.20
5.88
5.35
4.68
3.99
3.42
3.01
2.77
2.61
2.40
2.05
1.53
0.91
0.31
-0.14
-0.41
-0.59
-0.84
-1.29
-1.98
-2.78
-3.47
-3.85
-3.86
-3.52
-2.97
-2.30
-1.54
-0.63
0.42
1.54
2.54
3.21
3.45
3.28
2.90
2.54
2.37
2.42
2.63
2.85
2.98
3.00
2.95
2.93
2.98
3.09
3.19
3.18
3.03
2.77
2.51
2.30
2.17
2.06
1.87
1.53
1.03
0.46
-0.09
-0.56
-0.93
-1.26
-1.58
-1.91
-2.21
-2.47
-2.67
-2.87
-3.10
-3.39
-3.72
-3.99
-4.09
-3.91
-3.41
-2.62
-1.64
-0.60
0.37
1.19
1.83
2.29
2.62
2.86
3.02
3.11
3.13
3.08
3.01
2.97
3.01
3.15
3.35
3.54
3.65
3.60
3.36
2.98
2.49
1.97
1.46
1.03
0.72
0.57
0.62
0.82
1.09
1.29
1.25
0.93
0.35
-0.35
-0.98
-1.45
-1.75
-2.00
-2.37
-2.94
-3.68
-4.44
-4.98
-5.11
-4.77
-4.04
-3.10
-2.15
-1.33
-0.66
-0.10
0.44
1.00
1.58
2.11
2.53
2.80
2.93
2.99
3.01
3.03
3.03
3.00
2.90
2.77
2.65
2.61
2.68
2.79
2.81
2.60
2.04
1.12
-0.03
-1.18
-2.14
-2.74
-2.97
-2.90
-2.74
-2.70
-3.00
-3.79
-5.06
-6.65
-8.28
-9.66
-10.67
-11.37
-12.07
-13.09
-14.58
-16.39
-18.05
-18.92
-18.42
-16.30
-12.75
-8.41
-4.29
-1.45
-0.75
-2.49
-6.26
-10.90
-14.72
-15.95
-13.28
-6.27
4.37
16.89
28.94
38.13
42.72
42.11
37.01
29.14
20.69
13.53
8.72
6.37
5.86
6.37
7.33
8.57
10.22
12.41
15.08
18.05
21.22
24.77
29.11
34.55
40.93
47.54
53.29
57.26
59.11
59.11
57.80
55.44
51.84
46.47
38.95
29.50
19.01
8.64
-0.72
-8.85
-16.11
-23.10
-30.17
-37.12
-43.43
-48.48
-51.94
-53.90
-54.72
-54.83
-54.50
-53.80
-52.67
-51.05
-48.98
-46.60
-44.08
-41.53
-38.99
-36.39
-33.64
-30.63
-27.31
-23.74
-20.01
-16.29
-12.80
-9.68
-7.02
-4.81
-2.95
-1.31
0.18
1.56
2.82
3.90
4.79
5.49
6.03
6.42
6.66
6.74
6.69
6.56
6.44
6.39
6.41
6.45
6.43
6.32
6.14
5.94
5.75
5.50
5.09
4.38
3.34
2.02
0.53
-1.01
-2.56
-4.06
-5.47
-6.68
-7.54
-7.99
-8.04
-7.80
-7.47
-7.19
-7.01
-6.92
-6.86
-6.79
-6.70
-6.59
-6.45
-6.25
-6.00
-5.68
-5.34
-5.02
-4.76
-4.60
-4.55
-4.65
-4.92
-5.37
-5.91
-6.45
-6.87
-7.05
-6.97
-6.63
-6.07
-5.32
-4.41
-3.36
-2.22
-1.07
-0.00
0.91
1.63
2.13
2.48
2.76
3.09
3.56
4.20
4.98
5.79
6.53
7.10
7.50
7.74
7.90
8.03
8.14
8.22
8.23
8.14
7.93
7.55
6.98
6.20
5.23
4.08
2.82
1.52
0.27
-0.83
-1.75
-2.50
-3.14
-3.79
-4.56
-5.49
-6.55
-7.63
-8.60
-9.38
-9.93
-10.26
-10.38
-10.23
-9.68
-8.61
-6.93
-4.71
-2.18
0.35
2.60
4.40
5.77
6.82
7.73
8.62
9.51
10.34
11.04
11.55
11.88
12.05
12.13
12.15
12.12
11.98
11.66
11.06
10.14
8.93
7.54
6.14
4.86
3.76
2.79
1.85
0.87
-0.15
-1.15
-2.02
-2.72
-3.24
-3.65
-4.05
-4.52
-5.09
-5.74
-6.40
-7.00
-7.49
-7.83
-8.00
-8.01
-7.87
-7.54
-7.03
-6.33
-5.49
-4.54
-3.52
-2.45
-1.34
-0.20
0.96
2.15
3.36
4.58
5.82
7.01
8.12
9.05
9.72
10.10
10.17
9.94
9.46
8.79
8.02
7.27
6.63
6.13
5.72
5.29
4.73
4.01
3.17
2.34
1.63
1.07
0.59
0.10
-0.52
-1.30
-2.16
-3.02
-3.80
-4.47
-5.07
-5.61
-6.09
-6.40
-6.41
-6.03
-5.21
-4.01
-2.54
-0.93
0.72
2.30
3.75
4.98
5.95
6.60
6.90
6.86
6.52
5.97
5.31
4.70
4.25
4.01
3.92
3.89
3.82
3.66
3.43
3.17
2.87
2.50
1.99
1.31
0.48
-0.41
-1.20
-1.78
-2.05
-1.99
-1.68
-1.19
-0.66
-0.18
0.19
0.47
0.70
0.98
1.33
1.72
2.05
2.22
2.11
1.71
1.03
0.18
-0.75
-1.62
-2.30
-2.70
-2.73
-2.38
-1.69
-0.77
0.26
1.26
2.16
2.90
3.41
3.66
3.65
3.41
3.07
2.77
2.61
2.61
2.70
2.76
2.71
2.55
2.33
2.15
2.03
1.93
1.77
1.50
1.08
0.55
-0.04
-0.62
-1.12
-1.51
-1.76
-1.89
-1.92
-1.91
-1.92
-2.00
-2.15
-2.36
-2.61
-2.86
-3.02
-3.05
-2.92
-2.67
-2.40
-2.22
-2.14
-2.12
-2.00
-1.61
-0.84
0.30
1.68
3.16
4.56
5.77
6.78
7.61
8.32
8.95
9.46
9.73
9.66
9.14
8.20
6.97
5.63
4.39
3.33
2.47
1.75
1.11
0.52
-0.02
-0.53
-1.08
-1.70
-2.43
-3.20
-3.89
-4.33
-4.44
-4.19
-3.71
-3.13
-2.66
-2.41
-2.47
-2.82
-3.37
-4.01
-4.59
-5.04
-5.34
-5.51
-5.59
-5.55
-5.32
-4.80
-3.94
-2.84
-1.65
-0.53
0.38
1.07
1.58
1.94
2.15
2.14
1.89
1.45
0.99
0.68
0.65
0.88
1.26
1.67
2.03
2.32
2.61
2.94
3.27
3.52
3.60
3.44
3.08
2.57
2.01
1.45
0.90
0.34
-0.27
-0.97
-1.75
-2.56
-3.31
-3.91
-4.32
-4.56
-4.68
-4.78
-4.90
-5.00
-5.03
-4.94
-4.75
-4.50
-4.28
-4.13
-4.01
-3.81
-3.45
-2.92
-2.32
-1.79
-1.42
-1.17
-0.90
-0.46
0.20
0.99
1.72
2.23
2.48
2.59
2.76
3.14
3.71
4.37
4.94
5.31
5.49
5.56
5.62
5.77
6.03
6.35
6.67
6.90
6.95
6.75
6.30
5.63
4.85
4.03
3.28
2.59
1.99
1.43
0.90
0.40
-0.04
-0.42
-0.75
-1.06
-1.43
-1.89
-2.43
-2.96
-3.31
-3.29
-2.82
-1.95
-0.86
0.21
1.11
1.75
2.17
2.48
2.73
2.95
3.13
3.25
3.31
3.35
3.39
3.41
3.39
3.26
2.99
2.54
1.94
1.27
0.62
0.10
-0.22
-0.31
-0.21
-0.02
0.12
0.11
-0.11
-0.52
-1.02
-1.48
-1.79
-1.88
-1.76
-1.51
-1.22
-0.96
-0.81
-0.80
-0.96
-1.29
-1.75
-2.24
-2.64
-2.85
-2.84
-2.67
-2.45
-2.27
-2.17
-2.07
-1.92
-1.65
-1.29
-0.94
-0.69
-0.58
-0.58
-0.61
-0.60
-0.49
-0.30
-0.06
0.20
0.44
0.67
0.89
1.10
1.27
1.35
1.29
1.09
0.77
0.44
0.18
0.06
0.06
0.14
0.23
0.28
0.29
0.26
0.17
-0.01
-0.32
-0.75
-1.22
-1.62
-1.89
-1.98
-1.94
-1.83
-1.65
-1.41
-1.05
-0.59
-0.06
0.47
0.92
1.29
1.58
1.80
1.97
2.07
2.09
2.03
1.94
1.89
1.91
2.03
2.18
2.29
2.29
2.14
1.88
1.54
1.19
0.86
0.56
0.29
0.03
-0.27
-0.62
-1.00
-1.38
-1.69
-1.90
-1.97
-1.91
-1.77
-1.61
-1.48
-1.41
-1.41
-1.49
-1.64
-1.86
-2.14
-2.40
-2.59
-2.64
-2.52
-2.23
-1.84
-1.40
-0.95
-0.50
-0.04
0.42
0.84
1.12
1.17
0.99
0.67
0.37
0.26
0.41
0.74
1.10
1.35
1.42
1.37
1.34
1.41
1.57
1.75
1.83
1.77
1.58
1.33
1.09
0.83
0.52
0.12
-0.33
-0.75
-1.01
-1.04
-0.91
-0.75
-0.71
-0.89
-1.26
-1.72
-2.09
-2.29
-2.29
-2.19
-2.09
-2.07
-2.16
-2.34
-2.57
-2.80
-2.99
-3.09
-3.02
-2.72
-2.14
-1.33
-0.41
0.44
1.08
1.42
1.51
1.45
1.33
1.21
1.11
1.04
1.02
1.09
1.26
1.52
1.79
1.97
2.04
2.01
1.95
1.88
1.80
1.63
1.32
0.87
0.38
-0.03
-0.29
-0.38
-0.40
-0.41
-0.44
-0.46
-0.40
-0.22
0.03
0.26
0.37
0.27
-0.03
-0.49
-1.02
-1.53
-1.94
-2.22
-2.35
-2.38
-2.36
-2.34
-2.38
-2.46
-2.57
-2.66
-2.67
-2.54
-2.28
-1.87
-1.37
-0.84
-0.32
0.13
0.49
0.77
0.98
1.12
1.20
1.21
1.21
1.21
1.26
1.34
1.42
1.45
1.38
1.21
1.02
0.89
0.92
1.14
1.48
1.83
2.06
2.06
1.82
1.40
0.87
0.28
-0.37
-1.08
-1.81
-2.45
-2.86
-2.93
-2.68
-2.26
-1.87
-1.65
-1.62
-1.69
-1.70
-1.58
-1.36
-1.17
-1.12
-1.26
-1.52
-1.83
-2.11
-2.36
-2.61
-2.88
-3.12
-3.23
-3.12
-2.76
-2.21
-1.57
-0.96
-0.44
-0.04
0.29
0.56
0.79
0.99
1.14
1.28
1.42
1.61
1.87
2.21
2.59
2.93
3.16
3.20
3.03
2.68
2.24
1.83
1.51
1.32
1.25
1.25
1.27
1.21
1.03
0.70
0.26
-0.13
-0.34
-0.26
0.09
0.56
0.95
1.09
0.92
0.51
-0.01
-0.54
-1.05
-1.51
-1.90
-2.15
-2.17
-1.94
-1.57
-1.24
-1.15
-1.41
-1.98
-2.72
-3.42
-3.91
-4.11
-3.99
-3.57
-2.93
-2.17
-1.45
-0.91
-0.62
-0.54
-0.54
-0.47
-0.24
0.15
0.60
0.96
1.13
1.07
0.77
0.28
-0.31
-0.92
-1.42
-1.73
-1.80
-1.70
-1.54
-1.44
-1.46
-1.57
-1.65
-1.59
-1.35
-0.93
-0.44
0.04
0.46
0.86
1.33
1.92
2.66
3.50
4.30
4.90
5.19
5.15
4.85
4.42
3.98
3.58
3.18
2.73
2.16
1.52
0.91
0.43
0.11
-0.11
-0.38
-0.81
-1.42
-2.06
-2.56
-2.77
-2.67
-2.33
-1.86
-1.33
-0.79
-0.22
0.33
0.78
1.08
1.16
1.09
0.97
0.93
1.04
1.33
1.76
2.25
2.70
3.01
3.14
3.09
2.93
2.76
2.64
2.57
2.48
2.31
2.00
1.62
1.24
0.95
0.75
0.63
0.54
0.49
0.49
0.57
0.72
0.83
0.79
0.54
0.09
-0.46
-0.96
-1.26
-1.31
-1.14
-0.89
-0.71
-0.70
-0.90
-1.25
-1.65
-2.01
-2.30
-2.54
-2.81
-3.11
-3.40
-3.60
-3.59
-3.34
-2.84
-2.21
-1.61
-1.19
-1.04
-1.16
-1.43
-1.68
-1.74
-1.50
-0.98
-0.28
0.45
1.06
1.49
1.77
1.95
2.10
2.22
2.28
2.25
2.11
1.93
1.81
1.84
2.01
2.23
2.36
2.26
1.92
1.39
0.85
0.43
0.19
0.08
0.02
-0.08
-0.23
-0.39
-0.49
-0.48
-0.43
-0.43
-0.60
-0.94
-1.38
-1.75
-1.92
-1.84
-1.57
-1.27
-1.10
-1.14
-1.40
-1.79
-2.19
-2.48
-2.65
-2.75
-2.83
-2.92
-2.98
-2.97
-2.80
-2.45
-1.95
-1.34
-0.69
-0.08
0.44
0.85
1.14
1.36
1.56
1.80
2.06
2.31
2.48
2.53
2.47
2.37
2.31
2.31
2.39
2.52
2.65
2.76
2.80
2.73
2.52
2.20
1.82
1.48
1.21
1.06
0.98
0.94
0.90
0.84
0.73
0.54
0.24
-0.19
-0.69
-1.17
-1.48
-1.52
-1.31
-1.00
-0.78
-0.82
-1.19
-1.80
-2.48
-3.04
-3.35
-3.42
-3.36
-3.35
-3.50
-3.86
-4.32
-4.74
-4.96
-4.90
-4.56
-4.01
-3.32
-2.56
-1.77
-0.98
-0.29
0.20
0.43
0.41
0.22
-0.01
-0.20
-0.31
-0.37
-0.40
-0.39
-0.36
-0.31
-0.30
-0.37
-0.52
-0.71
-0.87
-0.95
-0.98
-1.04
-1.14
-1.26
-1.26
-1.04
-0.58
0.06
0.72
1.27
1.70
2.08
2.52
3.08
3.72
4.31
4.73
4.89
4.78
4.50
4.14
3.78
3.45
3.08
2.62
2.03
1.34
0.59
-0.11
-0.71
-1.18
-1.54
-1.86
-2.19
-2.57
-2.99
-3.42
-3.79
-4.01
-3.97
-3.65
-3.04
-2.24
-1.40
-0.65
-0.09
0.27
0.47
0.59
0.69
0.79
0.88
0.95
1.03
1.18
1.42
1.72
1.98
2.07
1.94
1.59
1.14
0.72
0.43
0.28
0.21
0.13
-0.03
-0.25
-0.49
-0.66
-0.77
-0.86
-1.05
-1.40
-1.91
-2.44
-2.80
-2.84
-2.55
-2.03
-1.46
-0.98
-0.60
-0.22
0.27
0.89
1.56
2.12
2.47
2.57
2.53
2.44
2.35
2.22
1.95
1.50
0.88
0.19
-0.45
-0.96
-1.30
-1.53
-1.69
-1.82
-1.89
-1.84
-1.62
-1.22
-0.67
-0.06
0.54
1.08
1.56
1.98
2.32
2.54
2.62
2.56
2.44
2.34
2.36
2.50
2.70
2.85
2.84
2.64
2.26
1.81
1.38
1.06
0.92
0.96
1.14
1.37
1.52
1.49
1.27
0.90
0.51
0.21
0.06
0.02
0.02
-0.06
-0.25
-0.51
-0.73
-0.84
-0.80
-0.69
-0.61
-0.65
-0.87
-1.22
-1.62
-1.97
-2.23
-2.39
-2.50
-2.61
-2.78
-3.04
-3.39
-3.85
-4.39
-4.99
-5.59
-6.12
-6.49
-6.59
-6.37
-5.88
-5.27
-4.73
-4.39
-4.23
-4.11
-3.85
-3.31
-2.51
-1.55
-0.58
0.34
1.24
2.18
3.15
4.07
4.84
5.39
5.75
6.01
6.23
6.37
6.34
6.02
5.42
4.66
3.94
3.41
3.13
3.06
3.07
3.06
2.96
2.77
2.51
2.22
1.91
1.59
1.29
1.00
0.73
0.50
0.32
0.19
0.13
0.11
0.11
0.10
0.09
0.14
0.32
0.66
1.09
1.45
1.51
1.15
0.34
-0.76
-1.86
-2.70
-3.12
-3.11
-2.81
-2.36
-1.88
-1.42
-0.98
-0.60
-0.29
-0.11
-0.05
-0.05
-0.03
0.05
0.17
0.28
0.29
0.17
-0.07
-0.35
-0.59
-0.73
-0.76
-0.69
-0.54
-0.31
-0.02
0.31
0.63
0.92
1.22
1.59
2.13
2.87
3.74
4.56
5.11
5.24
4.94
4.38
3.77
3.30
2.99
2.76
2.48
2.02
1.40
0.65
-0.18
-1.08
-2.06
-3.13
-4.27
-5.42
-6.49
-7.44
-8.26
-8.96
-9.60
-10.19
-10.79
-11.37
-11.91
-12.32
-12.45
-12.16
-11.34
-10.02
-8.35
-6.56
-4.83
-3.30
-1.96
-0.76
0.35
1.36
2.26
3.03
3.70
4.35
5.05
5.76
6.33
6.59
6.38
5.71
4.76
3.80
3.07
2.69
2.61
2.64
2.59
2.36
1.99
1.58
1.27
1.13
1.13
1.22
1.32
1.39
1.44
1.47
1.49
1.48
1.41
1.24
0.95
0.55
0.00
-0.71
-1.61
-2.68
-3.87
-5.09
-6.26
-7.35
-8.37
-9.32
-10.16
-10.79
-11.06
-10.78
-9.85
-8.30
-6.29
-4.03
-1.74
0.40
2.34
4.05
5.52
6.72
7.62
8.16
8.38
8.33
8.13
7.89
7.74
7.76
8.01
8.45
9.00
9.49
9.79
9.82
9.58
9.16
8.61
7.98
7.28
6.48
5.60
4.67
3.73
2.85
2.03
1.29
0.63
0.06
-0.46
-0.95
-1.48
-2.06
-2.70
-3.30
-3.77
-4.06
-4.21
-4.32
-4.57
-5.09
-5.92
-7.00
-8.20
-9.34
-10.29
-10.93
-11.24
-11.22
-10.97
-10.57
-10.14
-9.72
-9.24
-8.60
-7.63
-6.26
-4.53
-2.55
-0.48
1.59
3.63
5.63
7.61
9.49
11.20
12.62
13.66
14.25
14.35
14.01
13.32
12.50
11.79
11.40
11.40
11.77
12.33
12.93
13.46
13.86
14.09
14.10
13.82
13.15
12.04
10.49
8.60
6.47
4.18
1.77
-0.73
-3.27
-5.77
-8.09
-10.09
-11.63
-12.67
-13.25
-13.45
-13.40
-13.18
-12.82
-12.28
-11.52
-10.55
-9.48
-8.46
-7.64
-7.12
-6.86
-6.74
-6.60
-6.36
-5.98
-5.52
-5.02
-4.52
-4.02
-3.52
-3.06
-2.68
-2.43
-2.32
-2.28
-2.17
-1.89
-1.40
-0.79
-0.20
0.20
0.33
0.25
0.05
-0.14
-0.28
-0.42
-0.67
-1.08
-1.61
-2.15
-2.54
-2.67
-2.56
-2.29
-2.00
-1.77
-1.61
-1.49
-1.38
-1.28
-1.24
-1.32
-1.54
-1.83
-2.11
-2.25
-2.18
-1.91
-1.46
-0.87
-0.15
0.70
1.70
2.82
3.97
5.04
5.94
6.58
6.92
6.97
6.75
6.34
5.83
5.31
4.88
4.62
4.57
4.72
4.99
5.26
5.37
5.22
4.77
4.12
3.44
2.88
2.52
2.33
2.21
2.06
1.82
1.51
1.19
0.88
0.60
0.30
-0.03
-0.36
-0.67
-0.95
-1.22
-1.55
-1.95
-2.43
-2.90
-3.28
-3.51
-3.63
-3.74
-3.94
-4.31
-4.79
-5.29
-5.70
-5.97
-6.06
-5.96
-5.65
-5.09
-4.26
-3.23
-2.10
-1.00
-0.02
0.80
1.45
1.91
2.15
2.16
1.95
1.66
1.45
1.46
1.73
2.20
2.66
2.96
3.00
2.83
2.58
2.45
2.53
2.83
3.20
3.47
3.48
3.21
2.74
2.23
1.80
1.51
1.32
1.15
0.98
0.78
0.60
0.42
0.23
0.03
-0.17
-0.32
-0.36
-0.29
-0.19
-0.18
-0.38
-0.88
-1.68
-2.72
-3.85
-4.87
-5.60
-5.87
-5.63
-4.97
-4.10
-3.25
-2.60
-2.16
-1.85
-1.53
-1.11
-0.61
-0.09
0.43
0.97
1.58
2.27
2.94
3.45
3.67
3.57
3.26
2.95
2.83
2.99
3.38
3.89
4.37
4.71
4.86
4.78
4.46
3.92
3.22
2.49
1.84
1.33
0.96
0.64
0.31
-0.08
-0.49
-0.83
-1.04
-1.13
-1.13
-1.12
-1.18
-1.34
-1.62
-1.97
-2.36
-2.76
-3.13
-3.48
-3.83
-4.19
-4.51
-4.66
-4.45
-3.72
-2.44
-0.73
1.08
2.60
3.47
3.43
2.41
0.46
-2.20
-5.29
-8.48
-11.42
-13.86
-15.63
-16.71
-17.19
-17.21
-16.91
-16.38
-15.64
-14.69
-13.49
-12.04
-10.38
-8.55
-6.62
-4.62
-2.54
-0.40
1.73
3.72
5.41
6.64
7.35
7.57
7.44
7.04
6.48
5.76
4.89
3.92
2.94
2.09
1.50
1.24
1.30
1.55
1.86
2.12
2.32
2.56
3.01
3.78
4.89
6.22
7.59
8.82
9.79
10.48
10.97
11.39
11.81
12.29
12.85
13.48
14.16
14.83
15.33
15.46
14.97
13.65
11.46
8.59
5.44
2.49
0.12
-1.48
-2.38
-2.78
-2.92
-2.93
-2.83
-2.62
-2.33
-2.07
-1.98
-2.18
-2.65
-3.23
-3.71
-3.90
-3.74
-3.32
-2.78
-2.27
-1.81
-1.33
-0.73
0.03
0.85
1.57
2.06
2.32
2.51
2.81
3.32
3.98
4.58
4.88
4.72
4.08
3.08
1.89
0.65
-0.54
-1.62
-2.52
-3.18
-3.55
-3.64
-3.49
-3.17
-2.74
-2.25
-1.73
-1.15
-0.50
0.26
1.07
1.85
2.46
2.84
2.99
3.05
3.19
3.53
4.08
4.74
5.39
5.94
6.42
6.91
7.50
8.18
8.82
9.24
9.21
8.64
7.51
5.94
4.01
1.85
-0.48
-2.89
-5.24
-7.32
-8.88
-9.79
-10.02
-9.75
-9.23
-8.71
-8.39
-8.35
-8.59
-9.04
-9.64
-10.32
-10.98
-11.50
-11.76
-11.68
-11.23
-10.45
-9.40
-8.16
-6.80
-5.41
-4.11
-3.04
-2.31
-1.96
-1.90
-1.95
-1.90
-1.63
-1.11
-0.43
0.29
0.96
1.56
2.07
2.47
2.74
2.86
2.92
3.01
3.27
3.73
4.30
4.84
5.20
5.35
5.33
5.25
5.16
5.06
4.91
4.69
4.41
4.14
3.92
3.73
3.55
3.34
3.12
2.89
2.63
2.25
1.61
0.65
-0.61
-2.00
-3.26
-4.20
-4.69
-4.77
-4.50
-3.97
-3.25
-2.40
-1.48
-0.55
0.31
1.08
1.74
2.27
2.63
2.79
2.77
2.62
2.46
2.38
2.43
2.58
2.73
2.78
2.68
2.42
2.06
1.65
1.26
0.92
0.66
0.42
0.16
-0.16
-0.57
-1.03
-1.45
-1.74
-1.90
-1.95
-1.98
-2.09
-2.28
-2.53
-2.78
-3.03
-3.33
-3.74
-4.34
-5.11
-5.96
-6.75
-7.35
-7.65
-7.61
-7.27
-6.68
-5.96
-5.20
-4.52
-3.97
-3.57
-3.24
-2.92
-2.54
-2.11
-1.69
-1.38
-1.29
-1.43
-1.76
-2.17
-2.49
-2.60
-2.49
-2.27
-2.12
-2.26
-2.77
-3.65
-4.72
-5.81
-6.75
-7.50
-8.07
-8.51
-8.89
-9.29
-9.79
-10.55
-11.73
-13.45
-15.68
-18.25
-20.90
-23.37
-25.53
-27.39
-29.05
-30.66
-32.27
-33.81
-35.15
-36.06
-36.36
-35.86
-34.34
-31.52
-27.12
-20.90
-12.80
-3.10
7.65
18.67
29.24
38.81
47.15
54.31
60.47
65.79
70.40
74.31
77.49
79.86
81.30
81.65
80.72
78.35
74.48
69.20
62.83
55.86
48.88
42.44
36.91
32.40
28.67
25.26
21.68
17.57
12.85
7.75
2.63
-2.17
-6.43
-10.12
-13.29
-15.99
-18.19
-19.88
-21.19
-22.55
-24.36
-26.82
-29.61
-32.06
-33.32
-32.78
-30.37
-26.62
-22.52
-18.93
-16.21
-14.30
-13.07
-12.60
-13.32
-15.73
-20.18
-26.79
-34.98
-43.63
-51.58
-58.08
-62.98
-66.48
-68.77
-69.87
-69.90
-68.63
-65.68
-60.77
-53.98
-45.69
-36.38
-26.39
-13.75
1.65
18.13
33.20
45.14
53.51
58.61
60.92
61.48
60.69
58.51
55.21
51.38
47.58
44.02
40.48
36.38
31.47
25.78
19.34
12.48
5.66
-0.76
-6.57
-11.69
-15.98
-19.17
-21.14
-22.00
-22.01
-21.40
-20.34
-18.93
-17.18
-15.07
-12.55
-9.71
-6.79
-4.00
-1.41
1.05
3.50
6.09
8.81
11.56
14.07
16.02
17.18
17.50
17.08
16.12
14.76
13.06
11.02
8.54
5.59
2.23
-1.36
-4.91
-8.03
-10.38
-11.63
-11.60
-10.23
-7.67
-4.22
-0.34
3.52
6.87
9.36
10.82
11.26
10.89
9.98
8.79
7.44
5.89
3.98
1.53
-1.46
-4.85
-8.30
-11.45
-14.01
-15.80
-16.78
-17.01
-16.58
-15.65
-14.39
-13.02
-11.72
-10.59
-9.63
-8.76
-7.94
-7.13
-6.39
-5.74
-5.22
-4.81
-4.48
-4.20
-3.94
-3.68
-3.36
-2.95
-2.44
-1.86
-1.29
-0.80
-0.45
-0.28
-0.26
-0.36
-0.55
-0.81
-1.16
-1.58
-2.05
-2.49
-2.77
-2.76
-2.37
-1.59
-0.50
0.70
1.78
2.59
3.04
3.18
3.14
3.00
2.86
2.69
2.47
2.15
1.77
1.43
1.27
1.39
1.81
2.41
3.00
3.39
3.47
3.27
2.90
2.49
2.16
1.92
1.75
1.61
1.48
1.34
1.22
1.05
0.79
0.38
-0.21
-0.92
-1.63
-2.22
-2.60
-2.75
-2.73
-2.69
-2.77
-3.06
-3.53
-4.03
-4.34
-4.24
-3.65
-2.61
-1.33
-0.03
1.13
2.06
2.77
3.30
3.68
3.92
4.04
4.04
3.99
3.96
4.01
4.18
4.41
4.62
4.68
4.51
4.12
3.59
3.07
2.68
2.47
2.40
2.37
2.28
2.09
1.82
1.47
1.06
0.60
0.08
-0.46
-0.98
-1.41
-1.71
-1.90
-2.01
-2.10
-2.26
-2.51
-2.87
-3.33
-3.80
-4.19
-4.37
-4.24
-3.80
-3.10
-2.24
-1.35
-0.51
0.24
0.87
1.40
1.85
2.24
2.61
2.99
3.40
3.83
4.23
4.56
4.80
4.94
4.98
4.88
4.61
4.19
3.72
3.32
3.11
3.10
3.21
3.28
3.20
2.94
2.58
2.23
1.97
1.78
1.61
1.36
0.96
0.42
-0.18
-0.71
-1.06
-1.16
-1.04
-0.80
-0.61
-0.62
-0.93
-1.54
-2.33
-3.15
-3.79
-4.11
-4.02
-3.53
-2.72
-1.71
-0.63
0.42
1.37
2.18
2.81
3.25
3.53
3.67
3.73
3.71
3.60
3.37
3.08
2.80
2.68
2.78
3.05
3.32
3.42
3.24
2.84
2.41
2.13
2.10
2.27
2.44
2.43
2.16
1.69
1.18
0.84
0.74
0.88
1.09
1.23
1.16
0.84
0.30
-0.39
-1.18
-2.04
-2.95
-3.88
-4.85
-5.87
-7.00
-8.33
-9.88
-11.57
-13.16
-14.32
-14.68
-13.98
-12.15
-9.39
-6.04
-2.61
0.38
2.48
3.34
2.83
1.09
-1.53
-4.53
-7.40
-9.75
-11.31
-11.89
-11.31
-9.30
-5.57
0.04
7.40
16.00
25.02
33.50
40.52
45.47
48.06
48.41
46.91
44.09
40.51
36.60
32.65
28.82
25.18
21.73
18.44
15.20
11.84
8.14
3.96
-0.67
-5.53
-10.22
-14.25
-17.26
-19.09
-19.83
-19.76
-19.23
-18.46
-17.57
-16.50
-15.20
-13.68
-12.07
-10.53
-9.24
-8.26
-7.52
-6.91
-6.30
-5.59
-4.74
-3.71
-2.54
-1.28
-0.01
1.17
2.12
2.78
3.15
3.27
3.24
3.11
2.87
2.45
1.74
0.72
-0.53
-1.83
-2.97
-3.82
-4.37
-4.70
-4.95
-5.25
-5.65
-6.14
-6.65
-7.07
-7.30
-7.24
-6.87
-6.28
-5.60
-5.02
-4.62
-4.39
-4.20
-3.94
-3.55
-3.07
-2.56
-2.09
-1.70
-1.36
-1.09
-0.90
-0.84
-0.87
-0.97
-1.05
-1.07
-1.05
-0.99
-0.95
-0.93
-0.91
-0.91
-0.94
-1.03
-1.14
-1.19
-1.09
-0.77
-0.26
0.30
0.71
0.82
0.60
0.09
-0.56
-1.21
-1.72
-2.02
-2.12
-2.08
-2.03
-2.08
-2.30
-2.68
-3.15
-3.60
-3.96
-4.21
-4.38
-4.47
-4.52
-4.55
-4.59
-4.66
-4.75
-4.81
-4.70
-4.30
-3.55
-2.45
-1.18
0.08
1.11
1.78
2.04
1.95
1.63
1.24
0.93
0.80
0.88
1.13
1.43
1.65
1.67
1.46
1.08
0.65
0.31
0.18
0.30
0.61
1.01
1.39
1.69
1.87
1.96
1.98
1.92
1.75
1.39
0.83
0.08
-0.75
-1.51
-2.07
-2.36
-2.43
-2.42
-2.50
-2.83
-3.44
-4.25
-5.08
-5.73
-6.07
-6.05
-5.72
-5.16
-4.44
-3.61
-2.64
-1.52
-0.27
1.02
2.23
3.16
3.70
3.78
3.41
2.70
1.81
0.93
0.24
-0.12
-0.09
0.26
0.77
1.24
1.51
1.53
1.37
1.18
1.09
1.15
1.32
1.52
1.67
1.75
1.75
1.67
1.51
1.21
0.77
0.15
-0.62
-1.47
-2.32
-3.06
-3.58
-3.84
-3.88
-3.83
-3.88
-4.18
-4.79
-5.59
-6.37
-6.88
-6.95
-6.52
-5.69
-4.61
-3.45
-2.30
-1.24
-0.32
0.45
1.02
1.39
1.56
1.57
1.44
1.24
1.05
0.95
1.02
1.28
1.70
2.21
2.70
3.07
3.28
3.34
3.27
3.15
3.02
2.96
3.00
3.15
3.39
3.63
3.77
3.73
3.46
2.99
2.36
1.62
0.81
-0.04
-0.86
-1.56
-2.06
-2.30
-2.36
-2.36
-2.46
-2.77
-3.27
-3.86
-4.40
-4.80
-5.06
-5.25
-5.42
-5.54
-5.49
-5.13
-4.39
-3.29
-2.01
-0.74
0.34
1.14
1.67
1.97
2.10
2.11
2.04
1.93
1.84
1.87
2.10
2.58
3.29
4.17
5.04
5.73
6.10
6.11
5.82
5.40
5.03
4.84
4.83
4.95
5.04
4.99
4.71
4.20
3.53
2.77
2.01
1.27
0.55
-0.20
-0.96
-1.71
-2.31
-2.66
-2.72
-2.52
-2.20
-1.93
-1.85
-2.01
-2.40
-2.93
-3.52
-4.05
-4.42
-4.56
-4.39
-3.89
-3.11
-2.12
-1.05
-0.04
0.80
1.39
1.72
1.85
1.85
1.84
1.88
2.01
2.24
2.54
2.91
3.33
3.78
4.20
4.51
4.66
4.62
4.46
4.27
4.17
4.17
4.28
4.43
4.52
4.49
4.27
3.83
3.19
2.40
1.58
0.84
0.25
-0.16
-0.46
-0.69
-0.89
-1.03
-1.08
-1.08
-1.09
-1.17
-1.37
-1.65
-1.91
-2.08
-2.12
-2.12
-2.19
-2.42
-2.87
-3.50
-4.24
-4.95
-5.52
-5.83
-5.82
-5.48
-4.87
-4.10
-3.28
-2.47
-1.65
-0.78
0.15
1.10
1.94
2.55
2.87
2.94
2.90
2.92
3.13
3.55
4.08
4.56
4.88
5.00
4.95
4.84
4.74
4.64
4.46
4.09
3.50
2.74
1.99
1.42
1.13
1.10
1.20
1.27
1.22
1.03
0.75
0.48
0.25
0.11
0.09
0.19
0.43
0.77
1.11
1.30
1.26
0.98
0.51
-0.03
-0.56
-1.05
-1.52
-2.02
-2.57
-3.15
-3.71
-4.21
-4.61
-4.87
-4.97
-4.86
-4.49
-3.88
-3.09
-2.20
-1.34
-0.58
0.02
0.45
0.73
0.87
0.90
0.86
0.81
0.80
0.86
0.95
1.02
1.06
1.10
1.21
1.46
1.83
2.16
2.28
2.06
1.52
0.82
0.19
-0.19
-0.28
-0.16
0.02
0.17
0.23
0.25
0.27
0.30
0.32
0.29
0.19
0.03
-0.13
-0.27
-0.40
-0.52
-0.67
-0.87
-1.11
-1.40
-1.77
-2.20
-2.73
-3.36
-4.06
-4.79
-5.47
-6.01
-6.31
-6.27
-5.82
-4.96
-3.75
-2.36
-1.01
0.11
0.87
1.32
1.54
1.69
1.85
2.05
2.24
2.34
2.31
2.20
2.11
2.10
2.21
2.38
2.51
2.50
2.31
1.96
1.54
1.15
0.86
0.73
0.79
1.00
1.31
1.66
1.99
2.22
2.31
2.24
2.01
1.65
1.21
0.75
0.35
0.02
-0.25
-0.51
-0.83
-1.21
-1.62
-1.98
-2.24
-2.41
-2.57
-2.84
-3.32
-4.05
-4.92
-5.81
-6.55
-7.05
-7.29
-7.29
-7.05
-6.57
-5.82
-4.81
-3.62
-2.40
-1.34
-0.54
-0.04
0.26
0.51
0.81
1.24
1.78
2.36
2.89
3.28
3.48
3.51
3.43
3.31
3.23
3.20
3.14
2.99
2.72
2.33
1.92
1.55
1.26
1.07
0.95
0.87
0.81
0.74
0.61
0.38
0.03
-0.39
-0.82
-1.15
-1.34
-1.40
-1.41
-1.49
-1.72
-2.12
-2.60
-3.02
-3.29
-3.36
-3.30
-3.26
-3.39
-3.76
-4.32
-4.93
-5.43
-5.71
-5.73
-5.49
-5.04
-4.42
-3.69
-2.86
-2.00
-1.11
-0.22
0.63
1.40
2.03
2.45
2.69
2.82
2.94
3.14
3.41
3.68
3.84
3.82
3.63
3.36
3.14
3.05
3.05
3.06
2.93
2.62
2.18
1.76
1.47
1.36
1.33
1.24
0.95
0.46
-0.13
-0.68
-1.11
-1.46
-1.88
-2.50
-3.41
-4.52
-5.66
-6.68
-7.52
-8.22
-8.88
-9.63
-10.52
-11.59
-12.81
-14.11
-15.45
-16.79
-18.11
-19.34
-20.39
-21.12
-21.44
-21.26
-20.59
-19.55
-18.32
-17.03
-15.68
-14.15
-12.20
-9.62
-6.27
-2.14
2.52
7.26
11.59
15.16
17.89
19.99
21.84
23.93
26.71
30.22
34.08
37.60
40.24
41.73
42.15
41.71
40.80
39.75
38.35
35.84
31.30
24.30
15.11
4.83
-5.07
-12.72
-16.35
-15.04
-9.23
-0.44
9.17
17.04
20.75
17.12
4.73
-13.65
-31.64
-42.82
-44.13
-36.43
-24.36
-11.47
-0.41
7.71
13.08
16.40
18.11
17.76
14.82
9.76
3.66
-2.51
-7.67
-10.91
-11.87
-11.16
-9.85
-8.76
-8.23
-8.04
-7.84
-7.05
-5.15
-2.24
0.98
3.59
4.98
5.06
4.19
2.85
1.61
0.83
0.56
0.52
0.31
-0.34
-1.51
-3.13
-5.01
-6.85
-8.33
-9.27
-9.70
-9.83
-9.92
-10.14
-10.49
-10.85
-10.99
-10.74
-10.06
-9.02
-7.80
-6.55
-5.42
-4.51
-3.82
-3.28
-2.75
-2.01
-0.86
0.84
3.08
5.72
8.49
11.11
13.33
15.06
16.27
17.03
17.39
17.29
16.67
15.47
13.67
11.41
8.84
6.15
3.47
0.91
-1.48
-3.62
-5.46
-6.94
-8.07
-8.87
-9.39
-9.63
-9.60
-9.34
-8.93
-8.51
-8.20
-8.07
-8.11
-8.22
-8.31
-8.35
-8.34
-8.33
-8.32
-8.28
-8.18
-8.01
-7.85
-7.81
-7.99
-8.37
-8.83
-9.10
-8.94
-8.22
-7.00
-5.45
-3.81
-2.25
-0.86
0.33
1.33
2.12
2.65
2.92
2.97
2.96
3.05
3.35
3.88
4.53
5.13
5.52
5.65
5.55
5.32
5.08
4.91
4.80
4.67
4.44
4.06
3.53
2.93
2.35
1.88
1.54
1.30
1.10
0.90
0.66
0.41
0.19
0.01
-0.14
-0.34
-0.65
-1.14
-1.86
-2.76
-3.75
-4.68
-5.33
-5.55
-5.24
-4.42
-3.24
-1.91
-0.64
0.41
1.19
1.75
2.19
2.60
3.05
3.55
4.03
4.46
4.80
5.06
5.27
5.44
5.53
5.51
5.35
5.07
4.78
4.57
4.45
4.41
4.34
4.18
3.90
3.52
3.08
2.59
1.99
1.26
0.37
-0.59
-1.48
-2.17
-2.61
-2.85
-3.02
-3.24
-3.59
-4.06
-4.56
-4.96
-5.11
-4.91
-4.33
-3.45
-2.38
-1.23
-0.13
0.88
1.77
2.53
3.13
3.54
3.75
3.78
3.72
3.65
3.65
3.70
3.79
3.89
3.95
3.95
3.87
3.69
3.45
3.20
3.02
2.92
2.86
2.74
2.48
2.05
1.56
1.13
0.88
0.82
0.87
0.91
0.86
0.70
0.44
0.08
-0.37
-0.90
-1.49
-2.08
-2.58
-2.92
-3.03
-2.85
-2.40
-1.71
-0.88
-0.00
0.84
1.58
2.24
2.86
3.47
4.05
4.56
4.92
5.09
5.06
4.90
4.74
4.64
4.65
4.75
4.87
4.93
4.89
4.76
4.54
4.27
3.96
3.60
3.15
2.61
2.01
1.39
0.80
0.25
-0.20
-0.54
-0.78
-0.93
-1.04
-1.19
-1.47
-1.89
-2.40
-2.84
-3.04
-2.86
-2.29
-1.45
-0.53
0.26
0.79
1.05
1.14
1.19
1.33
1.61
1.99
2.42
2.80
3.10
3.30
3.40
3.42
3.38
3.29
3.18
3.07
2.98
2.91
2.82
2.65
2.36
1.96
1.49
1.05
0.72
0.53
0.44
0.39
0.31
0.18
-0.01
-0.23
-0.50
-0.80
-1.15
-1.55
-2.00
-2.49
-3.02
-3.61
-4.25
-4.93
-5.56
-6.05
-6.27
-6.08
-5.44
-4.37
-3.01
-1.57
-0.28
0.73
1.39
1.79
2.04
2.26
2.46
2.65
2.80
2.93
3.09
3.34
3.68
4.05
4.34
4.50
4.51
4.43
4.31
4.20
4.06
3.84
3.50
3.07
2.65
2.34
2.21
2.25
2.40
2.60
2.77
2.89
2.95
2.95
2.91
2.86
2.83
2.85
2.91
2.99
3.01
2.92
2.71
2.42
2.15
2.02
2.13
2.56
3.35
4.51
5.95
7.49
8.86
9.84
10.24
10.04
9.36
8.40
7.31
6.15
4.82
3.22
1.30
-0.83
-2.95
-4.82
-6.33
-7.48
-8.42
-9.25
-10.01
-10.60
-10.85
-10.73
-10.29
-9.72
-9.22
-8.86
-8.59
-8.29
-7.88
-7.38
-6.86
-6.43
-6.12
-5.91
-5.76
-5.62
-5.53
-5.52
-5.58
-5.65
-5.68
-5.62
-5.52
-5.45
-5.51
-5.70
-6.00
-6.25
-6.31
-6.03
-5.38
-4.44
-3.40
-2.46
-1.76
-1.28
-0.90
-0.50
0.01
0.58
1.09
1.42
1.51
1.42
1.24
1.08
0.99
1.01
1.15
1.43
1.85
2.35
2.87
3.33
3.66
3.84
3.85
3.73
3.49
3.17
2.79
2.39
1.99
1.57
1.13
0.65
0.18
-0.28
-0.70
-1.09
-1.46
-1.81
-2.16
-2.50
-2.83
-3.18
-3.55
-3.97
-4.41
-4.82
-5.15
-5.35
-5.39
-5.23
-4.83
-4.15
-3.23
-2.15
-1.09
-0.20
0.45
0.89
1.25
1.66
2.16
2.67
3.07
3.26
3.24
3.15
3.11
3.22
3.44
3.64
3.68
3.50
3.16
2.79
2.52
2.42
2.46
2.55
2.61
2.57
2.41
2.12
1.69
1.16
0.58
0.03
-0.40
-0.66
-0.80
-0.87
-0.96
-1.14
-1.41
-1.74
-2.08
-2.36
-2.57
-2.66
-2.63
-2.51
-2.37
-2.32
-2.46
-2.80
-3.25
-3.62
-3.73
-3.49
-2.98
-2.32
-1.65
-1.05
-0.49
0.09
0.71
1.32
1.83
2.18
2.36
2.46
2.62
2.90
3.33
3.79
4.15
4.29
4.16
3.81
3.36
2.94
2.66
2.54
2.50
2.46
2.34
2.10
1.74
1.26
0.70
0.11
-0.43
-0.81
-0.97
-0.91
-0.74
-0.61
-0.66
-0.97
-1.47
-2.07
-2.64
-3.10
-3.43
-3.62
-3.70
-3.68
-3.60
-3.53
-3.58
-3.82
-4.23
-4.67
-4.93
-4.80
-4.21
-3.25
-2.12
-1.08
-0.30
0.17
0.40
0.54
0.71
0.98
1.32
1.64
1.85
1.92
1.86
1.78
1.75
1.83
2.01
2.22
2.41
2.54
2.63
2.69
2.73
2.68
2.48
2.11
1.59
1.04
0.61
0.39
0.38
0.50
0.62
0.64
0.51
0.27
-0.02
-0.29
-0.54
-0.82
-1.15
-1.56
-1.98
-2.34
-2.55
-2.60
-2.53
-2.48
-2.56
-2.84
-3.29
-3.84
-4.37
-4.80
-5.05
-5.11
-4.99
-4.70
-4.29
-3.78
-3.20
-2.55
-1.85
-1.10
-0.35
0.38
1.06
1.70
2.31
2.89
3.41
3.79
3.97
3.94
3.72
3.41
3.07
2.77
2.53
2.39
2.35
2.40
2.50
2.56
2.50
2.28
1.93
1.55
1.23
0.97
0.75
0.53
0.29
0.10
0.00
0.04
0.14
0.21
0.16
-0.05
-0.39
-0.78
-1.15
-1.48
-1.80
-2.10
-2.37
-2.59
-2.72
-2.77
-2.81
-2.91
-3.15
-3.56
-4.10
-4.65
-5.06
-5.20
-5.01
-4.52
-3.80
-2.95
-2.03
-1.13
-0.30
0.39
0.90
1.24
1.46
1.70
2.04
2.51
3.07
3.57
3.92
4.03
3.93
3.67
3.34
3.03
2.82
2.73
2.77
2.89
3.01
3.06
3.00
2.83
2.58
2.28
1.94
1.60
1.28
1.01
0.84
0.76
0.71
0.61
0.37
-0.05
-0.59
-1.15
-1.58
-1.82
-1.91
-1.98
-2.18
-2.58
-3.15
-3.75
-4.24
-4.52
-4.63
-4.65
-4.63
-4.60
-4.47
-4.15
-3.57
-2.79
-1.90
-1.02
-0.21
0.52
1.17
1.74
2.17
2.40
2.40
2.21
1.99
1.87
1.96
2.27
2.69
3.08
3.31
3.35
3.21
2.98
2.69
2.39
2.11
1.85
1.64
1.52
1.48
1.47
1.44
1.32
1.07
0.67
0.17
-0.36
-0.85
-1.19
-1.37
-1.41
-1.40
-1.44
-1.62
-1.95
-2.42
-2.92
-3.42
-3.86
-4.27
-4.65
-4.99
-5.26
-5.38
-5.29
-4.94
-4.35
-3.60
-2.82
-2.10
-1.47
-0.90
-0.30
0.38
1.13
1.88
2.54
3.04
3.37
3.56
3.65
3.66
3.59
3.44
3.30
3.22
3.23
3.28
3.24
3.00
2.55
1.99
1.49
1.19
1.10
1.12
1.11
0.91
0.51
-0.02
-0.57
-0.98
-1.18
-1.18
-1.05
-0.92
-0.94
-1.13
-1.48
-1.87
-2.16
-2.31
-2.32
-2.29
-2.30
-2.42
-2.60
-2.81
-3.02
-3.24
-3.46
-3.69
-3.86
-3.90
-3.78
-3.49
-3.06
-2.53
-1.93
-1.27
-0.56
0.15
0.84
1.48
2.07
2.63
3.19
3.71
4.15
4.48
4.69
4.82
4.94
5.07
5.16
5.18
5.09
4.89
4.65
4.38
4.07
3.66
3.06
2.27
1.37
0.55
-0.02
-0.25
-0.18
0.09
0.41
0.69
0.90
1.06
1.16
1.15
0.94
0.49
-0.18
-0.94
-1.62
-2.09
-2.32
-2.37
-2.37
-2.41
-2.52
-2.68
-2.86
-3.07
-3.35
-3.74
-4.24
-4.71
-4.98
-4.90
-4.41
-3.62
-2.73
-1.95
-1.40
-1.06
-0.79
-0.45
0.05
0.71
1.43
2.06
2.49
2.69
2.72
2.71
2.81
3.10
3.53
3.99
4.27
4.26
3.90
3.32
2.67
2.12
1.80
1.71
1.80
1.96
2.09
2.10
1.95
1.62
1.14
0.58
-0.00
-0.53
-0.94
-1.22
-1.38
-1.47
-1.57
-1.73
-2.00
-2.36
-2.75
-3.11
-3.41
-3.64
-3.81
-3.93
-4.02
-4.06
-4.00
-3.84
-3.55
-3.14
-2.61
-2.02
-1.40
-0.83
-0.33
0.03
0.26
0.40
0.53
0.72
1.03
1.48
2.03
2.62
3.17
3.61
3.92
4.05
4.00
3.77
3.37
2.87
2.34
1.88
1.57
1.46
1.49
1.60
1.66
1.58
1.34
1.00
0.68
0.46
0.40
0.43
0.43
0.30
-0.02
-0.49
-1.01
-1.51
-1.95
-2.36
-2.76
-3.18
-3.55
-3.81
-3.94
-3.97
-4.00
-4.13
-4.42
-4.83
-5.23
-5.48
-5.46
-5.16
-4.63
-3.97
-3.27
-2.59
-1.95
-1.35
-0.78
-0.29
0.12
0.42
0.64
0.82
0.98
1.13
1.24
1.27
1.18
0.98
0.76
0.63
0.69
1.01
1.55
2.22
2.83
3.25
3.43
3.45
3.45
3.56
3.79
4.09
4.33
4.42
4.33
4.12
3.86
3.58
3.26
2.87
2.38
1.78
1.12
0.43
-0.22
-0.78
-1.21
-1.45
-1.54
-1.56
-1.65
-1.95
-2.51
-3.26
-3.98
-4.43
-4.45
-3.99
-3.18
-2.21
-1.25
-0.40
0.32
0.93
1.43
1.80
2.02
2.14
2.23
2.36
2.58
2.82
3.02
3.09
3.03
2.90
2.77
2.69
2.66
2.63
2.58
2.51
2.43
2.37
2.27
2.05
1.61
0.97
0.26
-0.32
-0.57
-0.44
-0.05
0.32
0.42
0.12
-0.52
-1.30
-2.05
-2.67
-3.16
-3.57
-3.90
-4.08
-4.05
-3.83
-3.57
-3.47
-3.71
-4.30
-5.07
-5.74
-6.04
-5.82
-5.09
-4.04
-2.84
-1.67
-0.63
0.25
0.99
1.57
1.99
2.28
2.48
2.64
2.79
2.92
2.96
2.83
2.52
2.05
1.52
1.01
0.54
0.06
-0.50
-1.16
-1.88
-2.54
-3.02
-3.24
-3.23
-3.08
-2.87
-2.67
-2.44
-2.13
-1.65
-0.94
0.01
1.14
2.33
3.43
4.31
4.90
5.24
5.44
5.68
6.07
6.65
7.31
7.89
8.22
8.22
7.88
7.22
6.28
5.08
3.64
2.04
0.40
-1.14
-2.46
-3.49
-4.23
-4.74
-5.07
-5.21
-5.16
-4.89
-4.38
-3.65
-2.77
-1.80
-0.80
0.15
1.01
1.74
2.26
2.54
2.57
2.38
2.12
1.96
2.04
2.44
3.05
3.65
3.95
3.74
2.93
1.67
0.26
-0.99
-1.83
-2.21
-2.25
-2.15
-2.06
-2.02
-1.99
-1.92
-1.81
-1.77
-1.88
-2.17
-2.52
-2.81
-2.94
-2.97
-3.07
-3.45
-4.22
-5.35
-6.65
-7.85
-8.76
-9.20
-9.14
-8.57
-7.59
-6.30
-4.90
-3.59
-2.53
-1.80
-1.41
-1.27
-1.26
-1.27
-1.22
-1.09
-0.93
-0.81
-0.78
-0.85
-0.99
-1.08
-1.04
-0.79
-0.34
0.26
0.89
1.49
1.99
2.38
2.71
3.01
3.33
3.69
4.05
4.41
4.69
4.87
4.89
4.73
4.41
3.97
3.46
2.95
2.46
1.96
1.40
0.77
0.07
-0.62
-1.20
-1.61
-1.86
-1.98
-2.02
-1.99
-1.86
-1.64
-1.35
-1.08
-0.85
-0.65
-0.39
0.06
0.73
1.60
2.52
3.32
3.86
4.09
4.06
3.88
3.68
3.58
3.60
3.69
3.76
3.69
3.45
3.03
2.52
1.99
1.49
1.00
0.52
0.06
-0.30
-0.49
-0.49
-0.34
-0.16
-0.07
-0.12
-0.29
-0.54
-0.85
-1.18
-1.55
-1.91
-2.21
-2.42
-2.55
-2.68
-2.94
-3.42
-4.12
-4.90
-5.57
-5.87
-5.67
-4.96
-3.89
-2.72
-1.70
-0.98
-0.57
-0.31
-0.07
0.28
0.76
1.29
1.81
2.25
2.59
2.83
2.97
3.02
3.05
3.12
3.30
3.61
3.98
4.27
4.35
4.17
3.79
3.34
2.94
2.64
2.43
2.25
2.10
1.99
1.97
2.01
2.03
1.92
1.60
1.08
0.49
0.01
-0.28
-0.41
-0.49
-0.69
-1.05
-1.50
-1.93
-2.24
-2.41
-2.54
-2.73
-3.08
-3.57
-4.14
-4.64
-4.93
-4.93
-4.60
-4.02
-3.32
-2.63
-2.01
-1.45
-0.91
-0.31
0.31
0.85
1.17
1.23
1.09
0.99
1.12
1.62
2.40
3.20
3.74
3.84
3.51
2.97
2.46
2.17
2.12
2.22
2.29
2.22
1.98
1.59
1.10
0.57
0.07
-0.33
-0.56
-0.61
-0.52
-0.45
-0.52
-0.82
-1.32
-1.88
-2.33
-2.52
-2.43
-2.14
-1.84
-1.71
-1.88
-2.35
-2.98
-3.57
-3.92
-3.94
-3.67
-3.22
-2.72
-2.26
-1.80
-1.29
-0.69
0.02
0.75
1.42
1.95
2.29
2.44
2.46
2.40
2.37
2.43
2.63
2.94
3.27
3.53
3.64
3.55
3.28
2.92
2.53
2.19
1.92
1.70
1.48
1.20
0.82
0.38
-0.06
-0.41
-0.62
-0.66
-0.60
-0.53
-0.54
-0.70
-1.04
-1.51
-2.06
-2.57
-3.00
-3.30
-3.53
-3.75
-4.04
-4.41
-4.83
-5.20
-5.38
-5.26
-4.82
-4.14
-3.37
-2.63
-2.01
-1.46
-0.91
-0.30
0.37
0.99
1.48
1.75
1.87
1.94
2.10
2.43
2.90
3.40
3.78
3.98
3.98
3.87
3.77
3.74
3.77
3.76
3.59
3.18
2.56
1.88
1.30
0.94
0.80
0.78
0.75
0.61
0.36
0.04
-0.30
-0.60
-0.85
-1.05
-1.21
-1.35
-1.51
-1.77
-2.17
-2.70
-3.26
-3.73
-4.01
-4.08
-3.99
-3.82
-3.61
-3.32
-2.89
-2.30
-1.58
-0.84
-0.18
0.37
0.83
1.29
1.79
2.33
2.87
3.35
3.72
4.00
4.18
4.28
4.30
4.24
4.10
3.92
3.70
3.46
3.19
2.89
2.57
2.28
2.02
1.78
1.50
1.14
0.69
0.20
-0.26
-0.60
-0.83
-0.98
-1.12
-1.30
-1.50
-1.70
-1.89
-2.06
-2.22
-2.40
-2.61
-2.86
-3.21
-3.70
-4.34
-5.09
-5.79
-6.28
-6.44
-6.22
-5.67
-4.91
-4.04
-3.14
-2.29
-1.56
-1.03
-0.73
-0.61
-0.60
-0.59
-0.56
-0.54
-0.63
-0.96
-1.60
-2.42
-3.25
-3.94
-4.46
-4.93
-5.45
-6.12
-6.98
-8.03
-9.08
-9.95
-10.54
-10.89
-11.08
-11.13
-10.99
-10.60
-10.01
-9.10
-7.79
-6.12
-4.31
-2.53
-0.80
1.04
3.18
5.76
9.24
14.06
20.45
28.28
37.09
46.25
55.02
62.66
66.30
63.83
55.13
42.48
29.13
17.36
8.08
1.16
-3.86
-7.51
-9.92
-11.26
-11.88
-12.39
-13.32
-14.86
-16.80
-18.78
-20.55
-21.80
-22.34
-22.02
-20.77
-18.55
-15.39
-11.47
-7.19
-3.07
0.83
4.40
7.67
10.57
12.87
14.19
14.15
12.59
9.66
5.89
1.97
-1.60
-4.54
-6.87
-8.65
-9.89
-10.57
-10.70
-10.43
-10.02
-9.75
-9.74
-9.93
-10.04
-9.80
-9.10
-8.07
-7.01
-6.25
-5.92
-5.94
-6.08
-6.16
-6.11
-6.07
-6.22
-6.66
-7.28
-7.75
-7.59
-6.41
-3.94
-0.16
4.70
10.25
15.99
21.41
26.09
29.79
32.46
34.20
35.16
35.45
35.09
34.02
32.21
29.62
26.30
22.34
17.90
13.20
8.55
4.35
0.98
-1.27
-2.33
-2.35
-1.60
-0.37
1.19
3.04
5.22
7.71
10.29
12.56
13.98
14.06
12.56
9.57
5.53
1.03
-3.46
-7.70
-11.80
-15.99
-20.39
-24.86
-28.98
-32.26
-34.37
-35.34
-35.55
-35.53
-35.74
-36.35
-37.23
-38.09
-38.65
-38.83
-38.78
-38.77
-39.04
-39.58
-40.16
-40.36
-39.83
-38.40
-36.21
-33.64
-31.14
-29.00
-27.28
-25.73
-23.90
-21.33
-17.69
-12.88
-7.09
-0.73
5.60
11.26
15.67
18.48
19.78
20.14
20.55
22.16
25.74
31.31
37.98
44.17
48.23
48.99
46.17
40.37
32.79
24.73
17.29
11.15
6.63
3.74
2.31
1.99
2.31
2.74
2.84
2.39
1.48
0.38
-0.54
-1.04
-1.14
-1.05
-1.06
-1.39
-2.04
-2.87
-3.67
-4.30
-4.73
-4.99
-5.06
-4.89
-4.36
-3.45
-2.28
-1.08
-0.12
0.44
0.60
0.55
0.53
0.82
1.48
2.47
3.56
4.55
5.34
5.90
6.34
6.73
7.09
7.31
7.26
6.86
6.18
5.44
4.89
4.67
4.81
5.16
5.40
5.24
4.54
3.36
2.04
0.87
0.06
-0.31
-0.28
-0.08
0.02
-0.13
-0.52
-0.82
-0.85
-0.46
0.59
2.47
5.07
7.98
10.71
12.80
14.26
14.96
14.88
14.22
13.15
11.59
9.24
5.80
1.15
-4.34
-10.62
-17.62
-25.17
-31.31
-33.98
-32.21
-26.93
-22.03
-18.21
-15.29
-12.98
-10.16
-6.44
-1.95
2.96
7.86
12.45
16.78
20.51
23.17
24.45
24.17
22.19
18.45
13.01
6.22
-1.09
-8.28
-14.88
-20.52
-25.07
-28.57
-31.24
-33.25
-34.68
-35.21
-34.75
-33.38
-31.35
-28.93
-26.31
-23.51
-20.46
-17.06
-12.97
-8.06
-2.49
3.29
8.74
13.52
17.55
21.02
24.27
27.98
32.62
38.27
44.54
50.91
57.04
62.81
67.96
69.60
64.95
53.02
35.83
17.16
0.62
-11.65
-19.47
-24.35
-28.33
-32.61
-37.02
-40.25
-41.03
-39.01
-34.89
-29.88
-25.58
-22.27
-19.92
-18.74
-18.93
-20.56
-23.15
-25.31
-24.95
-19.90
-8.79
8.79
29.77
49.29
62.39
65.79
59.10
44.83
27.29
10.70
-2.34
-11.42
-17.43
-21.50
-24.23
-25.40
-24.69
-21.56
-16.16
-9.22
-1.94
4.70
10.02
13.56
15.18
14.97
13.20
9.97
5.08
-2.14
-11.91
-23.60
-35.56
-45.47
-51.31
-52.16
-48.73
-41.86
-33.66
-26.11
-20.30
-16.17
-12.91
-9.55
-5.54
-1.00
3.52
7.24
9.81
11.36
12.38
13.38
14.60
15.99
17.16
17.77
17.46
16.27
14.57
12.87
11.60
10.92
10.74
10.80
10.89
10.81
10.53
10.09
9.52
8.78
7.86
6.78
5.64
4.63
3.80
3.17
2.62
1.99
1.17
0.15
-0.94
-1.93
-2.63
-3.00
-3.06
-2.88
-2.56
-2.16
-1.76
-1.41
-1.17
-1.10
-1.19
-1.34
-1.42
-1.28
-0.88
-0.30
0.31
0.82
1.21
1.54
1.93
2.44
3.05
3.65
4.11
4.33
4.34
4.18
3.94
3.66
3.33
2.93
2.45
1.91
1.33
0.71
0.05
-0.72
-1.63
-2.71
-3.89
-5.08
-6.14
-6.93
-7.42
-7.60
-7.53
-7.24
-6.69
-5.82
-4.60
-3.04
-1.28
0.48
2.01
3.14
3.79
3.99
3.87
3.63
3.44
3.44
3.65
4.00
4.35
4.57
4.63
4.53
4.35
4.17
4.05
4.01
4.05
4.14
4.20
4.13
3.82
3.24
2.44
1.54
0.73
0.10
-0.34
-0.66
-0.94
-1.29
-1.75
-2.34
-3.08
-3.96
-4.89
-5.72
-6.21
-6.15
-5.45
-4.15
-2.46
-0.66
1.01
2.39
3.48
4.31
4.99
5.57
6.05
6.42
6.65
6.72
6.71
6.68
6.70
6.80
6.93
7.00
6.93
6.70
6.32
5.88
5.45
5.08
4.80
4.60
4.45
4.29
4.04
3.66
3.12
2.46
1.80
1.21
0.77
0.46
0.20
-0.09
-0.47
-0.99
-1.64
-2.43
-3.32
-4.24
-5.05
-5.53
-5.53
-4.94
-3.84
-2.42
-0.90
0.48
1.61
2.43
2.99
3.34
3.58
3.77
3.96
4.18
4.41
4.63
4.78
4.82
4.76
4.59
4.36
4.13
3.94
3.79
3.65
3.45
3.15
2.75
2.31
1.86
1.46
1.10
0.76
0.46
0.22
0.08
0.04
0.03
-0.07
-0.36
-0.89
-1.62
-2.44
-3.28
-4.07
-4.75
-5.26
-5.47
-5.30
-4.69
-3.69
-2.46
-1.17
0.02
1.04
1.84
2.46
2.91
3.17
3.28
3.25
3.17
3.10
3.10
3.16
3.23
3.23
3.10
2.87
2.63
2.47
2.44
2.53
2.66
2.74
2.70
2.53
2.22
1.81
1.30
0.74
0.14
-0.44
-0.97
-1.40
-1.67
-1.78
-1.75
-1.70
-1.76
-2.10
-2.74
-3.60
-4.46
-5.04
-5.13
-4.68
-3.78
-2.61
-1.40
-0.33
0.50
1.08
1.41
1.56
1.62
1.64
1.63
1.58
1.45
1.26
1.03
0.82
0.67
0.57
0.48
0.34
0.16
-0.01
-0.08
0.02
0.27
0.53
0.67
0.61
0.35
0.01
-0.29
-0.52
-0.73
-1.06
-1.59
-2.29
-3.02
-3.56
-3.82
-3.84
-3.75
-3.68
-3.68
-3.62
-3.36
-2.78
-1.89
-0.81
0.26
1.21
1.94
2.43
2.69
2.75
2.64
2.43
2.19
1.99
1.82
1.65
1.43
1.13
0.76
0.36
-0.02
-0.32
-0.47
-0.44
-0.25
0.03
0.30
0.44
0.44
0.35
0.24
0.15
0.04
-0.19
-0.61
-1.25
-2.03
-2.79
-3.45
-3.94
-4.29
-4.52
-4.63
-4.57
-4.27
-3.69
-2.86
-1.89
-0.91
-0.01
0.79
1.55
2.31
3.06
3.71
4.08
4.04
3.56
2.74
1.83
1.07
0.64
0.56
0.70
0.88
0.93
0.83
0.66
0.56
0.60
0.72
0.73
0.42
-0.29
-1.27
-2.24
-2.89
-3.06
-2.76
-2.21
-1.70
-1.43
-1.51
-1.88
-2.41
-2.92
-3.26
-3.29
-2.95
-2.26
-1.35
-0.38
0.49
1.12
1.44
1.43
1.11
0.57
-0.08
-0.68
-1.10
-1.22
-1.08
-0.77
-0.46
-0.30
-0.37
-0.66
-1.05
-1.38
-1.54
-1.48
-1.21
-0.83
-0.45
-0.15
0.03
0.08
0.04
-0.08
-0.25
-0.49
-0.78
-1.12
-1.52
-1.93
-2.29
-2.50
-2.47
-2.17
-1.60
-0.86
-0.10
0.56
1.05
1.37
1.54
1.61
1.58
1.48
1.31
1.15
1.04
1.02
1.08
1.16
1.23
1.23
1.18
1.08
0.96
0.82
0.69
0.61
0.58
0.64
0.72
0.74
0.58
0.21
-0.33
-0.93
-1.47
-1.90
-2.25
-2.61
-3.07
-3.63
-4.24
-4.78
-5.11
-5.13
-4.81
-4.20
-3.38
-2.45
-1.53
-0.67
0.09
0.74
1.25
1.58
1.69
1.61
1.40
1.19
1.07
1.12
1.33
1.63
1.96
2.22
2.37
2.36
2.16
1.77
1.22
0.59
-0.04
-0.62
-1.11
-1.53
-1.91
-2.24
-2.49
-2.62
-2.68
-2.71
-2.83
-3.12
-3.52
-3.92
-4.10
-3.90
-3.30
-2.41
-1.41
-0.50
0.25
0.84
1.33
1.79
2.20
2.55
2.82
3.03
3.23
3.44
3.68
3.87
3.94
3.80
3.46
3.00
2.51
2.13
1.93
1.93
2.03
2.10
2.00
1.63
1.04
0.37
-0.20
-0.55
-0.64
-0.60
-0.57
-0.68
-0.96
-1.36
-1.78
-2.12
-2.34
-2.40
-2.28
-1.93
-1.35
-0.56
0.33
1.20
1.92
2.40
2.65
2.74
2.75
2.76
2.80
2.86
2.91
2.91
2.84
2.69
2.48
2.25
1.97
1.65
1.25
0.79
0.31
-0.12
-0.46
-0.71
-0.94
-1.19
-1.50
-1.80
-2.02
-2.11
-2.09
-2.07
-2.15
-2.43
-2.87
-3.39
-3.86
-4.17
-4.29
-4.19
-3.88
-3.33
-2.53
-1.53
-0.45
0.56
1.32
1.76
1.90
1.88
1.82
1.83
1.87
1.88
1.80
1.67
1.57
1.60
1.78
2.05
2.30
2.42
2.38
2.21
1.96
1.68
1.40
1.11
0.84
0.58
0.36
0.18
0.03
-0.13
-0.34
-0.61
-0.93
-1.28
-1.64
-2.01
-2.37
-2.74
-3.10
-3.42
-3.61
-3.58
-3.22
-2.50
-1.46
-0.23
0.97
1.95
2.60
2.92
3.00
3.00
3.03
3.13
3.26
3.39
3.52
3.65
3.83
4.02
4.16
4.18
4.01
3.69
3.28
2.84
2.39
1.91
1.38
0.82
0.34
0.08
0.09
0.35
0.71
1.00
1.06
0.87
0.49
0.04
-0.42
-0.87
-1.35
-1.93
-2.59
-3.28
-3.88
-4.30
-4.50
-4.49
-4.33
-4.11
-3.90
-3.71
-3.53
-3.33
-3.08
-2.79
-2.52
-2.30
-2.12
-1.88
-1.51
-0.94
-0.25
0.41
0.83
0.93
0.71
0.33
-0.04
-0.29
-0.37
-0.33
-0.21
-0.04
0.16
0.39
0.64
0.90
1.14
1.33
1.46
1.49
1.40
1.21
0.97
0.73
0.52
0.32
0.08
-0.25
-0.66
-1.12
-1.56
-1.98
-2.37
-2.77
-3.12
-3.31
-3.18
-2.68
-1.87
-1.00
-0.32
-0.00
-0.07
-0.38
-0.68
-0.80
-0.64
-0.22
0.37
1.00
1.58
2.02
2.28
2.36
2.27
2.04
1.71
1.33
0.95
0.61
0.37
0.24
0.22
0.27
0.37
0.49
0.64
0.83
1.09
1.39
1.66
1.78
1.66
1.27
0.66
-0.04
-0.68
-1.18
-1.50
-1.71
-1.89
-2.07
-2.23
-2.29
-2.19
-1.96
-1.67
-1.45
-1.39
-1.50
-1.70
-1.89
-1.96
-1.84
-1.51
-1.00
-0.36
0.33
1.00
1.53
1.82
1.80
1.48
0.93
0.32
-0.20
-0.48
-0.47
-0.21
0.16
0.44
0.48
0.23
-0.25
-0.75
-1.05
-0.98
-0.58
0.00
0.52
0.76
0.67
0.35
-0.04
-0.38
-0.66
-0.92
-1.21
-1.52
-1.76
-1.85
-1.77
-1.59
-1.39
-1.26
-1.25
-1.37
-1.61
-1.98
-2.50
-3.12
-3.73
-4.16
-4.26
-3.94
-3.25
-2.36
-1.46
-0.74
-0.31
-0.18
-0.26
-0.43
-0.55
-0.57
-0.48
-0.37
-0.31
-0.33
-0.35
-0.27
-0.01
0.43
0.96
1.45
1.77
1.88
1.82
1.70
1.60
1.55
1.53
1.47
1.34
1.13
0.89
0.67
0.51
0.37
0.19
-0.07
-0.46
-0.94
-1.43
-1.86
-2.18
-2.41
-2.58
-2.74
-2.90
-3.05
-3.18
-3.29
-3.40
-3.53
-3.61
-3.53
-3.19
-2.58
-1.79
-1.01
-0.42
-0.08
0.07
0.19
0.41
0.74
1.09
1.32
1.37
1.30
1.24
1.31
1.53
1.84
2.10
2.21
2.14
1.93
1.64
1.35
1.13
1.03
1.06
1.22
1.43
1.56
1.53
1.30
0.92
0.50
0.16
-0.01
-0.03
0.03
0.05
-0.03
-0.23
-0.51
-0.81
-1.08
-1.31
-1.51
-1.67
-1.83
-2.00
-2.23
-2.55
-2.95
-3.35
-3.61
-3.61
-3.29
-2.70
-1.99
-1.28
-0.64
-0.06
0.51
1.03
1.40
1.50
1.32
0.99
0.73
0.76
1.13
1.73
2.29
2.62
2.62
2.38
2.10
1.94
1.95
2.05
2.13
2.10
1.96
1.78
1.68
1.71
1.86
2.05
2.17
2.14
1.91
1.54
1.10
0.68
0.33
0.07
-0.15
-0.40
-0.72
-1.15
-1.66
-2.19
-2.67
-3.10
-3.51
-3.98
-4.55
-5.17
-5.72
-6.00
-5.87
-5.31
-4.44
-3.48
-2.66
-2.14
-1.90
-1.86
-1.86
-1.84
-1.80
-1.82
-1.95
-2.23
-2.57
-2.85
-2.97
-2.91
-2.80
-2.82
-3.11
-3.70
-4.48
-5.24
-5.84
-6.23
-6.52
-6.91
-7.57
-8.57
-9.80
-11.07
-12.15
-12.88
-13.23
-13.33
-13.39
-13.57
-13.99
-14.63
-15.38
-16.01
-16.15
-15.27
-12.80
-8.26
-1.59
6.69
15.49
23.38
29.14
32.25
33.01
32.33
31.24
30.45
30.08
29.75
28.94
27.24
24.81
22.07
19.44
17.15
15.20
13.53
12.11
10.92
9.87
9.14
8.69
8.25
7.40
5.90
3.91
1.89
0.32
-0.55
-0.13
1.83
5.08
8.98
12.84
16.32
19.46
22.43
25.43
29.32
34.65
41.34
48.78
56.32
63.66
70.91
78.14
80.72
75.50
62.01
43.06
22.51
3.16
-13.57
-27.00
-36.73
-43.52
-47.17
-47.72
-45.92
-43.21
-41.11
-40.64
-41.50
-43.17
-45.01
-45.82
-44.94
-42.43
-38.96
-35.25
-31.72
-28.48
-25.65
-23.46
-21.71
-20.22
-18.75
-17.07
-14.89
-11.87
-7.73
-2.43
3.99
11.57
20.00
28.38
35.20
38.76
37.97
32.90
24.89
16.07
8.58
3.61
1.14
0.37
0.42
0.99
2.32
4.66
7.77
10.82
12.74
12.90
11.59
9.89
9.03
9.84
12.36
15.96
19.77
23.06
25.39
26.38
25.52
22.16
15.85
6.74
-4.18
-15.31
-25.00
-32.21
-36.82
-39.44
-40.99
-42.10
-42.91
-43.15
-42.50
-40.89
-38.56
-35.90
-33.19
-30.43
-27.35
-23.69
-19.36
-14.58
-9.88
-5.87
-2.95
-1.20
-0.35
0.07
0.49
1.09
1.70
1.94
1.33
-0.49
-3.59
-7.74
-12.47
-17.08
-20.86
-23.20
-23.77
-22.63
-20.24
-17.29
-14.54
-12.56
-11.55
-11.40
-11.77
-12.31
-12.83
-13.33
-13.91
-14.63
-15.40
-16.00
-16.18
-15.76
-14.71
-13.20
-11.46
-9.69
-8.03
-6.54
-5.26
-4.22
-3.46
-3.00
-2.79
-2.75
-2.77
-2.81
-2.91
-3.22
-3.84
-4.72
-5.61
-6.05
-5.50
-3.52
0.01
4.84
10.34
15.67
20.01
22.75
23.65
22.90
21.00
18.63
16.47
15.01
14.46
14.72
15.52
16.47
17.22
17.51
17.22
16.32
14.92
13.23
11.56
10.21
9.43
9.27
9.58
10.04
10.33
10.27
9.83
9.20
8.57
8.08
7.74
7.45
7.14
6.76
6.37
5.98
5.58
5.07
4.33
3.28
1.99
0.62
-0.68
-1.77
-2.67
-3.42
-4.08
-4.63
-5.03
-5.24
-5.35
-5.56
-6.11
-7.08
-8.34
-9.49
-10.04
-9.57
-7.99
-5.53
-2.65
0.09
2.30
3.84
4.76
5.20
5.28
5.01
4.37
3.39
2.20
1.00
0.05
-0.49
-0.55
-0.18
0.45
1.17
1.78
2.13
2.10
1.66
0.88
-0.11
-1.10
-1.90
-2.37
-2.49
-2.27
-1.80
-1.16
-0.43
0.30
0.98
1.51
1.80
1.72
1.21
0.26
-0.99
-2.37
-3.69
-4.82
-5.73
-6.47
-7.02
-7.27
-7.05
-6.17
-4.58
-2.39
0.09
2.51
4.56
6.14
7.26
8.05
8.67
9.17
9.55
9.79
9.89
9.88
9.81
9.70
9.50
9.18
8.73
8.21
7.73
7.37
7.14
6.99
6.84
6.64
6.38
6.16
6.02
6.00
6.08
6.14
6.09
5.85
5.35
4.63
3.75
2.82
1.97
1.26
0.70
0.23
-0.23
-0.74
-1.26
-1.70
-1.90
-1.73
-1.10
-0.06
1.26
2.64
3.82
4.64
4.99
4.88
4.37
3.54
2.48
1.29
0.07
-1.07
-2.02
-2.68
-3.03
-3.11
-3.02
-2.89
-2.83
-2.88
-3.01
-3.16
-3.32
-3.51
-3.78
-4.20
-4.74
-5.30
-5.70
-5.82
-5.66
-5.33
-4.99
-4.78
-4.74
-4.84
-4.99
-5.18
-5.44
-5.79
-6.22
-6.61
-6.75
-6.43
-5.56
-4.18
-2.49
-0.79
0.70
1.83
2.61
3.13
3.51
3.81
4.03
4.13
4.08
3.86
3.51
3.08
2.59
2.10
1.65
1.32
1.20
1.30
1.60
1.96
2.22
2.24
1.98
1.52
0.98
0.46
-0.00
-0.41
-0.80
-1.16
-1.47
-1.68
-1.79
-1.88
-2.00
-2.22
-2.51
-2.78
-2.96
-3.01
-2.95
-2.84
-2.71
-2.52
-2.17
-1.57
-0.73
0.23
1.13
1.81
2.17
2.26
2.16
1.99
1.83
1.71
1.65
1.66
1.75
1.94
2.20
2.45
2.56
2.41
1.97
1.30
0.52
-0.18
-0.68
-0.97
-1.07
-1.08
-1.03
-0.96
-0.90
-0.90
-1.02
-1.34
-1.83
-2.43
-2.99
-3.40
-3.59
-3.57
-3.33
-2.89
-2.20
-1.28
-0.18
0.93
1.86
2.47
2.70
2.60
2.29
1.92
1.61
1.45
1.48
1.70
2.04
2.41
2.65
2.67
2.46
2.08
1.66
1.31
1.09
0.99
0.96
0.95
0.91
0.88
0.85
0.85
0.83
0.73
0.46
-0.01
-0.65
-1.32
-1.88
-2.26
-2.45
-2.56
-2.67
-2.88
-3.18
-3.55
-3.90
-4.16
-4.28
-4.22
-3.95
-3.43
-2.64
-1.63
-0.52
0.54
1.39
1.95
2.27
2.43
2.57
2.74
2.92
3.00
2.89
2.57
2.12
1.66
1.32
1.10
0.97
0.87
0.78
0.71
0.68
0.70
0.75
0.76
0.73
0.66
0.60
0.56
0.49
0.37
0.16
-0.12
-0.44
-0.76
-1.12
-1.54
-2.07
-2.70
-3.34
-3.87
-4.15
-4.13
-3.80
-3.22
-2.47
-1.65
-0.84
-0.16
0.32
0.59
0.75
0.91
1.16
1.52
1.87
2.08
2.08
1.89
1.64
1.48
1.47
1.57
1.68
1.74
1.74
1.75
1.78
1.81
1.73
1.45
0.96
0.38
-0.11
-0.33
-0.23
0.06
0.34
0.39
0.12
-0.42
-1.05
-1.58
-1.91
-2.05
-2.12
-2.22
-2.37
-2.52
-2.54
-2.33
-1.86
-1.17
-0.37
0.42
1.14
1.77
2.29
2.73
3.02
3.10
2.92
2.48
1.89
1.29
0.85
0.61
0.53
0.47
0.28
-0.11
-0.66
-1.28
-1.84
-2.28
-2.60
-2.82
-2.94
-2.89
-2.55
-1.83
-0.72
0.67
2.09
3.27
4.01
4.25
4.09
3.68
3.23
2.83
2.48
2.09
1.56
0.84
-0.04
-0.91
-1.56
-1.81
-1.56
-0.83
0.23
1.42
2.54
3.48
4.19
4.68
4.96
5.01
4.79
4.28
3.48
2.51
1.55
0.85
0.60
0.93
1.81
3.03
4.29
5.21
5.45
4.82
3.33
1.25
-0.98
-2.83
-3.89
-4.00
-3.32
-2.23
-1.16
-0.42
-0.13
-0.21
-0.54
-1.04
-1.78
-2.85
-4.27
-5.93
-7.54
-8.82
-9.58
-9.83
-9.75
-9.51
-9.18
-8.66
-7.81
-6.52
-4.88
-3.11
-1.50
-0.21
0.72
1.35
1.69
1.70
1.31
0.52
-0.52
-1.46
-1.99
-1.90
-1.18
-0.02
1.35
2.73
4.02
5.16
6.05
6.51
6.35
5.46
3.88
1.82
-0.41
-2.51
-4.26
-5.58
-6.44
-6.88
-6.91
-6.55
-5.89
-5.05
-4.23
-3.64
-3.44
-3.65
-4.22
-4.99
-5.73
-6.21
-6.21
-5.63
-4.50
-2.95
-1.23
0.42
1.84
2.96
3.83
4.50
4.99
5.30
5.41
5.31
5.08
4.86
4.78
4.91
5.21
5.57
5.85
5.91
5.67
5.17
4.48
3.75
3.10
2.64
2.37
2.19
1.97
1.58
0.93
0.04
-0.97
-1.93
-2.69
-3.18
-3.42
-3.49
-3.54
-3.66
-3.88
-4.18
-4.49
-4.73
-4.85
-4.81
-4.60
-4.23
-3.69
-3.01
-2.26
-1.52
-0.90
-0.45
-0.15
0.07
0.27
0.46
0.57
0.52
0.26
-0.15
-0.59
-0.88
-0.94
-0.82
-0.66
-0.63
-0.86
-1.27
-1.72
-2.02
-2.05
-1.86
-1.64
-1.62
-2.00
-2.79
-3.89
-5.07
-6.14
-7.00
-7.70
-8.36
-9.09
-9.98
-11.09
-12.39
-13.87
-15.46
-17.05
-18.47
-19.53
-20.02
-19.83
-18.92
-17.39
-15.39
-13.10
-10.60
-7.93
-5.05
-1.92
1.48
5.08
8.76
12.39
15.78
18.78
21.27
23.16
24.45
25.21
25.57
25.66
25.54
25.15
24.40
23.21
21.59
19.68
17.66
15.65
13.70
11.79
9.88
8.03
6.33
4.95
4.02
3.56
3.54
3.78
4.07
4.16
3.90
3.20
2.13
0.82
-0.59
-2.04
-3.54
-5.13
-6.74
-8.19
-9.21
-9.56
-9.16
-8.11
-6.70
-5.23
-3.91
-2.82
-1.94
-1.19
-0.54
0.01
0.43
0.70
0.87
0.99
1.08
1.08
0.89
0.42
-0.30
-1.09
-1.65
-1.69
-1.09
0.05
1.42
2.68
3.54
3.90
3.80
3.39
2.78
2.05
1.26
0.47
-0.26
-0.84
-1.26
-1.53
-1.72
-1.88
-2.07
-2.28
-2.50
-2.70
-2.83
-2.89
-2.89
-2.89
-2.97
-3.18
-3.48
-3.78
-3.91
-3.72
-3.16
-2.25
-1.14
0.04
1.19
2.29
3.38
4.51
5.68
6.83
7.81
8.49
8.78
8.69
8.28
7.67
6.97
6.23
5.49
4.76
4.09
3.55
3.21
3.04
2.91
2.65
2.14
1.39
0.50
-0.34
-1.01
-1.45
-1.79
-2.23
-2.93
-3.93
-5.16
-6.41
-7.49
-8.12
-8.19
-7.77
-7.16
-6.67
-6.47
-6.51
-6.56
-6.31
-5.38
-3.65
-1.47
0.47
1.51
1.36
0.24
-1.30
-2.53
-2.57
-1.04
1.64
4.41
6.20
6.43
5.25
3.35
1.73
1.77
4.54
10.45
19.00
28.93
38.31
44.70
45.64
37.75
20.79
-0.97
-20.24
-31.30
-32.89
-27.55
-19.16
-10.89
-4.37
1.09
6.12
10.49
13.29
13.80
12.18
9.34
6.31
3.53
1.25
-0.85
-3.25
-6.13
-9.12
-11.44
-12.40
-11.85
-10.13
-7.61
-4.73
-1.84
0.70
2.61
3.69
3.87
3.29
2.21
1.15
0.50
0.40
0.68
0.99
1.04
0.70
0.04
-0.80
-1.59
-2.18
-2.52
-2.59
-2.41
-2.07
-1.67
-1.42
-1.45
-1.82
-2.42
-3.03
-3.42
-3.47
-3.20
-2.74
-2.15
-1.40
-0.37
1.10
2.97
5.03
6.92
8.30
8.97
8.98
8.52
7.81
6.95
5.92
4.69
3.27
1.82
0.56
-0.34
-0.87
-1.19
-1.50
-2.01
-2.76
-3.73
-4.83
-6.04
-7.43
-9.09
-11.05
-13.21
-15.37
-17.26
-18.69
-19.63
-20.16
-20.44
-20.63
-20.83
-21.04
-21.26
-21.46
-21.67
-21.89
-22.11
-22.26
-22.23
-21.89
-21.11
-19.83
-18.04
-15.82
-13.32
-10.74
-8.31
-6.19
-4.45
-3.06
-1.88
-0.77
0.34
1.46
2.45
3.18
3.52
3.49
3.24
2.97
2.89
3.12
3.63
4.30
4.96
5.48
5.82
6.02
6.16
6.32
6.54
6.80
7.09
7.36
7.56
7.67
7.67
7.51
7.18
6.63
5.83
4.80
3.62
2.39
1.24
0.28
-0.41
-0.78
-0.83
-0.56
0.04
0.94
2.11
3.47
4.91
6.29
7.47
8.34
8.86
9.09
9.14
9.14
9.22
9.40
9.64
9.84
9.88
9.73
9.44
9.13
8.91
8.86
8.91
8.95
8.85
8.50
7.90
7.11
6.22
5.29
4.36
3.45
2.61
1.89
1.32
0.86
0.41
-0.16
-0.93
-1.92
-3.06
-4.22
-5.28
-6.20
-6.98
-7.70
-8.40
-9.06
-9.56
-9.73
-9.37
-8.40
-6.87
-5.00
-3.09
-1.41
-0.11
0.84
1.54
2.11
2.59
2.93
3.03
2.86
2.46
1.99
1.62
1.49
1.59
1.84
2.09
2.21
2.16
1.98
1.79
1.70
1.77
1.94
2.07
1.98
1.53
0.75
-0.23
-1.18
-1.89
-2.23
-2.23
-2.05
-1.88
-1.87
-2.12
-2.62
-3.30
-4.05
-4.72
-5.16
-5.21
-4.82
-3.95
-2.71
-1.25
0.19
1.42
2.28
2.73
2.88
2.89
2.92
3.05
3.24
3.35
3.30
3.06
2.75
2.54
2.56
2.81
3.19
3.51
3.67
3.62
3.46
3.22
2.93
2.48
1.81
0.93
-0.05
-0.93
-1.52
-1.79
-1.84
-1.87
-2.07
-2.51
-3.13
-3.84
-4.53
-5.16
-5.73
-6.27
-6.76
-7.13
-7.29
-7.12
-6.57
-5.67
-4.55
-3.38
-2.35
-1.61
-1.16
-0.97
-0.89
-0.84
-0.73
-0.56
-0.31
0.02
0.46
1.01
1.66
2.35
3.02
3.60
4.03
4.30
4.41
4.37
4.19
3.89
3.45
2.91
2.25
1.51
0.71
-0.10
-0.90
-1.67
-2.37
-3.01
-3.53
-3.92
-4.17
-4.30
-4.33
-4.29
-4.15
-3.83
-3.24
-2.31
-1.03
0.51
2.14
3.68
4.97
5.89
6.37
6.40
6.06
5.44
4.70
3.98
3.40
3.01
2.77
2.57
2.31
1.95
1.54
1.19
0.99
0.98
1.06
1.10
0.97
0.60
0.02
-0.66
-1.35
-1.95
-2.45
-2.86
-3.21
-3.48
-3.67
-3.77
-3.79
-3.79
-3.80
-3.83
-3.77
-3.48
-2.82
-1.77
-0.43
0.95
2.16
3.03
3.53
3.76
3.82
3.76
3.50
2.97
2.16
1.16
0.13
-0.78
-1.51
-2.06
-2.47
-2.78
-2.93
-2.88
-2.65
-2.38
-2.29
-2.48
-2.94
-3.57
-4.26
-4.81
-5.13
-5.32
-5.55
-6.08
-6.92
-7.93
-8.96
-9.90
-10.42
-10.29
-9.46
-8.10
-6.64
-5.07
-3.17
-0.76
2.31
6.33
11.36
17.00
22.44
26.50
28.82
29.63
29.41
28.90
29.35
31.82
36.78
43.92
51.91
59.96
67.48
74.02
75.89
70.77
58.99
43.72
31.79
23.79
18.58
14.84
10.57
5.04
-1.28
-7.60
-13.30
-18.30
-23.29
-28.35
-33.27
-37.89
-41.88
-44.63
-45.61
-44.66
-42.12
-38.89
-35.34
-31.54
-27.57
-23.45
-19.18
-14.92
-11.05
-8.05
-6.50
-6.38
-7.38
-9.23
-11.67
-14.44
-17.20
-19.54
-21.02
-21.42
-20.53
-18.41
-15.44
-12.11
-8.85
-5.90
-3.32
-1.04
1.00
2.89
4.64
6.21
7.54
8.60
9.37
9.88
10.11
10.02
9.50
8.44
6.79
4.62
2.10
-0.46
-2.77
-4.56
-5.69
-6.12
-5.89
-5.11
-3.87
-2.30
-0.49
1.42
3.28
4.90
6.13
6.85
7.03
6.70
5.97
4.96
3.83
2.73
1.78
1.06
0.58
0.30
0.13
-0.02
-0.20
-0.47
-0.82
-1.27
-1.78
-2.35
-2.94
-3.53
-4.08
-4.57
-4.97
-5.29
-5.52
-5.68
-5.79
-5.85
-5.86
-5.81
-5.72
-5.61
-5.56
-5.60
-5.71
-5.82
-5.83
-5.62
-5.14
-4.42
-3.55
-2.66
-1.84
-1.18
-0.69
-0.35
-0.12
0.05
0.17
0.16
-0.06
-0.56
-1.34
-2.27
-3.15
-3.79
-4.07
-4.02
-3.84
-3.80
-4.10
-4.77
-5.68
-6.60
-7.37
-7.88
-8.16
-8.40
-8.87
-9.71
-10.92
-12.34
-13.78
-15.04
-15.93
-16.33
-16.26
-15.88
-15.33
-14.67
-13.84
-12.69
-11.10
-8.84
-5.69
-1.59
3.46
9.42
16.13
23.16
29.90
34.85
36.82
36.02
34.10
32.88
33.40
35.73
38.79
41.39
42.73
42.74
41.89
40.72
39.03
36.69
33.58
29.63
24.98
19.94
15.02
10.78
7.55
5.35
4.02
3.22
2.44
1.21
-0.90
-4.08
-8.24
-13.12
-18.31
-23.33
-27.73
-31.26
-33.87
-35.78
-37.33
-38.86
-40.49
-41.95
-42.49
-41.18
-37.27
-30.57
-21.63
-11.55
-1.62
7.04
13.72
18.13
20.28
20.26
18.29
14.72
10.10
5.06
0.23
-4.02
-7.55
-10.46
-12.92
-15.04
-16.76
-17.98
-18.61
-18.66
-18.29
-17.67
-16.95
-16.15
-15.23
-14.07
-12.60
-10.83
-8.82
-6.66
-4.48
-2.42
-0.63
0.76
1.66
2.07
2.07
1.77
1.29
0.68
-0.02
-0.76
-1.43
-1.91
-2.08
-1.90
-1.44
-0.84
-0.28
0.10
0.21
0.09
-0.16
-0.39
-0.41
-0.09
0.62
1.65
2.90
4.19
5.40
6.44
7.25
7.79
8.01
7.93
7.64
7.26
6.93
6.68
6.47
6.18
5.75
5.20
4.64
4.18
3.88
3.73
3.66
3.61
3.59
3.63
3.75
3.90
4.03
4.10
4.13
4.20
4.37
4.61
4.79
4.76
4.39
3.73
2.91
2.12
1.54
1.23
1.12
1.06
0.89
0.47
-0.22
-1.11
-2.06
-2.90
-3.48
-3.71
-3.53
-2.93
-1.96
-0.74
0.56
1.76
2.72
3.39
3.82
4.16
4.53
4.97
5.42
5.75
5.85
5.71
5.42
5.13
4.93
4.83
4.78
4.70
4.55
4.37
4.23
4.18
4.17
4.09
3.81
3.29
2.60
1.91
1.35
1.01
0.89
0.87
0.84
0.74
0.53
0.20
-0.26
-0.88
-1.65
-2.52
-3.37
-4.10
-4.61
-4.96
-5.29
-5.77
-6.56
-7.68
-8.98
-10.19
-11.02
-11.28
-10.88
-9.89
-8.43
-6.68
-4.82
-3.03
-1.49
-0.33
0.44
0.88
1.15
1.37
1.59
1.76
1.84
1.81
1.75
1.75
1.88
2.12
2.36
2.57
2.79
3.15
3.77
4.59
5.39
5.82
5.58
4.62
3.11
1.43
-0.06
-1.11
-1.65
-1.78
-1.63
-1.36
-1.03
-0.71
-0.39
-0.10
0.15
0.32
0.37
0.25
-0.05
-0.51
-1.10
-1.74
-2.37
-2.94
-3.36
-3.52
-3.30
-2.66
-1.66
-0.47
0.65
1.52
2.06
2.34
2.53
2.77
3.14
3.55
3.86
3.91
3.63
3.08
2.41
1.81
1.42
1.26
1.26
1.30
1.28
1.17
0.99
0.82
0.71
0.62
0.49
0.21
-0.25
-0.87
-1.54
-2.13
-2.59
-2.88
-3.06
-3.16
-3.19
-3.10
-2.86
-2.53
-2.27
-2.26
-2.63
-3.33
-4.18
-4.85
-5.12
-4.88
-4.20
-3.21
-2.03
-0.71
0.77
2.36
3.91
5.25
6.19
6.68
6.81
6.75
6.69
6.70
6.77
6.78
6.60
6.15
5.44
4.58
3.69
2.91
2.30
1.89
1.61
1.35
1.07
0.72
0.35
0.01
-0.25
-0.44
-0.61
-0.83
-1.19
-1.72
-2.40
-3.15
-3.89
-4.57
-5.13
-5.57
-5.84
-5.94
-5.86
-5.71
-5.64
-5.79
-6.22
-6.83
-7.35
-7.48
-6.96
-5.77
-4.07
-2.15
-0.38
1.00
1.83
2.14
2.03
1.70
1.32
1.05
0.96
1.02
1.19
1.41
1.67
2.00
2.45
2.99
3.54
3.98
4.21
4.22
4.03
3.75
3.47
3.27
3.17
3.17
3.22
3.24
3.12
2.82
2.30
1.63
0.89
0.14
-0.56
-1.24
-1.93
-2.62
-3.31
-3.97
-4.57
-5.10
-5.55
-5.86
-6.01
-6.00
-5.83
-5.60
-5.40
-5.27
-5.22
-5.18
-5.03
-4.63
-3.92
-2.89
-1.68
-0.46
0.59
1.37
1.87
2.19
2.44
2.69
2.91
3.01
2.94
2.71
2.47
2.45
2.84
3.71
4.98
6.40
7.66
8.53
8.85
8.63
7.96
6.94
5.67
4.19
2.59
0.95
-0.60
-1.92
-2.90
-3.49
-3.73
-3.70
-3.51
-3.24
-2.91
-2.54
-2.11
-1.61
-1.07
-0.56
-0.14
0.14
0.27
0.30
0.29
0.27
0.24
0.18
0.04
-0.14
-0.29
-0.30
-0.08
0.34
0.85
1.26
1.43
1.32
1.02
0.69
0.43
0.28
0.13
-0.14
-0.57
-1.13
-1.72
-2.22
-2.59
-2.85
-3.06
-3.25
-3.41
-3.49
-3.47
-3.39
-3.33
-3.40
-3.61
-3.89
-4.10
-4.06
-3.68
-2.94
-1.92
-0.79
0.31
1.23
1.90
2.28
2.40
2.28
2.01
1.65
1.30
1.04
0.97
1.13
1.52
2.07
2.65
3.09
3.25
3.09
2.68
2.17
1.70
1.31
0.99
0.63
0.18
-0.34
-0.79
-1.07
-1.08
-0.91
-0.71
-0.66
-0.88
-1.39
-2.14
-3.02
-3.95
-4.80
-5.47
-5.81
-5.69
-5.08
-4.02
-2.69
-1.29
-0.02
1.00
1.73
2.17
2.37
2.37
2.24
2.03
1.85
1.76
1.78
1.87
1.97
2.00
1.96
1.89
1.85
1.89
2.00
2.12
2.16
2.06
1.80
1.41
0.93
0.42
-0.05
-0.42
-0.64
-0.71
-0.65
-0.56
-0.57
-0.80
-1.30
-2.04
-2.94
-3.84
-4.58
-5.00
-4.97
-4.41
-3.34
-1.92
-0.40
0.92
1.84
2.31
2.42
2.37
2.34
2.39
2.53
2.68
2.79
2.87
2.97
3.10
3.26
3.36
3.33
3.12
2.78
2.39
2.06
1.87
1.80
1.81
1.81
1.75
1.60
1.36
1.03
0.64
0.22
-0.18
-0.50
-0.71
-0.79
-0.80
-0.84
-1.00
-1.34
-1.86
-2.47
-3.00
-3.27
-3.13
-2.56
-1.63
-0.51
0.60
1.56
2.30
2.83
3.16
3.27
3.12
2.70
2.06
1.32
0.69
0.33
0.32
0.59
1.02
1.43
1.72
1.87
1.91
1.88
1.79
1.61
1.30
0.86
0.32
-0.26
-0.81
-1.29
-1.68
-1.98
-2.20
-2.33
-2.41
-2.47
-2.56
-2.74
-3.01
-3.36
-3.76
-4.13
-4.40
-4.46
-4.22
-3.63
-2.73
-1.66
-0.60
0.24
0.74
0.91
0.88
0.80
0.80
0.89
1.04
1.17
1.26
1.35
1.54
1.89
2.35
2.77
2.95
2.76
2.23
1.55
0.97
0.70
0.73
0.95
1.13
1.12
0.89
0.52
0.11
-0.31
-0.74
-1.22
-1.71
-2.09
-2.23
-2.10
-1.77
-1.45
-1.37
-1.62
-2.18
-2.83
-3.33
-3.46
-3.12
-2.33
-1.24
-0.07
1.00
1.80
2.28
2.46
2.42
2.29
2.16
2.09
2.10
2.19
2.35
2.56
2.76
2.89
2.88
2.69
2.38
2.05
1.83
1.81
1.95
2.08
2.01
1.60
0.85
-0.09
-1.00
-1.70
-2.10
-2.20
-2.07
-1.80
-1.47
-1.15
-0.91
-0.84
-0.96
-1.27
-1.73
-2.24
-2.74
-3.18
-3.52
-3.74
-3.77
-3.57
-3.13
-2.48
-1.70
-0.89
-0.15
0.47
0.93
1.25
1.45
1.57
1.58
1.51
1.38
1.24
1.14
1.13
1.20
1.28
1.32
1.28
1.19
1.10
1.05
1.05
1.03
0.96
0.82
0.61
0.41
0.25
0.18
0.20
0.29
0.39
0.48
0.50
0.43
0.26
0.06
-0.14
-0.32
-0.55
-0.92
-1.52
-2.31
-3.14
-3.79
-4.06
-3.88
-3.33
-2.57
-1.82
-1.23
-0.84
-0.61
-0.47
-0.36
-0.26
-0.16
-0.09
-0.04
-0.03
-0.04
-0.05
-0.03
0.07
0.25
0.49
0.71
0.83
0.81
0.64
0.38
0.08
-0.22
-0.50
-0.74
-0.95
-1.14
-1.36
-1.68
-2.18
-2.85
-3.60
-4.28
-4.73
-4.87
-4.75
-4.51
-4.37
-4.47
-4.87
-5.53
-6.32
-7.10
-7.74
-8.15
-8.25
-8.04
-7.53
-6.80
-6.01
-5.27
-4.67
-4.16
-3.62
-2.85
-1.74
-0.26
1.45
3.21
4.84
6.23
7.38
8.30
9.02
9.52
9.80
9.91
9.96
10.04
10.21
10.42
10.58
10.64
10.65
10.75
11.08
11.65
12.29
12.73
12.66
11.93
10.60
8.88
7.08
5.42
4.03
2.94
2.13
1.61
1.35
1.35
1.51
1.73
1.90
1.95
1.90
1.83
1.77
1.76
1.72
1.61
1.39
1.11
0.87
0.77
0.85
1.05
1.23
1.25
0.99
0.45
-0.34
-1.28
-2.29
-3.26
-4.11
-4.79
-5.28
-5.66
-5.98
-6.29
-6.58
-6.78
-6.84
-6.72
-6.47
-6.15
-5.85
-5.62
-5.45
-5.29
-5.10
-4.86
-4.62
-4.41
-4.30
-4.30
-4.40
-4.53
-4.62
-4.57
-4.37
-4.03
-3.62
-3.17
-2.71
-2.21
-1.68
-1.13
-0.60
-0.13
0.23
0.50
0.68
0.80
0.85
0.83
0.67
0.31
-0.30
-1.20
-2.35
-3.65
-4.96
-6.11
-6.96
-7.41
-7.41
-6.95
-6.04
-4.75
-3.18
-1.51
0.07
1.42
2.44
3.16
3.67
4.07
4.45
4.82
5.12
5.28
5.22
4.92
4.40
3.73
2.97
2.21
1.46
0.73
0.00
-0.77
-1.57
-2.34
-2.97
-3.31
-3.26
-2.80
-1.97
-0.86
0.41
1.74
3.04
4.22
5.13
5.66
5.74
5.39
4.74
4.00
3.30
2.70
2.15
1.56
0.88
0.10
-0.71
-1.50
-2.18
-2.70
-2.99
-2.98
-2.66
-2.07
-1.33
-0.57
0.07
0.55
0.92
1.24
1.53
1.74
1.73
1.41
0.72
-0.28
-1.47
-2.67
-3.76
-4.66
-5.39
-5.99
-6.51
-6.93
-7.19
-7.22
-6.95
-6.41
-5.67
-4.87
-4.13
-3.57
-3.20
-3.00
-2.92
-2.91
-2.92
-2.94
-2.91
-2.74
-2.32
-1.57
-0.46
0.92
2.42
3.81
4.96
5.74
6.14
6.20
5.96
5.51
5.00
4.60
4.52
4.86
5.62
6.62
7.60
8.31
8.65
8.66
8.47
8.22
7.98
7.73
7.43
7.06
6.66
6.30
6.04
5.89
5.78
5.65
5.47
5.27
5.11
5.02
4.97
4.87
4.60
4.10
3.40
2.57
1.74
1.01
0.44
0.07
-0.10
-0.09
0.06
0.26
0.42
0.44
0.32
0.13
-0.04
-0.08
0.05
0.29
0.54
0.73
0.80
0.79
0.72
0.61
0.43
0.13
-0.30
-0.86
-1.44
-1.96
-2.36
-2.66
-3.00
-3.50
-4.25
-5.25
-6.36
-7.34
-8.00
-8.19
-7.92
-7.35
-6.68
-6.14
-5.85
-5.77
-5.82
-5.87
-5.89
-5.95
-6.18
-6.70
-7.47
-8.34
-9.07
-9.47
-9.51
-9.36
-9.29
-9.61
-10.47
-11.80
-13.35
-14.78
-15.84
-16.42
-16.64
-16.75
-17.01
-17.54
-18.37
-19.37
-20.30
-20.73
-20.02
-17.40
-12.29
-4.63
4.81
14.53
22.88
28.71
31.89
33.25
34.13
35.72
38.47
42.10
45.81
48.85
50.84
51.74
51.65
50.59
48.48
45.21
40.72
35.12
28.70
22.00
15.59
9.98
5.52
2.40
0.57
-0.12
-0.00
0.20
0.13
-0.24
-0.61
-0.62
-0.07
0.85
1.99
2.64
2.15
0.23
-3.12
-7.61
-12.85
-18.13
-22.83
-26.34
-28.61
-29.80
-30.10
-29.75
-29.01
-28.26
-27.91
-28.41
-29.67
-31.49
-33.22
-33.94
-32.98
-30.26
-26.41
-22.47
-19.73
-17.36
-15.13
-13.36
-13.14
-15.72
-21.56
-29.62
-37.49
-44.12
-47.74
-48.17
-46.34
-43.53
-40.47
-36.88
-31.59
-21.76
-6.45
13.78
36.23
57.22
73.11
81.26
80.49
71.52
56.92
40.25
25.51
15.64
12.22
15.39
24.13
35.65
45.87
51.16
50.04
43.34
32.41
18.81
4.29
-9.28
-20.33
-27.73
-30.93
-30.59
-27.39
-22.57
-17.54
-13.50
-11.08
-10.23
-10.15
-9.63
-7.75
-4.25
0.28
4.68
7.88
9.23
8.49
5.77
1.43
-4.19
-10.65
-17.59
-24.52
-30.79
-35.85
-39.31
-41.08
-41.28
-40.23
-38.31
-35.96
-33.46
-30.86
-28.06
-24.92
-21.39
-17.55
-13.63
-9.88
-6.51
-3.57
-0.96
1.45
3.72
5.81
7.65
9.19
10.49
11.65
12.74
13.75
14.52
14.90
14.79
14.23
13.42
12.60
11.96
11.55
11.28
11.02
10.63
10.07
9.34
8.50
7.60
6.70
5.88
5.15
4.53
3.97
3.37
2.63
1.66
0.46
-0.93
-2.40
-3.90
-5.39
-6.90
-8.42
-9.84
-10.96
-11.52
-11.33
-10.38
-8.80
-6.83
-4.68
-2.47
-0.19
2.21
4.74
7.30
9.68
11.65
13.06
13.89
14.24
14.34
14.37
14.45
14.60
14.78
14.94
15.04
15.09
15.08
15.00
14.77
14.33
13.66
12.78
11.75
10.68
9.66
8.78
8.11
7.65
7.36
7.12
6.82
6.36
5.69
4.84
3.88
2.90
1.95
1.06
0.25
-0.52
-1.25
-1.98
-2.72
-3.45
-4.08
-4.45
-4.38
-3.74
-2.53
-0.90
0.88
2.53
3.87
4.86
5.64
6.34
7.05
7.72
8.27
8.59
8.70
8.67
8.61
8.54
8.44
8.24
7.94
7.61
7.36
7.26
7.29
7.34
7.27
6.97
6.46
5.85
5.27
4.83
4.58
4.47
4.34
4.02
3.27
1.92
-0.05
-2.56
-5.34
-8.06
-10.38
-12.03
-12.90
-13.01
-12.53
-11.68
-10.73
-9.92
-9.43
-9.32
-9.55
-9.97
-10.33
-10.33
-9.73
-8.39
-6.39
-3.97
-1.52
0.65
2.33
3.55
4.48
5.37
6.38
7.49
8.53
9.24
9.42
9.00
8.11
7.05
6.14
5.64
5.63
5.94
6.31
6.42
6.10
5.34
4.29
3.17
2.16
1.29
0.54
-0.18
-0.92
-1.66
-2.37
-3.01
-3.66
-4.40
-5.30
-6.34
-7.37
-8.17
-8.52
-8.34
-7.68
-6.75
-5.81
-5.06
-4.56
-4.27
-4.05
-3.76
-3.30
-2.65
-1.83
-0.89
0.09
1.06
1.90
2.55
2.95
3.11
3.13
3.13
3.26
3.58
4.07
4.64
5.16
5.52
5.69
5.71
5.63
5.53
5.43
5.33
5.15
4.82
4.27
3.58
2.86
2.34
2.18
2.49
3.21
4.16
5.05
5.64
5.76
5.38
4.60
3.61
2.58
1.64
0.83
0.13
-0.57
-1.41
-2.47
-3.79
-5.27
-6.76
-8.00
-8.77
-8.92
-8.39
-7.27
-5.72
-3.96
-2.24
-0.76
0.31
0.91
1.04
0.84
0.48
0.13
-0.08
-0.16
-0.14
-0.11
-0.09
-0.07
-0.03
0.03
0.07
0.06
-0.05
-0.23
-0.41
-0.48
-0.41
-0.23
-0.04
0.06
-0.02
-0.29
-0.66
-1.07
-1.45
-1.75
-1.98
-2.11
-2.16
-2.15
-2.10
-2.10
-2.20
-2.42
-2.73
-3.01
-3.14
-3.02
-2.60
-1.86
-0.87
0.27
1.40
2.36
3.05
3.44
3.58
3.55
3.43
3.23
2.93
2.53
2.04
1.53
1.06
0.67
0.39
0.24
0.23
0.36
0.59
0.82
0.97
0.98
0.84
0.63
0.37
0.05
-0.41
-1.10
-1.98
-2.91
-3.70
-4.16
-4.23
-4.00
-3.68
-3.47
-3.52
-3.86
-4.43
-5.15
-5.92
-6.67
-7.33
-7.83
-8.10
-8.08
-7.75
-7.16
-6.37
-5.43
-4.37
-3.20
-1.98
-0.75
0.36
1.29
2.00
2.55
3.04
3.55
4.07
4.49
4.70
4.63
4.32
3.93
3.64
3.57
3.70
3.93
4.11
4.13
3.97
3.68
3.34
3.01
2.68
2.34
1.93
1.47
0.96
0.46
-0.02
-0.47
-0.91
-1.35
-1.76
-2.10
-2.35
-2.52
-2.73
-3.12
-3.78
-4.66
-5.56
-6.19
-6.30
-5.79
-4.78
-3.48
-2.12
-0.86
0.25
1.16
1.87
2.33
2.50
2.44
2.28
2.17
2.19
2.34
2.52
2.59
2.48
2.22
1.90
1.66
1.57
1.61
1.69
1.70
1.60
1.38
1.11
0.83
0.54
0.21
-0.18
-0.62
-1.02
-1.31
-1.43
-1.41
-1.33
-1.30
-1.38
-1.57
-1.87
-2.27
-2.75
-3.30
-3.90
-4.50
-5.06
-5.57
-6.02
-6.35
-6.50
-6.40
-5.99
-5.28
-4.33
-3.23
-2.09
-1.03
-0.12
0.58
1.06
1.35
1.52
1.64
1.78
1.95
2.18
2.45
2.73
3.00
3.20
3.28
3.22
3.05
2.85
2.71
2.63
2.56
2.40
2.07
1.59
1.05
0.58
0.25
0.05
-0.07
-0.20
-0.36
-0.54
-0.74
-0.94
-1.17
-1.45
-1.78
-2.10
-2.35
-2.51
-2.67
-2.94
-3.46
-4.22
-5.07
-5.75
-5.99
-5.60
-4.62
-3.27
-1.87
-0.68
0.18
0.73
1.11
1.47
1.84
2.21
2.49
2.63
2.62
2.55
2.49
2.53
2.68
2.92
3.18
3.41
3.55
3.59
3.50
3.28
2.93
2.47
1.92
1.33
0.76
0.25
-0.18
-0.54
-0.85
-1.11
-1.31
-1.42
-1.43
-1.37
-1.28
-1.21
-1.21
-1.29
-1.42
-1.58
-1.75
-1.94
-2.19
-2.57
-3.07
-3.62
-4.06
-4.26
-4.11
-3.62
-2.88
-2.02
-1.13
-0.28
0.55
1.36
2.10
2.68
3.00
3.05
2.87
2.60
2.37
2.24
2.23
2.29
2.38
2.47
2.56
2.67
2.78
2.86
2.86
2.75
2.54
2.27
1.96
1.66
1.37
1.11
0.87
0.66
0.48
0.31
0.14
-0.07
-0.35
-0.73
-1.15
-1.54
-1.83
-1.98
-2.05
-2.14
-2.37
-2.79
-3.38
-4.01
-4.53
-4.84
-4.86
-4.59
-4.06
-3.32
-2.39
-1.35
-0.28
0.72
1.56
2.18
2.53
2.66
2.62
2.48
2.29
2.12
2.00
1.98
2.07
2.26
2.50
2.69
2.73
2.57
2.26
1.88
1.54
1.34
1.29
1.38
1.50
1.59
1.55
1.32
0.91
0.38
-0.16
-0.63
-0.95
-1.14
-1.27
-1.40
-1.59
-1.84
-2.11
-2.36
-2.56
-2.73
-2.90
-3.14
-3.43
-3.72
-3.91
-3.86
-3.46
-2.67
-1.59
-0.37
0.78
1.68
2.24
2.44
2.33
2.04
1.69
1.41
1.30
1.40
1.66
1.98
2.24
2.36
2.32
2.16
1.93
1.69
1.47
1.26
1.05
0.87
0.70
0.54
0.37
0.20
0.04
-0.07
-0.09
-0.04
0.00
-0.04
-0.23
-0.57
-0.98
-1.38
-1.73
-2.05
-2.40
-2.80
-3.26
-3.71
-4.08
-4.36
-4.57
-4.77
-4.96
-5.06
-4.95
-4.57
-3.88
-3.00
-2.08
-1.29
-0.74
-0.46
-0.41
-0.49
-0.57
-0.53
-0.27
0.22
0.88
1.59
2.19
2.58
2.71
2.63
2.43
2.20
1.99
1.84
1.76
1.74
1.76
1.81
1.86
1.90
1.94
2.00
2.05
2.03
1.86
1.48
0.91
0.22
-0.47
-1.05
-1.50
-1.83
-2.11
-2.43
-2.85
-3.38
-3.97
-4.54
-5.03
-5.32
-5.33
-4.96
-4.18
-3.00
-1.55
-0.01
1.35
2.29
2.66
2.48
1.94
1.33
0.92
0.89
1.23
1.79
2.35
2.73
2.84
2.71
2.42
2.09
1.80
1.60
1.54
1.64
1.92
2.30
2.64
2.73
2.45
1.79
0.89
0.01
-0.62
-0.89
-0.86
-0.73
-0.68
-0.82
-1.13
-1.49
-1.81
-2.04
-2.20
-2.32
-2.40
-2.43
-2.37
-2.20
-1.93
-1.59
-1.17
-0.69
-0.16
0.38
0.88
1.28
1.56
1.71
1.72
1.59
1.30
0.91
0.51
0.24
0.19
0.40
0.79
1.20
1.50
1.59
1.49
1.25
0.94
0.62
0.36
0.19
0.15
0.24
0.41
0.56
0.60
0.45
0.06
-0.51
-1.16
-1.76
-2.20
-2.42
-2.46
-2.43
-2.49
-2.74
-3.24
-3.91
-4.55
-4.90
-4.71
-3.89
-2.56
-0.99
0.48
1.62
2.33
2.70
2.89
2.99
3.01
2.88
2.56
2.10
1.66
1.41
1.40
1.61
1.88
2.06
2.04
1.82
1.49
1.19
0.99
0.92
0.91
0.86
0.71
0.45
0.16
-0.06
-0.13
-0.04
0.11
0.22
0.19
0.02
-0.27
-0.65
-1.08
-1.58
-2.12
-2.65
-3.09
-3.34
-3.30
-2.96
-2.32
-1.46
-0.52
0.38
1.12
1.64
1.93
2.05
2.07
2.03
1.92
1.70
1.38
1.02
0.73
0.64
0.82
1.25
1.76
2.20
2.41
2.38
2.18
1.94
1.77
1.67
1.58
1.41
1.12
0.73
0.34
0.05
-0.07
-0.07
-0.04
-0.13
-0.41
-0.86
-1.34
-1.71
-1.89
-1.91
-1.90
-2.01
-2.33
-2.83
-3.33
-3.62
-3.56
-3.11
-2.33
-1.37
-0.37
0.54
1.28
1.78
2.00
1.95
1.72
1.42
1.19
1.10
1.18
1.38
1.64
1.88
2.03
2.08
1.98
1.74
1.36
0.92
0.53
0.28
0.23
0.32
0.45
0.52
0.47
0.32
0.12
-0.07
-0.25
-0.40
-0.54
-0.67
-0.78
-0.90
-1.09
-1.42
-1.91
-2.49
-3.06
-3.48
-3.66
-3.60
-3.29
-2.76
-2.01
-1.07
-0.04
0.90
1.59
1.92
1.93
1.76
1.60
1.56
1.66
1.79
1.85
1.80
1.69
1.62
1.66
1.77
1.83
1.72
1.40
0.92
0.44
0.11
-0.00
0.07
0.25
0.42
0.50
0.46
0.30
0.03
-0.29
-0.62
-0.91
-1.16
-1.37
-1.60
-1.87
-2.16
-2.44
-2.62
-2.66
-2.56
-2.32
-1.99
-1.56
-1.03
-0.42
0.22
0.84
1.36
1.70
1.84
1.81
1.67
1.52
1.45
1.50
1.68
1.93
2.17
2.32
2.34
2.23
2.02
1.75
1.44
1.12
0.85
0.67
0.64
0.76
0.97
1.13
1.09
0.79
0.23
-0.45
-1.08
-1.53
-1.75
-1.80
-1.78
-1.81
-1.92
-2.10
-2.30
-2.47
-2.52
-2.41
-2.12
-1.66
-1.10
-0.52
0.01
0.46
0.80
1.04
1.16
1.17
1.07
0.95
0.88
0.94
1.13
1.41
1.68
1.86
1.89
1.78
1.56
1.29
1.04
0.85
0.77
0.79
0.82
0.78
0.59
0.22
-0.24
-0.67
-0.97
-1.08
-1.05
-0.96
-0.89
-0.89
-0.96
-1.10
-1.28
-1.53
-1.88
-2.33
-2.86
-3.37
-3.74
-3.84
-3.57
-2.97
-2.11
-1.18
-0.35
0.27
0.64
0.82
0.92
1.03
1.21
1.43
1.65
1.83
1.93
1.96
1.93
1.86
1.77
1.65
1.47
1.25
1.01
0.80
0.66
0.57
0.51
0.40
0.18
-0.17
-0.60
-1.04
-1.41
-1.61
-1.62
-1.46
-1.19
-0.91
-0.71
-0.67
-0.81
-1.11
-1.53
-1.99
-2.42
-2.71
-2.76
-2.47
-1.80
-0.83
0.28
1.30
2.02
2.36
2.34
2.13
1.87
1.69
1.64
1.68
1.76
1.82
1.88
1.94
1.99
1.97
1.84
1.56
1.19
0.83
0.62
0.62
0.79
0.99
1.08
0.97
0.68
0.33
0.04
-0.14
-0.24
-0.34
-0.55
-0.90
-1.37
-1.89
-2.34
-2.63
-2.70
-2.55
-2.28
-2.04
-1.94
-2.04
-2.25
-2.40
-2.29
-1.84
-1.13
-0.34
0.29
0.64
0.71
0.66
0.61
0.64
0.72
0.76
0.68
0.49
0.31
0.24
0.34
0.59
0.87
1.09
1.18
1.11
0.91
0.53
-0.05
-0.84
-1.78
-2.73
-3.50
-3.96
-4.07
-3.92
-3.66
-3.44
-3.34
-3.37
-3.48
-3.56
-3.59
-3.51
-3.37
-3.20
-3.02
-2.81
-2.56
-2.23
-1.80
-1.30
-0.75
-0.16
0.51
1.28
2.16
3.07
3.88
4.48
4.78
4.83
4.70
4.52
4.35
4.21
4.06
3.90
3.70
3.48
3.29
3.13
3.01
2.95
2.90
2.86
2.80
2.71
2.57
2.35
2.02
1.52
0.88
0.15
-0.55
-1.09
-1.40
-1.49
-1.44
-1.38
-1.39
-1.49
-1.65
-1.82
-1.98
-2.13
-2.32
-2.53
-2.74
-2.84
-2.74
-2.36
-1.72
-0.92
-0.09
0.62
1.13
1.42
1.56
1.59
1.58
1.53
1.46
1.36
1.25
1.17
1.16
1.27
1.53
1.85
2.09
2.09
1.75
1.10
0.31
-0.40
-0.86
-1.03
-0.98
-0.87
-0.80
-0.80
-0.84
-0.88
-0.95
-1.10
-1.37
-1.77
-2.23
-2.66
-2.98
-3.18
-3.29
-3.39
-3.58
-3.90
-4.32
-4.71
-4.90
-4.73
-4.17
-3.35
-2.48
-1.81
-1.45
-1.38
-1.46
-1.53
-1.50
-1.33
-1.06
-0.72
-0.32
0.16
0.71
1.29
1.85
2.34
2.75
3.10
3.44
3.77
4.08
4.27
4.31
4.14
3.84
3.48
3.18
2.97
2.86
2.74
2.54
2.19
1.72
1.22
0.80
0.49
0.26
0.03
-0.29
-0.71
-1.17
-1.57
-1.82
-1.89
-1.76
-1.48
-1.05
-0.49
0.18
0.91
1.58
2.09
2.39
2.47
2.40
2.23
2.01
1.75
1.49
1.26
1.14
1.16
1.28
1.41
1.43
1.29
1.04
0.79
0.67
0.73
0.92
1.14
1.27
1.26
1.12
0.88
0.54
0.11
-0.42
-1.00
-1.57
-2.04
-2.32
-2.43
-2.44
-2.48
-2.70
-3.17
-3.85
-4.59
-5.16
-5.35
-5.05
-4.30
-3.24
-2.08
-0.99
-0.06
0.67
1.17
1.41
1.35
1.00
0.46
-0.12
-0.60
-0.88
-0.98
-0.98
-0.98
-1.03
-1.13
-1.27
-1.44
-1.67
-1.96
-2.27
-2.53
-2.64
-2.56
-2.28
-1.87
-1.38
-0.86
-0.33
0.18
0.65
1.05
1.34
1.54
1.67
1.73
1.70
1.55
1.25
0.84
0.45
0.19
0.16
0.35
0.66
0.95
1.17
1.35
1.59
1.98
2.51
3.05
3.39
3.43
3.15
2.70
2.30
2.08
2.09
2.27
2.51
2.70
2.83
2.89
2.88
2.78
2.57
2.26
1.87
1.45
1.03
0.61
0.17
-0.31
-0.80
-1.22
-1.51
-1.63
-1.59
-1.47
-1.34
-1.27
-1.30
-1.46
-1.77
-2.22
-2.73
-3.19
-3.45
-3.38
-2.97
-2.28
-1.45
-0.61
0.16
0.84
1.43
1.90
2.17
2.19
1.95
1.54
1.13
0.88
0.87
1.02
1.18
1.21
1.02
0.68
0.31
0.05
-0.07
-0.10
-0.17
-0.35
-0.65
-1.00
-1.33
-1.59
-1.83
-2.14
-2.58
-3.13
-3.67
-4.06
-4.24
-4.25
-4.22
-4.33
-4.67
-5.22
-5.80
-6.23
-6.34
-6.03
-5.29
-4.16
-2.74
-1.17
0.37
1.72
2.73
3.39
3.72
3.84
3.81
3.65
3.36
2.95
2.51
2.17
1.99
1.97
1.99
1.91
1.68
1.36
1.11
1.13
1.49
2.13
2.92
3.69
4.37
4.93
5.37
5.66
5.71
5.47
4.90
4.08
3.13
2.18
1.35
0.74
0.43
0.57
1.21
2.36
3.79
5.15
6.01
6.07
5.25
3.72
1.85
0.00
-1.51
-2.60
-3.29
-3.76
-4.12
-4.43
-4.62
-4.56
-4.17
-3.43
-2.46
-1.48
-0.65
-0.08
0.26
0.48
0.68
0.88
1.02
0.99
0.73
0.23
-0.43
-1.18
-1.95
-2.76
-3.59
-4.43
-5.18
-5.73
-5.98
-5.91
-5.57
-5.09
-4.55
-4.00
-3.43
-2.82
-2.17
-1.45
-0.72
0.03
0.78
1.53
2.29
3.06
3.78
4.39
4.81
4.96
4.84
4.52
4.10
3.71
3.46
3.33
3.25
3.09
2.72
2.10
1.30
0.49
-0.15
-0.47
-0.45
-0.22
0.04
0.16
0.07
-0.18
-0.46
-0.64
-0.70
-0.72
-0.82
-1.08
-1.47
-1.88
-2.23
-2.47
-2.65
-2.88
-3.20
-3.53
-3.72
-3.59
-3.07
-2.22
-1.21
-0.22
0.64
1.34
1.94
2.51
3.03
3.46
3.72
3.73
3.47
2.99
2.36
1.71
1.16
0.80
0.66
0.68
0.78
0.88
0.91
0.83
0.65
0.39
0.10
-0.19
-0.42
-0.58
-0.72
-0.88
-1.09
-1.33
-1.55
-1.69
-1.77
-1.88
-2.15
-2.65
-3.32
-3.98
-4.41
-4.46
-4.11
-3.48
-2.73
-2.05
-1.52
-1.18
-1.04
-1.15
-1.52
-2.15
-2.92
-3.65
-4.16
-4.32
-4.16
-3.85
-3.55
-3.36
-3.26
-3.14
-2.90
-2.52
-2.03
-1.52
-1.08
-0.70
-0.36
-0.01
0.37
0.76
1.13
1.48
1.78
2.00
2.07
1.96
1.63
1.08
0.30
-0.65
-1.62
-2.46
-3.11
-3.51
-3.57
-3.30
-2.72
-1.92
-0.98
0.13
1.41
2.58
3.38
3.71
3.55
2.89
1.81
0.39
-1.06
-2.24
-3.29
-4.24
-4.92
-5.15
-4.82
-3.88
-2.30
0.16
3.69
7.89
12.37
17.00
21.60
25.94
29.83
31.47
29.54
26.40
23.35
19.94
16.21
12.33
8.56
5.22
2.59
1.09
0.94
1.60
2.51
3.40
3.99
4.10
3.61
2.52
1.14
-0.15
-1.35
-2.42
-3.18
-3.62
-3.86
-4.08
-4.41
-4.76
-4.93
-4.98
-5.01
-5.10
-5.43
-6.16
-7.29
-8.61
-9.70
-10.12
-9.69
-8.48
-6.72
-4.84
-3.30
-2.56
-2.90
-4.34
-6.63
-9.28
-11.67
-13.22
-13.61
-12.88
-11.37
-9.56
-7.87
-6.50
-5.47
-4.69
-4.04
-3.48
-3.00
-2.63
-2.32
-2.01
-1.62
-1.20
-0.83
-0.61
-0.66
-1.02
-1.61
-2.35
-3.09
-3.70
-4.15
-4.41
-4.42
-4.19
-3.88
-3.72
-3.95
-4.59
-5.47
-6.27
-6.48
-5.59
-3.37
0.10
4.43
9.03
13.44
17.33
20.03
20.92
19.93
17.65
14.90
12.63
10.74
9.05
7.49
6.07
4.83
3.92
3.39
3.17
3.07
2.89
2.62
2.26
1.84
1.44
1.15
1.00
0.92
0.78
0.39
-0.30
-1.27
-2.48
-3.80
-5.06
-6.18
-7.11
-7.91
-8.62
-9.23
-9.69
-9.97
-9.99
-9.71
-9.11
-8.22
-7.13
-5.91
-4.64
-3.37
-2.15
-0.99
0.08
1.05
1.86
2.47
2.89
3.12
3.20
3.17
3.03
2.80
2.51
2.18
1.81
1.42
0.97
0.42
-0.26
-1.09
-2.02
-3.01
-3.98
-4.91
-5.74
-6.45
-7.03
-7.54
-8.04
-8.65
-9.44
-10.35
-11.22
-11.78
-11.80
-11.10
-9.69
-7.65
-5.12
-2.24
0.83
3.92
6.83
9.31
11.14
12.15
12.28
11.62
10.32
8.69
7.01
5.57
4.51
3.81
3.36
2.97
2.55
2.12
1.79
1.65
1.66
1.68
1.51
1.03
0.25
-0.72
-1.69
-2.52
-3.14
-3.54
-3.73
-3.67
-3.32
-2.66
-1.72
-0.60
0.51
1.44
2.07
2.38
2.46
2.45
2.54
2.80
3.24
3.71
4.07
4.20
4.08
3.80
3.43
3.08
2.78
2.56
2.43
2.40
2.44
2.48
2.41
2.16
1.68
1.03
0.33
-0.29
-0.78
-1.10
-1.28
-1.36
-1.41
-1.48
-1.69
-2.14
-2.90
-3.91
-5.00
-5.94
-6.48
-6.47
-5.89
-4.84
-3.50
-2.05
-0.61
0.75
1.97
3.00
3.74
4.14
4.19
3.96
3.64
3.42
3.44
3.74
4.22
4.73
5.15
5.43
5.61
5.71
5.77
5.74
5.59
5.32
4.98
4.71
4.62
4.74
5.04
5.39
5.68
5.83
5.82
5.67
5.39
4.98
4.49
3.98
3.63
3.62
4.10
5.12
6.56
8.20
9.77
11.04
11.85
12.09
11.69
10.58
8.70
6.06
2.79
-0.85
-4.46
-7.67
-10.15
-11.76
-12.47
-12.41
-11.75
-10.67
-9.39
-8.08
-6.94
-6.10
-5.62
-5.44
-5.46
-5.57
-5.69
-5.84
-6.07
-6.47
-7.06
-7.80
-8.55
-9.18
-9.57
-9.70
-9.61
-9.39
-9.12
-8.82
-8.53
-8.25
-7.95
-7.62
-7.16
-6.53
-5.69
-4.68
-3.58
-2.52
-1.58
-0.80
-0.13
0.45
0.95
1.30
1.44
1.34
1.06
0.74
0.54
0.54
0.78
1.19
1.63
1.97
2.09
1.94
1.58
1.10
0.66
0.36
0.23
0.19
0.11
-0.11
-0.50
-0.99
-1.47
-1.84
-2.11
-2.33
-2.61
-2.96
-3.37
-3.79
-4.24
-4.74
-5.36
-6.09
-6.80
-7.30
-7.41
-7.06
-6.33
-5.40
-4.52
-3.83
-3.38
-3.09
-2.87
-2.63
-2.37
-2.16
-2.09
-2.20
-2.44
-2.66
-2.62
-2.06
-0.85
1.04
3.47
6.19
8.91
11.38
13.45
15.05
16.20
16.92
17.19
16.93
16.02
14.39
12.08
9.25
6.14
2.94
-0.29
-3.60
-7.08
-10.79
-14.65
-18.45
-21.83
-24.27
-25.17
-23.90
-20.12
-13.89
-5.91
2.76
10.92
17.77
23.17
27.54
31.52
35.54
39.54
43.01
45.30
45.94
44.86
42.34
38.81
34.68
30.25
25.78
21.47
17.46
13.75
10.21
6.66
2.97
-0.84
-4.60
-8.04
-10.95
-13.32
-15.38
-17.40
-19.47
-21.55
-23.50
-25.22
-26.62
-27.71
-28.50
-29.00
-29.03
-28.27
-26.52
-23.80
-20.50
-17.16
-14.45
-11.89
-9.23
-6.41
-3.58
-0.98
1.27
2.54
2.81
1.97
-0.05
-3.36
-7.91
-12.89
-17.51
-21.03
-22.90
-22.81
-20.95
-17.79
-14.17
-10.85
-8.35
-6.88
-6.28
-6.17
-6.07
-5.67
-4.80
-3.53
-1.99
-0.32
1.39
3.07
4.68
6.23
7.71
9.13
10.44
11.61
12.59
13.24
13.40
12.89
11.59
9.51
6.78
3.64
0.38
-2.76
-5.70
-8.42
-11.03
-13.58
-16.08
-18.37
-20.19
-21.24
-21.28
-20.21
-18.11
-15.12
-11.42
-7.20
-2.68
1.86
6.11
9.74
12.53
14.45
15.69
16.54
17.27
18.04
18.81
19.46
19.83
19.79
19.32
18.48
17.43
16.36
15.48
14.92
14.73
14.82
15.06
15.30
15.44
15.47
15.40
15.25
14.97
14.51
13.83
12.95
11.96
10.97
10.01
9.05
8.02
6.90
5.78
4.87
4.36
4.33
4.65
5.05
5.23
5.07
4.61
4.07
3.65
3.39
3.18
2.84
2.25
1.44
0.51
-0.37
-1.13
-1.78
-2.41
-3.07
-3.79
-4.51
-5.17
-5.69
-6.02
-6.17
-6.22
-6.29
-6.46
-6.83
-7.37
-8.03
-8.75
-9.49
-10.25
-11.04
-11.87
-12.64
-13.26
-13.62
-13.67
-13.43
-13.02
-12.59
-12.29
-12.24
-12.50
-13.08
-13.90
-14.82
-15.64
-16.11
-15.97
-15.08
-13.41
-11.14
-8.56
-6.02
-3.73
-1.71
0.24
2.44
5.18
8.56
12.42
16.36
19.92
22.65
24.27
24.68
23.95
22.25
19.86
17.06
14.12
11.32
8.81
6.69
4.93
3.46
2.24
1.24
0.48
-0.04
-0.35
-0.56
-0.81
-1.20
-1.80
-2.59
-3.51
-4.46
-5.38
-6.19
-6.90
-7.52
-8.09
-8.60
-9.05
-9.43
-9.73
-10.04
-10.43
-10.93
-11.46
-11.85
-11.86
-11.32
-10.22
-8.72
-7.07
-5.53
-4.25
-3.26
-2.53
-1.97
-1.53
-1.12
-0.69
-0.13
0.62
1.59
2.70
3.82
4.72
5.24
5.25
4.79
4.00
3.08
2.25
1.60
1.17
0.88
0.65
0.41
0.19
-0.00
-0.15
-0.27
-0.44
-0.72
-1.15
-1.69
-2.27
-2.81
-3.30
-3.75
-4.23
-4.82
-5.56
-6.48
-7.51
-8.58
-9.57
-10.38
-10.94
-11.18
-11.09
-10.63
-9.85
-8.80
-7.56
-6.23
-4.89
-3.54
-2.18
-0.79
0.61
1.93
3.05
3.91
4.54
5.01
5.41
5.78
6.12
6.38
6.55
6.67
6.89
7.35
8.02
8.68
9.06
8.96
8.40
7.55
6.62
5.92
5.63
5.72
5.92
5.95
5.69
5.14
4.38
3.43
2.54
1.98
1.88
2.08
2.30
2.31
2.00
1.42
0.75
0.64
1.86
4.94
9.89
16.39
24.00
32.32
40.95
47.28
48.92
45.08
37.30
28.02
19.07
11.43
5.42
1.06
-1.85
-3.21
-3.04
-1.49
0.96
3.66
6.00
7.58
8.17
7.73
6.67
5.54
4.83
4.62
4.72
4.85
4.77
4.37
3.64
2.82
2.18
1.91
1.97
2.15
2.22
2.01
1.36
0.19
-1.41
-3.26
-5.16
-6.99
-8.73
-10.43
-12.16
-13.97
-15.91
-17.89
-19.76
-21.33
-22.44
-23.02
-23.09
-22.79
-22.37
-22.12
-22.33
-23.20
-24.78
-26.93
-29.23
-31.10
-31.91
-31.21
-28.91
-25.32
-21.06
-16.81
-13.09
-10.11
-7.76
-5.72
-3.71
-1.61
0.47
2.25
3.50
4.10
4.15
3.89
3.60
3.45
3.40
3.33
3.09
2.65
2.09
1.55
1.06
0.54
-0.18
-1.31
-2.91
-4.95
-7.19
-9.33
-11.08
-12.19
-12.54
-12.14
-11.09
-9.58
-7.76
-5.76
-3.66
-1.49
0.73
2.98
5.26
7.54
9.85
12.16
14.38
16.37
17.95
18.99
19.45
19.35
18.77
17.77
16.34
14.46
12.18
9.61
6.94
4.36
1.97
-0.22
-2.27
-4.22
-6.09
-7.84
-9.46
-10.96
-12.39
-13.79
-15.17
-16.47
-17.66
-18.71
-19.63
-20.45
-21.15
-21.63
-21.76
-21.43
-20.58
-19.30
-17.76
-16.23
-14.97
-14.16
-13.84
-13.82
-13.69
-12.92
-11.01
-7.69
-3.00
2.68
8.80
14.78
20.16
24.66
28.19
30.76
32.36
33.00
32.67
31.45
29.54
27.23
24.82
22.52
20.39
18.32
16.14
13.73
11.12
8.47
6.03
3.97
2.33
1.02
-0.11
-1.19
-2.27
-3.29
-4.11
-4.66
-4.96
-5.13
-5.37
-5.85
-6.68
-7.85
-9.26
-10.76
-12.18
-13.36
-14.15
-14.41
-14.06
-13.09
-11.61
-9.85
-8.05
-6.40
-4.99
-3.78
-2.68
-1.64
-0.66
0.25
1.05
1.74
2.31
2.75
3.00
3.03
2.87
2.58
2.24
1.92
1.58
1.11
0.43
-0.49
-1.58
-2.73
-3.84
-4.89
-5.90
-6.88
-7.80
-8.54
-9.00
-9.09
-8.84
-8.32
-7.67
-6.94
-6.11
-5.11
-3.86
-2.36
-0.64
1.18
3.03
4.89
6.77
8.75
10.87
13.08
15.32
17.47
19.45
21.12
22.38
23.12
23.24
22.70
21.53
19.88
17.96
16.00
14.18
12.58
11.18
9.92
8.74
7.61
6.55
5.62
4.88
4.38
4.19
4.36
4.96
6.03
7.52
9.33
11.30
13.29
15.14
16.77
18.12
19.23
20.06
20.45
20.21
19.16
17.23
14.40
10.83
6.76
2.55
-1.44
-4.89
-7.44
-8.63
-8.06
-5.67
-1.85
2.67
6.89
9.74
10.34
8.30
3.88
-2.11
-8.76
-15.27
-21.13
-25.72
-28.25
-28.59
-27.55
-26.23
-25.33
-25.07
-25.19
-25.14
-24.26
-22.13
-18.81
-14.76
-10.99
-7.75
-5.19
-3.29
-1.84
-0.62
0.42
1.12
1.28
0.87
0.06
-1.00
-2.19
-3.23
-3.98
-4.34
-4.34
-4.07
-3.73
-3.54
-3.87
-4.93
-6.68
-8.81
-10.84
-12.41
-13.33
-13.62
-13.40
-12.84
-12.03
-10.95
-9.55
-7.78
-5.65
-3.24
-0.66
1.93
4.28
6.14
7.29
7.60
7.07
5.84
4.08
2.00
-0.26
-2.60
-4.92
-7.03
-8.72
-9.77
-10.01
-9.42
-8.14
-6.45
-4.66
-3.11
-2.03
-1.50
-1.46
-1.65
-1.74
-1.40
-0.46
1.06
2.96
4.94
6.73
8.20
9.31
10.06
10.43
10.41
9.99
9.23
8.21
7.03
5.70
4.19
2.43
0.47
-1.51
-3.21
-4.35
-4.73
-4.41
-3.63
-2.73
-1.99
-1.57
-1.49
-1.67
-2.01
-2.44
-2.89
-3.25
-3.38
-3.07
-2.19
-0.70
1.25
3.39
5.39
6.94
7.87
8.18
8.02
7.63
7.30
7.28
7.72
8.62
9.82
11.07
12.09
12.64
12.63
12.12
11.34
10.57
10.03
9.83
9.89
10.04
10.04
9.72
8.96
7.76
6.15
4.18
1.87
-0.75
-3.63
-6.64
-9.59
-12.33
-14.73
-16.78
-18.50
-19.92
-21.03
-21.79
-22.17
-22.14
-21.76
-21.12
-20.29
-19.36
-18.41
-17.56
-17.01
-16.97
-17.48
-18.37
-19.24
-19.58
-18.98
-17.20
-14.30
-10.59
-6.44
-2.18
1.97
5.89
9.43
12.45
14.94
16.94
18.55
19.88
21.01
21.92
22.49
22.53
21.90
20.84
19.63
18.45
17.35
16.35
15.51
14.90
14.53
14.31
14.63
15.68
17.29
18.97
20.23
20.79
20.61
19.81
18.68
18.40
19.82
23.00
27.23
31.60
35.49
38.76
41.64
44.54
48.81
55.17
63.24
71.65
78.91
84.10
86.87
87.34
79.43
60.46
32.66
2.27
-24.80
-45.63
-59.82
-68.28
-72.38
-74.10
-73.86
-71.95
-68.94
-65.77
-63.18
-61.37
-60.15
-59.17
-57.25
-53.01
-45.97
-36.52
-25.78
-14.97
-4.98
2.96
7.92
9.57
9.64
8.95
7.80
6.29
4.10
1.50
-1.19
-3.67
-5.77
-7.24
-8.05
-8.19
-7.71
-6.77
-5.51
-4.15
-2.83
-1.64
-0.61
0.11
0.45
0.40
-0.02
-0.70
-1.54
-2.42
-3.22
-3.87
-4.43
-4.86
-5.14
-5.27
-5.28
-5.20
-5.07
-4.90
-4.69
-4.49
-4.32
-4.20
-4.14
-4.10
-4.11
-4.19
-4.41
-4.82
-5.44
-6.21
-6.97
-7.53
-7.75
-7.60
-7.18
-6.74
-6.52
-6.74
-7.41
-8.39
-9.39
-10.06
-10.13
-9.43
-7.94
-5.75
-3.02
0.04
3.21
6.23
8.90
11.10
12.81
14.10
15.14
16.10
17.13
18.31
19.62
20.96
22.13
22.90
23.06
22.55
21.44
19.98
18.45
17.07
15.90
14.81
13.58
12.01
10.01
7.65
5.10
2.52
0.01
-2.45
-4.91
-7.43
-9.97
-12.39
-14.54
-16.27
-17.50
-18.24
-18.53
-18.44
-18.01
-17.22
-16.07
-14.58
-12.81
-10.91
-9.04
-7.37
-5.99
-4.91
-4.06
-3.32
-2.63
-1.97
-1.38
-0.96
-0.74
-0.73
-0.89
-1.15
-1.45
-1.74
-2.01
-2.27
-2.57
-2.96
-3.47
-4.11
-4.79
-5.42
-5.87
-6.10
-6.14
-6.11
-6.18
-6.46
-6.95
-7.59
-8.20
-8.61
-8.64
-8.18
-7.18
-5.66
-3.75
-1.65
0.38
2.11
3.38
4.17
4.56
4.68
4.70
4.73
4.84
5.03
5.30
5.61
5.89
6.12
6.26
6.29
6.21
6.01
5.72
5.35
4.91
4.42
3.89
3.36
2.85
2.37
1.95
1.56
1.20
0.82
0.41
-0.05
-0.54
-1.08
-1.68
-2.37
-3.15
-3.96
-4.65
-5.03
-4.96
-4.37
-3.35
-2.06
-0.71
0.52
1.58
2.46
3.23
3.93
4.54
5.01
5.23
5.12
4.69
4.04
3.38
2.89
2.71
2.84
3.14
3.42
3.53
3.41
3.14
2.83
2.55
2.29
1.97
1.55
1.03
0.48
0.03
-0.27
-0.41
-0.53
-0.77
-1.25
-1.97
-2.89
-3.88
-4.82
-5.63
-6.26
-6.64
-6.70
-6.37
-5.60
-4.44
-2.99
-1.44
0.07
1.40
2.50
3.34
3.94
4.30
4.42
4.35
4.17
4.00
3.96
4.06
4.24
4.37
4.32
4.05
3.61
3.14
2.78
2.62
2.64
2.74
2.80
2.71
2.46
2.08
1.65
1.24
0.89
0.57
0.24
-0.17
-0.70
-1.36
-2.15
-3.01
-3.86
-4.62
-5.16
-5.39
-5.21
-4.57
-3.50
-2.13
-0.62
0.78
1.90
2.63
3.00
3.10
3.07
2.99
2.92
2.85
2.77
2.72
2.71
2.76
2.84
2.88
2.80
2.55
2.18
1.75
1.37
1.04
0.73
0.33
-0.23
-0.92
-1.65
-2.25
-2.63
-2.81
-2.93
-3.16
-3.64
-4.39
-5.30
-6.21
-6.97
-7.47
-7.67
-7.54
-7.09
-6.37
-5.44
-4.36
-3.20
-1.96
-0.64
0.75
2.19
3.62
4.98
6.19
7.19
7.96
8.48
8.77
8.89
8.87
8.74
8.47
7.98
7.18
6.07
4.72
3.33
2.09
1.18
0.64
0.41
0.33
0.25
0.06
-0.24
-0.55
-0.76
-0.82
-0.76
-0.70
-0.80
-1.14
-1.71
-2.45
-3.26
-4.06
-4.81
-5.46
-5.96
-6.21
-6.16
-5.76
-5.01
-3.99
-2.81
-1.60
-0.51
0.33
0.86
1.08
1.06
0.95
0.84
0.80
0.86
1.02
1.27
1.62
2.04
2.49
2.87
3.12
3.23
3.25
3.26
3.32
3.42
3.50
3.45
3.16
2.63
1.90
1.09
0.29
-0.42
-1.01
-1.47
-1.79
-1.98
-2.05
-2.05
-2.03
-2.05
-2.11
-2.20
-2.32
-2.47
-2.72
-3.13
-3.74
-4.47
-5.20
-5.76
-6.01
-5.88
-5.41
-4.65
-3.64
-2.43
-1.06
0.39
1.78
2.94
3.74
4.12
4.15
3.98
3.78
3.65
3.60
3.55
3.41
3.17
2.90
2.74
2.79
3.08
3.53
4.01
4.41
4.67
4.83
4.91
4.96
4.96
4.83
4.52
3.99
3.28
2.49
1.75
1.17
0.84
0.75
0.80
0.90
0.95
0.94
0.96
1.16
1.67
2.51
3.57
4.57
5.23
5.36
5.02
4.51
4.33
4.96
6.74
9.65
13.36
17.30
20.93
23.92
26.30
28.38
30.66
33.60
37.46
42.04
46.64
50.01
50.56
46.67
37.36
22.82
4.73
-14.01
-30.07
-40.71
-44.73
-42.69
-36.53
-28.72
-21.31
-15.36
-11.00
-7.82
-5.43
-3.76
-3.01
-3.39
-4.81
-6.77
-8.55
-9.55
-9.58
-8.92
-8.18
-7.90
-8.34
-9.37
-10.62
-11.74
-12.52
-12.93
-12.98
-12.75
-12.41
-12.33
-12.99
-14.83
-17.92
-21.78
-25.51
-28.13
-29.06
-28.36
-26.63
-24.61
-22.77
-21.11
-19.26
-16.85
-13.85
-10.57
-7.57
-5.23
-3.61
-2.36
-0.94
1.11
3.90
7.16
10.35
12.96
14.72
15.69
16.15
16.43
16.75
17.13
17.44
17.45
17.05
16.24
15.15
13.98
12.87
11.93
11.15
10.43
9.63
8.61
7.26
5.57
3.54
1.30
-0.96
-3.03
-4.70
-5.89
-6.61
-7.00
-7.34
-7.98
-9.23
-11.21
-13.82
-16.79
-19.78
-22.41
-24.27
-25.18
-25.24
-24.78
-24.15
-23.60
-23.18
-22.85
-22.34
-21.23
-19.36
-16.92
-14.34
-12.04
-10.21
-8.83
-7.81
-6.80
-5.23
-2.57
1.51
7.10
14.07
21.82
30.18
37.27
40.65
39.39
34.79
29.08
23.96
20.18
17.68
15.80
14.25
12.69
11.03
9.25
7.19
4.60
1.32
-2.64
-7.00
-11.34
-15.03
-17.29
-17.64
-16.20
-13.60
-10.67
-8.18
-6.55
-5.87
-5.78
-5.71
-5.18
-4.12
-2.79
-1.58
-0.76
-0.43
-0.49
-0.75
-0.96
-0.97
-0.80
-0.52
-0.26
-0.10
-0.09
-0.27
-0.63
-1.11
-1.61
-2.07
-2.44
-2.74
-3.02
-3.33
-3.66
-4.01
-4.37
-4.71
-5.01
-5.23
-5.26
-4.96
-4.16
-2.78
-0.86
1.41
3.71
5.76
7.34
8.39
8.99
9.26
9.38
9.45
9.57
9.79
10.11
10.43
10.62
10.50
9.92
8.87
7.47
5.95
4.57
3.48
2.75
2.30
2.02
1.79
1.50
1.10
0.64
0.18
-0.13
-0.18
0.08
0.56
1.04
1.27
1.07
0.39
-0.63
-1.70
-2.52
-2.85
-2.59
-1.73
-0.43
1.10
2.61
3.86
4.69
5.06
5.07
4.89
4.70
4.56
4.37
3.96
3.13
1.83
0.13
-1.77
-3.62
-5.25
-6.55
-7.50
-8.15
-8.56
-8.81
-9.05
-9.41
-10.04
-11.02
-12.33
-13.82
-15.29
-16.53
-17.42
-17.93
-18.16
-18.25
-18.26
-18.15
-17.75
-16.79
-15.10
-12.62
-9.48
-5.86
-1.95
2.15
6.43
10.87
15.35
19.60
23.23
25.89
27.37
27.75
27.35
26.68
26.23
26.38
27.27
28.81
30.73
32.71
34.45
35.70
36.30
36.17
35.36
34.07
32.65
31.52
30.99
31.10
31.53
31.68
30.86
28.48
24.34
18.59
11.70
4.25
-3.29
-10.72
-18.12
-25.78
-33.94
-42.63
-51.45
-59.71
-66.56
-71.28
-73.47
-73.06
-70.25
-65.46
-59.21
-52.07
-44.59
-37.28
-30.49
-24.33
-18.63
-13.03
-7.32
-1.46
4.32
9.79
14.67
18.77
21.90
23.95
24.86
24.44
22.54
19.07
14.28
8.52
2.18
-4.48
-11.13
-17.31
-22.56
-26.23
-27.77
-26.80
-23.79
-20.06
-17.65
-18.40
-22.12
-27.88
-33.56
-38.78
-42.89
-46.02
-47.41
-47.13
-45.26
-41.79
-36.80
-30.40
-22.96
-14.81
-6.53
1.25
7.84
13.02
17.22
21.36
26.80
34.68
45.67
59.30
73.97
87.29
96.97
101.50
100.33
93.93
83.41
70.25
55.94
41.88
29.24
18.92
11.35
6.26
2.79
-0.20
-3.61
-7.77
-12.32
-16.45
-19.31
-20.43
-19.90
-18.28
-16.31
-14.51
-12.96
-11.30
-8.95
-5.39
-0.33
6.47
15.18
25.58
36.81
47.43
55.67
60.21
60.49
56.95
51.01
44.44
38.54
33.52
28.86
23.40
16.12
6.15
-6.93
-22.37
-38.16
-51.61
-60.38
-62.61
-57.82
-46.48
-30.37
-12.57
2.94
11.88
10.35
-4.34
-31.68
-67.96
-102.40
-121.77
-119.49
-99.14
-69.53
-39.11
-14.74
4.25
18.78
29.36
36.02
38.79
38.06
34.31
29.98
26.13
23.94
25.25
30.13
36.49
42.77
47.17
48.20
44.77
35.67
20.97
0.42
-25.28
-53.50
-77.00
-89.65
-90.76
-84.17
-76.94
-68.17
-55.88
-39.35
-19.58
1.24
18.34
27.70
28.26
20.17
7.83
-3.20
-9.28
-10.46
-8.67
-7.50
-8.67
-11.57
-14.02
-13.61
-9.23
-1.42
8.21
17.73
25.03
28.86
29.14
26.87
23.93
21.56
20.04
19.14
18.62
18.15
17.80
17.77
18.20
19.18
20.22
20.52
19.43
16.82
12.96
8.49
4.04
0.03
-3.26
-5.85
-7.99
-9.92
-11.75
-13.49
-15.07
-16.39
-17.41
-18.05
-18.25
-18.02
-17.41
-16.46
-15.21
-13.69
-11.93
-9.98
-7.87
-5.58
-3.05
-0.23
2.87
6.13
9.26
11.91
13.81
14.84
15.08
14.76
14.16
13.48
12.81
12.15
11.48
10.76
10.03
9.35
8.79
8.38
8.12
7.91
7.64
7.22
6.59
5.80
4.93
4.09
3.35
2.70
2.12
1.54
0.89
0.13
-0.77
-1.81
-2.97
-4.20
-5.43
-6.55
-7.43
-7.90
-7.85
-7.23
-6.12
-4.63
-2.95
-1.25
0.35
1.78
3.03
4.09
4.95
5.61
6.06
6.34
6.48
6.52
6.48
6.42
6.38
6.42
6.57
6.85
7.18
7.48
7.64
7.57
7.28
6.83
6.28
5.71
5.11
4.48
3.80
3.11
2.46
1.93
1.51
1.11
0.65
0.07
-0.61
-1.29
-1.90
-2.42
-2.93
-3.54
-4.39
-5.47
-6.70
-7.90
-8.86
-9.44
-9.50
-9.03
-8.03
-6.59
-4.88
-3.03
-1.22
0.45
1.87
2.97
3.72
4.14
4.33
4.40
4.49
4.67
4.93
5.18
5.35
5.39
5.32
5.19
5.04
4.91
4.78
4.66
4.54
4.42
4.30
4.15
3.93
3.62
3.20
2.72
2.22
1.74
1.30
0.90
0.48
0.01
-0.49
-1.02
-1.55
-2.13
-2.81
-3.64
-4.61
-5.60
-6.39
-6.80
-6.76
-6.31
-5.63
-4.84
-4.02
-3.12
-2.11
-0.98
0.19
1.28
2.17
2.81
3.19
3.32
3.20
2.85
2.32
1.69
1.11
0.71
0.55
0.61
0.80
0.98
1.01
0.79
0.29
-0.43
-1.27
-2.12
-2.90
-3.55
-4.13
-4.69
-5.27
-5.87
-6.38
-6.67
-6.62
-6.18
-5.40
-4.47
-3.56
-2.83
-2.34
-2.06
-1.95
-1.97
-2.14
-2.45
-2.87
-3.26
-3.47
-3.38
-2.94
-2.21
-1.33
-0.41
0.51
1.46
2.45
3.48
4.42
5.19
5.70
5.97
6.07
6.06
5.92
5.62
5.12
4.52
4.00
3.76
3.90
4.36
4.92
5.28
5.24
4.78
4.03
3.17
2.36
1.68
1.17
0.84
0.72
0.78
0.91
0.93
0.69
0.12
-0.73
-1.68
-2.56
-3.27
-3.85
-4.39
-4.98
-5.66
-6.36
-6.99
-7.48
-7.78
-7.89
-7.78
-7.43
-6.78
-5.80
-4.50
-2.94
-1.27
0.33
1.65
2.55
2.97
3.00
2.81
2.58
2.47
2.53
2.72
2.93
3.08
3.11
3.01
2.79
2.51
2.24
2.08
2.10
2.34
2.70
3.03
3.13
2.86
2.21
1.28
0.24
-0.69
-1.37
-1.78
-1.93
-1.96
-2.00
-2.18
-2.54
-3.07
-3.68
-4.25
-4.73
-5.11
-5.47
-5.84
-6.22
-6.48
-6.47
-6.06
-5.24
-4.12
-2.84
-1.57
-0.37
0.74
1.79
2.77
3.62
4.22
4.48
4.37
3.96
3.42
2.97
2.75
2.79
3.01
3.27
3.44
3.48
3.43
3.37
3.32
3.27
3.15
2.91
2.53
2.09
1.66
1.27
0.94
0.63
0.31
-0.07
-0.52
-1.05
-1.69
-2.39
-3.08
-3.66
-4.07
-4.32
-4.50
-4.75
-5.18
-5.79
-6.46
-6.99
-7.18
-6.92
-6.20
-5.10
-3.76
-2.33
-0.94
0.34
1.42
2.27
2.85
3.18
3.30
3.29
3.24
3.25
3.39
3.68
4.06
4.47
4.77
4.88
4.75
4.44
4.05
3.72
3.53
3.46
3.43
3.33
3.09
2.72
2.31
1.94
1.64
1.39
1.10
0.73
0.26
-0.28
-0.86
-1.45
-2.07
-2.72
-3.42
-4.15
-4.89
-5.59
-6.18
-6.59
-6.69
-6.43
-5.74
-4.68
-3.39
-2.03
-0.76
0.32
1.22
1.98
2.65
3.24
3.70
3.94
3.91
3.64
3.21
2.79
2.50
2.42
2.50
2.63
2.71
2.69
2.58
2.46
2.37
2.33
2.28
2.13
1.84
1.39
0.87
0.40
0.09
-0.04
-0.05
-0.07
-0.24
-0.65
-1.29
-2.09
-2.97
-3.88
-4.78
-5.63
-6.30
-6.61
-6.36
-5.46
-3.99
-2.21
-0.46
0.97
1.93
2.42
2.57
2.52
2.39
2.25
2.13
2.06
2.12
2.35
2.73
3.17
3.52
3.63
3.45
3.06
2.65
2.39
2.37
2.53
2.73
2.82
2.76
2.58
2.38
2.22
2.06
1.79
1.33
0.69
-0.05
-0.72
-1.23
-1.55
-1.77
-2.04
-2.47
-3.12
-3.91
-4.72
-5.40
-5.83
-5.96
-5.82
-5.46
-4.94
-4.30
-3.52
-2.58
-1.54
-0.50
0.43
1.16
1.68
2.07
2.44
2.83
3.21
3.47
3.53
3.42
3.25
3.16
3.25
3.48
3.72
3.81
3.68
3.37
3.02
2.77
2.69
2.72
2.72
2.55
2.13
1.47
0.69
-0.08
-0.72
-1.15
-1.37
-1.46
-1.48
-1.51
-1.57
-1.68
-1.83
-2.01
-2.23
-2.51
-2.85
-3.26
-3.74
-4.27
-4.79
-5.26
-5.60
-5.73
-5.57
-5.08
-4.24
-3.09
-1.75
-0.39
0.76
1.52
1.80
1.71
1.42
1.18
1.16
1.40
1.82
2.28
2.67
2.94
3.12
3.22
3.23
3.10
2.82
2.46
2.13
1.94
1.93
2.06
2.20
2.27
2.24
2.14
2.04
1.95
1.83
1.64
1.33
0.92
0.47
0.07
-0.24
-0.47
-0.67
-0.93
-1.33
-1.89
-2.62
-3.43
-4.19
-4.76
-5.00
-4.86
-4.33
-3.51
-2.51
-1.45
-0.43
0.50
1.30
1.93
2.35
2.54
2.50
2.29
2.04
1.86
1.87
2.11
2.56
3.11
3.59
3.81
3.64
3.07
2.22
1.32
0.59
0.14
-0.08
-0.19
-0.32
-0.50
-0.67
-0.72
-0.65
-0.55
-0.56
-0.80
-1.23
-1.72
-2.06
-2.14
-1.98
-1.71
-1.53
-1.59
-1.96
-2.57
-3.31
-4.00
-4.53
-4.80
-4.79
-4.52
-4.03
-3.38
-2.65
-1.90
-1.22
-0.64
-0.13
0.35
0.86
1.41
1.99
2.52
2.94
3.21
3.31
3.26
3.13
2.96
2.81
2.67
2.55
2.42
2.28
2.13
2.02
1.97
1.98
1.99
1.96
1.83
1.59
1.26
0.91
0.60
0.37
0.25
0.18
0.12
-0.04
-0.35
-0.84
-1.41
-1.93
-2.23
-2.25
-2.06
-1.83
-1.78
-2.05
-2.64
-3.40
-4.17
-4.78
-5.16
-5.31
-5.20
-4.82
-4.14
-3.16
-1.98
-0.78
0.25
0.97
1.36
1.51
1.53
1.50
1.48
1.46
1.43
1.42
1.42
1.42
1.42
1.35
1.19
0.93
0.60
0.21
-0.20
-0.65
-1.15
-1.72
-2.33
-2.91
-3.39
-3.69
-3.81
-3.78
-3.70
-3.68
-3.77
-3.93
-4.04
-3.92
-3.48
-2.72
-1.78
-0.85
-0.11
0.35
0.51
0.44
0.21
-0.09
-0.39
-0.63
-0.82
-0.96
-1.08
-1.19
-1.21
-1.05
-0.62
0.07
0.91
1.72
2.32
2.59
2.55
2.31
1.97
1.67
1.49
1.46
1.59
1.83
2.09
2.27
2.30
2.17
1.93
1.67
1.47
1.34
1.24
1.14
0.99
0.78
0.53
0.27
0.03
-0.18
-0.33
-0.40
-0.39
-0.36
-0.38
-0.54
-0.89
-1.43
-2.08
-2.72
-3.25
-3.59
-3.69
-3.60
-3.40
-3.19
-3.14
-3.32
-3.72
-4.21
-4.57
-4.55
-4.08
-3.19
-2.12
-1.11
-0.32
0.20
0.55
0.87
1.23
1.60
1.91
2.04
1.97
1.75
1.51
1.35
1.33
1.44
1.60
1.72
1.75
1.68
1.60
1.56
1.62
1.75
1.91
2.02
2.06
2.02
1.91
1.77
1.61
1.41
1.12
0.68
0.08
-0.67
-1.45
-2.12
-2.56
-2.75
-2.76
-2.73
-2.81
-3.07
-3.41
-3.67
-3.68
-3.35
-2.71
-1.90
-1.07
-0.33
0.32
0.90
1.46
1.96
2.31
2.40
2.22
1.85
1.46
1.23
1.26
1.55
2.04
2.61
3.17
3.62
3.90
3.94
3.78
3.45
3.07
2.73
2.47
2.27
2.06
1.82
1.53
1.24
1.00
0.80
0.58
0.26
-0.19
-0.73
-1.24
-1.62
-1.82
-1.93
-2.08
-2.40
-2.92
-3.56
-4.17
-4.58
-4.69
-4.46
-3.96
-3.24
-2.39
-1.48
-0.59
0.16
0.71
1.04
1.18
1.22
1.27
1.38
1.56
1.79
2.07
2.37
2.70
3.03
3.28
3.38
3.30
3.03
2.66
2.30
2.03
1.87
1.77
1.63
1.37
0.98
0.48
-0.02
-0.44
-0.72
-0.89
-1.05
-1.29
-1.68
-2.21
-2.79
-3.28
-3.56
-3.52
-3.15
-2.53
-1.79
-1.07
-0.48
-0.02
0.37
0.78
1.23
1.66
1.93
1.94
1.69
1.28
0.91
0.75
0.84
1.10
1.38
1.56
1.56
1.43
1.22
0.99
0.78
0.57
0.35
0.07
-0.27
-0.66
-1.07
-1.44
-1.77
-2.07
-2.40
-2.79
-3.25
-3.74
-4.22
-4.69
-5.15
-5.64
-6.18
-6.70
-7.10
-7.26
-7.09
-6.58
-5.81
-4.90
-3.95
-3.06
-2.24
-1.46
-0.67
0.12
0.91
1.61
2.18
2.60
2.93
3.24
3.55
3.83
3.98
3.92
3.63
3.20
2.79
2.55
2.50
2.58
2.62
2.49
2.15
1.65
1.16
0.82
0.71
0.81
0.99
1.10
1.06
0.83
0.44
-0.07
-0.67
-1.35
-2.06
-2.73
-3.23
-3.45
-3.36
-3.00
-2.48
-1.91
-1.36
-0.84
-0.30
0.28
0.89
1.46
1.90
2.15
2.17
1.95
1.58
1.16
0.80
0.61
0.60
0.73
0.88
0.96
0.89
0.65
0.25
-0.29
-1.00
-1.84
-2.77
-3.66
-4.36
-4.75
-4.78
-4.52
-4.07
-3.55
-3.03
-2.56
-2.15
-1.84
-1.71
-1.80
-2.15
-2.71
-3.33
-3.85
-4.09
-3.96
-3.47
-2.68
-1.72
-0.69
0.33
1.29
2.11
2.68
2.91
2.74
2.25
1.64
1.15
1.00
1.25
1.76
2.29
2.63
2.67
2.48
2.22
2.07
2.12
2.31
2.49
2.52
2.34
1.99
1.61
1.29
1.09
0.93
0.72
0.38
-0.03
-0.40
-0.53
-0.39
-0.05
0.25
0.28
-0.06
-0.67
-1.35
-1.82
-1.95
-1.74
-1.32
-0.86
-0.46
-0.15
0.08
0.29
0.52
0.78
1.04
1.29
1.48
1.59
1.60
1.52
1.40
1.29
1.28
1.42
1.72
2.10
2.48
2.73
2.79
2.67
2.48
2.32
2.29
2.38
2.52
2.59
2.52
2.29
1.96
1.61
1.29
0.96
0.55
0.02
-0.61
-1.22
-1.65
-1.82
-1.76
-1.61
-1.51
-1.56
-1.75
-2.03
-2.29
-2.49
-2.58
-2.49
-2.16
-1.53
-0.59
0.52
1.57
2.34
2.67
2.56
2.15
1.60
1.05
0.57
0.15
-0.23
-0.57
-0.81
-0.88
-0.74
-0.40
0.09
0.64
1.18
1.65
1.99
2.16
2.12
1.89
1.51
1.09
0.75
0.54
0.46
0.41
0.26
-0.07
-0.54
-1.03
-1.35
-1.41
-1.23
-0.98
-0.86
-0.99
-1.36
-1.84
-2.23
-2.43
-2.42
-2.28
-2.09
-1.86
-1.54
-1.09
-0.50
0.16
0.78
1.27
1.59
1.71
1.63
1.39
1.04
0.68
0.43
0.39
0.53
0.80
1.05
1.18
1.15
1.00
0.79
0.61
0.51
0.52
0.62
0.76
0.83
0.73
0.40
-0.12
-0.73
-1.29
-1.69
-1.91
-2.00
-2.06
-2.13
-2.23
-2.33
-2.37
-2.34
-2.26
-2.15
-2.02
-1.85
-1.61
-1.29
-0.87
-0.39
0.13
0.65
1.15
1.59
1.98
2.29
2.51
2.60
2.54
2.33
2.04
1.75
1.53
1.42
1.37
1.30
1.13
0.81
0.44
0.11
-0.05
-0.01
0.13
0.24
0.17
-0.11
-0.52
-0.92
-1.14
-1.15
-1.01
-0.89
-0.93
-1.19
-1.58
-1.95
-2.19
-2.29
-2.33
-2.45
-2.73
-3.14
-3.54
-3.74
-3.58
-3.00
-2.06
-0.92
0.23
1.18
1.84
2.15
2.13
1.88
1.50
1.10
0.81
0.71
0.83
1.18
1.67
2.20
2.64
2.89
2.92
2.73
2.41
2.05
1.70
1.41
1.17
0.96
0.75
0.58
0.45
0.40
0.43
0.50
0.56
0.54
0.39
0.09
-0.36
-0.92
-1.52
-2.08
-2.55
-2.94
-3.27
-3.55
-3.74
-3.72
-3.37
-2.65
-1.65
-0.54
0.46
1.21
1.68
1.94
2.05
2.05
1.92
1.67
1.35
1.05
0.88
0.88
1.02
1.27
1.57
1.93
2.32
2.71
2.98
2.98
2.64
1.98
1.12
0.25
-0.47
-0.94
-1.15
-1.16
-1.07
-1.01
-1.07
-1.35
-1.87
-2.58
-3.36
-4.07
-4.58
-4.85
-4.91
-4.82
-4.64
-4.36
-3.96
-3.38
-2.66
-1.86
-1.12
-0.55
-0.22
-0.09
-0.06
0.01
0.21
0.57
1.05
1.56
1.99
2.33
2.61
2.89
3.22
3.58
3.84
3.89
3.67
3.21
2.67
2.17
1.78
1.48
1.19
0.89
0.63
0.47
0.43
0.44
0.35
0.03
-0.52
-1.15
-1.67
-1.92
-1.89
-1.68
-1.44
-1.26
-1.14
-0.99
-0.73
-0.30
0.30
1.01
1.73
2.37
2.82
2.99
2.88
2.55
2.14
1.82
1.71
1.81
2.05
2.28
2.37
2.27
1.98
1.60
1.23
0.96
0.81
0.77
0.78
0.76
0.62
0.31
-0.13
-0.63
-1.06
-1.35
-1.46
-1.47
-1.48
-1.59
-1.87
-2.26
-2.66
-2.92
-2.95
-2.70
-2.22
-1.57
-0.84
-0.12
0.52
1.02
1.33
1.45
1.40
1.27
1.11
0.97
0.90
0.88
0.92
1.02
1.13
1.23
1.23
1.10
0.86
0.59
0.37
0.29
0.34
0.46
0.55
0.55
0.39
0.09
-0.33
-0.81
-1.25
-1.60
-1.79
-1.84
-1.84
-1.91
-2.17
-2.59
-3.07
-3.38
-3.34
-2.86
-2.02
-1.01
-0.04
0.71
1.20
1.46
1.59
1.65
1.68
1.64
1.52
1.27
0.94
0.58
0.27
0.08
0.05
0.18
0.42
0.67
0.87
0.96
0.93
0.82
0.66
0.48
0.28
0.07
-0.16
-0.39
-0.60
-0.83
-1.10
-1.45
-1.88
-2.39
-2.94
-3.44
-3.83
-4.06
-4.06
-3.79
-3.24
-2.46
-1.54
-0.65
0.06
0.46
0.55
0.40
0.19
0.07
0.09
0.26
0.50
0.75
0.97
1.17
1.35
1.51
1.58
1.54
1.38
1.15
0.92
0.77
0.71
0.70
0.71
0.68
0.59
0.42
0.19
-0.09
-0.38
-0.65
-0.86
-1.03
-1.22
-1.48
-1.83
-2.23
-2.61
-2.89
-3.00
-2.94
-2.71
-2.30
-1.70
-0.92
-0.02
0.90
1.69
2.19
2.35
2.19
1.84
1.47
1.24
1.19
1.32
1.54
1.75
1.86
1.81
1.61
1.29
0.91
0.56
0.34
0.34
0.57
0.97
1.37
1.57
1.43
0.95
0.23
-0.54
-1.20
-1.67
-1.98
-2.22
-2.48
-2.79
-3.11
-3.37
-3.50
-3.49
-3.34
-3.10
-2.77
-2.33
-1.76
-1.06
-0.32
0.35
0.85
1.15
1.31
1.45
1.67
1.96
2.22
2.30
2.17
1.89
1.62
1.49
1.53
1.64
1.63
1.39
0.90
0.28
-0.28
-0.63
-0.74
-0.66
-0.52
-0.45
-0.51
-0.71
-1.02
-1.36
-1.66
-1.83
-1.84
-1.75
-1.67
-1.72
-1.95
-2.32
-2.63
-2.70
-2.39
-1.74
-0.89
-0.07
0.59
1.06
1.44
1.82
2.25
2.65
2.91
2.92
2.68
2.27
1.83
1.47
1.26
1.17
1.16
1.15
1.11
1.04
0.97
0.94
0.98
1.03
1.07
1.00
0.81
0.51
0.15
-0.19
-0.43
-0.55
-0.56
-0.53
-0.56
-0.75
-1.13
-1.67
-2.28
-2.84
-3.24
-3.40
-3.27
-2.85
-2.16
-1.26
-0.28
0.62
1.31
1.71
1.84
1.80
1.69
1.59
1.52
1.48
1.51
1.64
1.92
2.34
2.77
3.06
3.06
2.71
2.09
1.41
0.87
0.62
0.66
0.84
1.00
1.03
0.90
0.71
0.54
0.43
0.32
0.10
-0.30
-0.86
-1.47
-1.97
-2.26
-2.34
-2.30
-2.24
-2.23
-2.27
-2.26
-2.11
-1.75
-1.19
-0.46
0.36
1.18
1.89
2.41
2.67
2.65
2.37
1.98
1.62
1.45
1.53
1.84
2.25
2.59
2.78
2.75
2.55
2.22
1.81
1.37
0.96
0.63
0.45
0.43
0.55
0.73
0.89
0.98
0.95
0.80
0.53
0.14
-0.33
-0.84
-1.31
-1.69
-2.00
-2.28
-2.57
-2.89
-3.15
-3.25
-3.10
-2.65
-1.93
-1.05
-0.14
0.69
1.33
1.73
1.85
1.74
1.47
1.17
0.94
0.80
0.74
0.70
0.69
0.74
0.92
1.27
1.71
2.06
2.16
1.92
1.42
0.82
0.34
0.06
-0.04
-0.10
-0.23
-0.46
-0.69
-0.80
-0.73
-0.54
-0.36
-0.35
-0.55
-0.94
-1.41
-1.86
-2.21
-2.45
-2.57
-2.52
-2.28
-1.83
-1.24
-0.63
-0.15
0.15
0.27
0.31
0.40
0.59
0.86
1.13
1.29
1.28
1.12
0.92
0.81
0.92
1.25
1.72
2.15
2.38
2.31
1.95
1.42
0.89
0.46
0.16
-0.06
-0.27
-0.50
-0.72
-0.88
-0.96
-0.98
-1.03
-1.19
-1.47
-1.82
-2.09
-2.19
-2.09
-1.85
-1.63
-1.55
-1.69
-1.97
-2.23
-2.30
-2.07
-1.55
-0.83
-0.10
0.50
0.90
1.13
1.30
1.47
1.66
1.83
1.88
1.76
1.51
1.26
1.13
1.19
1.36
1.52
1.52
1.32
1.00
0.72
0.64
0.78
1.06
1.28
1.28
1.02
0.55
0.02
-0.44
-0.76
-0.97
-1.14
-1.29
-1.41
-1.45
-1.38
-1.28
-1.26
-1.45
-1.90
-2.53
-3.18
-3.62
-3.70
-3.34
-2.59
-1.63
-0.65
0.15
0.68
0.95
1.03
1.03
1.01
0.96
0.84
0.60
0.24
-0.11
-0.32
-0.23
0.17
0.83
1.55
2.14
2.44
2.39
2.03
1.49
0.92
0.47
0.20
0.15
0.27
0.46
0.64
0.73
0.65
0.38
-0.08
-0.66
-1.29
-1.81
-2.11
-2.16
-2.03
-1.88
-1.90
-2.15
-2.54
-2.84
-2.80
-2.30
-1.40
-0.34
0.62
1.24
1.49
1.47
1.34
1.26
1.26
1.31
1.30
1.18
0.95
0.72
0.62
0.76
1.09
1.48
1.72
1.66
1.30
0.79
0.32
0.05
-0.01
-0.00
-0.11
-0.43
-0.95
-1.52
-1.98
-2.22
-2.23
-2.13
-2.04
-2.07
-2.28
-2.63
-3.05
-3.44
-3.72
-3.80
-3.65
-3.24
-2.56
-1.64
-0.53
0.65
1.75
2.62
3.15
3.37
3.36
3.20
3.00
2.77
2.56
2.39
2.34
2.43
2.65
2.87
2.96
2.85
2.54
2.14
1.78
1.52
1.34
1.17
0.98
0.74
0.53
0.39
0.32
0.28
0.19
-0.01
-0.32
-0.69
-1.07
-1.44
-1.79
-2.15
-2.49
-2.78
-2.90
-2.77
-2.34
-1.66
-0.84
-0.02
0.68
1.22
1.58
1.78
1.82
1.72
1.55
1.38
1.31
1.36
1.51
1.70
1.84
1.92
1.94
1.94
1.90
1.78
1.56
1.26
0.95
0.70
0.54
0.42
0.23
-0.10
-0.59
-1.14
-1.62
-1.91
-2.01
-1.97
-1.89
-1.85
-1.86
-1.90
-1.93
-1.93
-1.90
-1.86
-1.78
-1.61
-1.30
-0.81
-0.16
0.55
1.24
1.81
2.20
2.36
2.28
1.98
1.52
1.03
0.66
0.49
0.54
0.70
0.84
0.86
0.74
0.56
0.43
0.40
0.48
0.59
0.66
0.65
0.57
0.46
0.35
0.21
0.05
-0.15
-0.35
-0.53
-0.68
-0.79
-0.90
-1.01
-1.11
-1.16
-1.10
-0.92
-0.59
-0.14
0.37
0.83
1.15
1.25
1.09
0.70
0.17
-0.36
-0.81
-1.11
-1.27
-1.32
-1.32
-1.32
-1.35
-1.43
-1.54
-1.65
-1.74
-1.80
-1.85
-1.92
-2.01
-2.17
-2.42
-2.79
-3.30
-3.92
-4.55
-5.05
-5.30
-5.25
-4.99
-4.69
-4.55
-4.67
-5.02
-5.47
-5.83
-5.93
-5.65
-4.95
-3.89
-2.60
-1.31
-0.31
0.19
0.11
-0.42
-1.12
-1.68
-1.90
-1.73
-1.33
-0.93
-0.70
-0.71
-0.90
-1.17
-1.40
-1.55
-1.55
-1.32
-0.72
0.39
2.06
4.19
6.52
8.70
10.38
11.37
11.63
11.27
10.45
9.34
8.07
6.77
5.57
4.62
4.04
3.88
4.10
4.58
5.12
5.56
5.80
5.78
5.56
5.23
4.87
4.58
4.38
4.27
4.23
4.17
4.04
3.77
3.33
2.73
2.02
1.27
0.52
-0.20
-0.91
-1.65
-2.49
-3.44
-4.46
-5.47
-6.37
-7.06
-7.50
-7.68
-7.66
-7.50
-7.24
-6.90
-6.48
-6.01
-5.57
-5.24
-5.13
-5.26
-5.58
-5.92
-6.09
-5.90
-5.27
-4.23
-2.95
-1.63
-0.44
0.48
1.10
1.44
1.54
1.41
1.06
0.54
-0.04
-0.55
-0.89
-1.07
-1.22
-1.55
-2.26
-3.40
-4.84
-6.31
-7.47
-8.08
-8.05
-7.46
-6.52
-5.54
-4.78
-4.42
-4.51
-4.96
-5.60
-6.22
-6.64
-6.71
-6.36
-5.53
-4.20
-2.36
-0.03
2.76
5.98
9.62
13.66
17.92
22.03
25.39
27.32
27.36
25.45
22.04
17.90
13.86
10.50
7.99
6.16
4.67
3.21
1.62
-0.10
-1.82
-3.37
-4.56
-5.23
-5.23
-4.52
-3.10
-1.03
1.59
4.59
7.71
10.64
13.07
14.81
15.87
16.44
16.78
17.10
17.45
17.73
17.76
17.41
16.71
15.83
15.01
14.44
14.15
14.06
13.96
13.65
12.99
11.96
10.58
8.94
7.07
5.01
2.85
0.72
-1.18
-2.72
-3.81
-4.54
-5.03
-5.49
-6.09
-6.99
-8.24
-9.82
-11.64
-13.54
-15.31
-16.80
-17.89
-18.55
-18.84
-18.85
-18.71
-18.54
-18.39
-18.26
-18.08
-17.75
-17.21
-16.46
-15.59
-14.63
-13.61
-12.49
-11.26
-9.96
-8.74
-7.73
-6.98
-6.43
-5.94
-5.36
-4.67
-3.95
-3.31
-2.82
-2.46
-2.14
-1.75
-1.24
-0.63
0.03
0.68
1.25
1.69
1.93
1.97
1.81
1.51
1.14
0.78
0.46
0.18
-0.04
-0.18
-0.21
-0.10
0.12
0.37
0.52
0.46
0.12
-0.48
-1.24
-2.01
-2.63
-2.98
-3.02
-2.76
-2.25
-1.57
-0.80
0.01
0.78
1.47
1.99
2.26
2.24
1.95
1.50
1.06
0.78
0.73
0.87
1.00
0.99
0.78
0.47
0.24
0.23
0.46
0.78
0.99
0.93
0.63
0.21
-0.19
-0.47
-0.68
-0.92
-1.23
-1.60
-1.94
-2.18
-2.30
-2.35
-2.36
-2.37
-2.33
-2.20
-1.95
-1.62
-1.26
-0.91
-0.60
-0.28
0.07
0.47
0.92
1.39
1.88
2.35
2.78
3.12
3.29
3.28
3.12
2.92
2.76
2.72
2.76
2.82
2.79
2.63
2.34
2.00
1.73
1.59
1.58
1.62
1.60
1.44
1.15
0.80
0.49
0.30
0.24
0.23
0.17
0.01
-0.27
-0.61
-0.93
-1.18
-1.35
-1.42
-1.36
-1.10
-0.57
0.21
1.12
1.96
2.54
2.80
2.77
2.59
2.39
2.28
2.25
2.26
2.26
2.25
2.24
2.28
2.35
2.40
2.35
2.15
1.78
1.28
0.75
0.28
-0.08
-0.32
-0.51
-0.73
-1.02
-1.35
-1.67
-1.88
-1.96
-1.95
-1.94
-1.98
-2.11
-2.32
-2.54
-2.73
-2.88
-2.97
-2.98
-2.89
-2.69
-2.41
-2.12
-1.90
-1.80
-1.83
-1.90
-1.90
-1.72
-1.31
-0.71
-0.00
0.69
1.29
1.78
2.19
2.56
2.91
3.22
3.46
3.63
3.72
3.75
3.71
3.59
3.36
2.98
2.46
1.83
1.17
0.57
0.12
-0.13
-0.20
-0.17
-0.18
-0.35
-0.75
-1.37
-2.09
-2.74
-3.17
-3.28
-3.07
-2.59
-1.97
-1.32
-0.76
-0.33
-0.09
-0.06
-0.23
-0.60
-1.07
-1.52
-1.83
-1.92
-1.80
-1.56
-1.33
-1.20
-1.16
-1.15
-1.07
-0.84
-0.44
0.12
0.76
1.41
1.99
2.43
2.69
2.78
2.76
2.70
2.64
2.59
2.50
2.36
2.18
2.00
1.89
1.86
1.87
1.86
1.79
1.69
1.56
1.45
1.33
1.15
0.89
0.54
0.16
-0.14
-0.33
-0.42
-0.47
-0.57
-0.75
-0.96
-1.13
-1.18
-1.09
-0.91
-0.77
-0.79
-1.02
-1.46
-2.00
-2.52
-2.90
-3.10
-3.17
-3.17
-3.16
-3.09
-2.83
-2.28
-1.41
-0.36
0.64
1.33
1.58
1.46
1.16
0.92
0.86
0.94
1.01
0.94
0.70
0.41
0.27
0.43
0.92
1.65
2.41
3.01
3.33
3.38
3.21
2.93
2.64
2.40
2.25
2.16
2.10
2.01
1.84
1.56
1.20
0.79
0.37
0.03
-0.22
-0.35
-0.38
-0.34
-0.26
-0.19
-0.17
-0.20
-0.30
-0.44
-0.57
-0.66
-0.70
-0.69
-0.68
-0.69
-0.77
-0.89
-1.06
-1.25
-1.45
-1.64
-1.79
-1.84
-1.70
-1.35
-0.87
-0.39
-0.07
0.01
-0.10
-0.24
-0.29
-0.19
0.03
0.25
0.40
0.46
0.47
0.48
0.49
0.46
0.35
0.16
-0.07
-0.24
-0.30
-0.24
-0.15
-0.12
-0.23
-0.48
-0.77
-0.99
-1.04
-0.91
-0.67
-0.43
-0.32
-0.37
-0.53
-0.74
-0.90
-0.99
-1.03
-1.07
-1.14
-1.24
-1.28
-1.17
-0.85
-0.33
0.26
0.76
1.07
1.12
0.97
0.74
0.55
0.46
0.48
0.60
0.77
0.99
1.21
1.35
1.33
1.10
0.70
0.24
-0.13
-0.31
-0.29
-0.14
0.01
0.08
0.05
-0.07
-0.22
-0.39
-0.58
-0.84
-1.16
-1.55
-1.94
-2.26
-2.42
-2.39
-2.18
-1.84
-1.49
-1.23
-1.09
-1.04
-0.99
-0.84
-0.56
-0.19
0.19
0.48
0.63
0.69
0.72
0.77
0.84
0.90
0.90
0.86
0.80
0.78
0.82
0.91
1.00
1.05
1.04
0.99
0.94
0.92
0.90
0.84
0.73
0.56
0.36
0.17
-0.00
-0.19
-0.44
-0.75
-1.09
-1.39
-1.55
-1.53
-1.34
-1.07
-0.83
-0.73
-0.80
-1.01
-1.24
-1.35
-1.25
-0.88
-0.33
0.29
0.83
1.21
1.43
1.53
1.60
1.67
1.72
1.72
1.63
1.47
1.32
1.25
1.31
1.48
1.66
1.78
1.77
1.66
1.48
1.29
1.09
0.85
0.56
0.24
-0.08
-0.32
-0.47
-0.53
-0.53
-0.52
-0.54
-0.62
-0.78
-1.00
-1.24
-1.42
-1.44
-1.24
-0.84
-0.33
0.18
0.54
0.69
0.61
0.38
0.14
0.04
0.20
0.59
1.08
1.48
1.60
1.39
0.94
0.49
0.25
0.32
0.65
1.07
1.43
1.59
1.54
1.32
1.02
0.67
0.32
0.00
-0.24
-0.37
-0.39
-0.34
-0.26
-0.22
-0.23
-0.30
-0.44
-0.63
-0.87
-1.14
-1.39
-1.56
-1.59
-1.48
-1.28
-1.07
-0.92
-0.85
-0.80
-0.71
-0.51
-0.22
0.10
0.35
0.49
0.54
0.56
0.60
0.67
0.76
0.84
0.88
0.90
0.94
0.99
1.07
1.15
1.21
1.22
1.16
1.00
0.76
0.47
0.17
-0.07
-0.21
-0.27
-0.30
-0.37
-0.50
-0.70
-0.88
-1.01
-1.06
-1.04
-1.01
-1.00
-1.05
-1.13
-1.23
-1.30
-1.32
-1.27
-1.17
-1.02
-0.83
-0.58
-0.26
0.15
0.61
1.04
1.31
1.33
1.06
0.61
0.14
-0.20
-0.32
-0.27
-0.18
-0.15
-0.21
-0.30
-0.31
-0.17
0.12
0.47
0.78
0.94
0.94
0.75
0.40
-0.05
-0.55
-1.05
-1.50
-1.88
-2.21
-2.47
-2.68
-2.82
-2.90
-2.95
-3.04
-3.22
-3.50
-3.79
-3.99
-4.00
-3.81
-3.49
-3.18
-2.94
-2.71
-2.35
-1.72
-0.77
0.40
1.55
2.48
3.06
3.29
3.32
3.29
3.29
3.36
3.46
3.57
3.69
3.79
3.88
3.93
3.89
3.72
3.39
2.88
2.22
1.45
0.69
0.04
-0.41
-0.63
-0.68
-0.64
-0.58
-0.54
-0.52
-0.51
-0.51
-0.55
-0.61
-0.67
-0.68
-0.61
-0.47
-0.28
-0.08
0.13
0.35
0.58
0.80
0.92
0.86
0.61
0.22
-0.20
-0.53
-0.67
-0.57
-0.25
0.20
0.65
0.92
0.92
0.63
0.17
-0.28
-0.54
-0.55
-0.39
-0.21
-0.17
-0.32
-0.65
-1.05
-1.41
-1.63
-1.69
-1.60
-1.42
-1.22
-1.05
-0.99
-1.07
-1.26
-1.47
-1.61
-1.57
-1.33
-0.95
-0.56
-0.28
-0.18
-0.21
-0.28
-0.30
-0.20
-0.03
0.12
0.18
0.14
0.06
0.04
0.15
0.36
0.61
0.81
0.92
0.96
0.95
0.94
0.90
0.79
0.59
0.30
0.00
-0.24
-0.38
-0.43
-0.44
-0.45
-0.51
-0.68
-0.96
-1.36
-1.82
-2.21
-2.37
-2.23
-1.84
-1.38
-1.05
-0.97
-1.08
-1.22
-1.21
-1.00
-0.66
-0.35
-0.14
0.03
0.29
0.75
1.36
1.93
2.25
2.17
1.75
1.20
0.76
0.59
0.65
0.81
0.90
0.84
0.67
0.49
0.38
0.37
0.42
0.46
0.49
0.53
0.61
0.71
0.79
0.80
0.72
0.60
0.50
0.42
0.30
0.02
-0.50
-1.22
-1.98
-2.52
-2.65
-2.29
-1.56
-0.65
0.19
0.82
1.21
1.39
1.43
1.40
1.30
1.09
0.77
0.38
0.01
-0.21
-0.19
0.06
0.47
0.89
1.22
1.39
1.41
1.33
1.22
1.12
1.02
0.91
0.76
0.57
0.38
0.22
0.09
-0.04
-0.25
-0.54
-0.90
-1.25
-1.46
-1.49
-1.32
-1.06
-0.79
-0.58
-0.42
-0.28
-0.09
0.17
0.47
0.78
1.06
1.26
1.35
1.30
1.11
0.82
0.52
0.31
0.22
0.25
0.35
0.44
0.49
0.49
0.48
0.46
0.44
0.37
0.21
-0.03
-0.34
-0.64
-0.89
-1.04
-1.09
-1.09
-1.08
-1.13
-1.24
-1.38
-1.45
-1.39
-1.17
-0.88
-0.62
-0.52
-0.59
-0.71
-0.74
-0.54
-0.10
0.44
0.92
1.21
1.27
1.15
0.97
0.84
0.83
0.94
1.13
1.30
1.35
1.25
1.00
0.70
0.45
0.31
0.26
0.22
0.12
-0.07
-0.33
-0.60
-0.83
-0.99
-1.04
-0.95
-0.72
-0.41
-0.14
-0.07
-0.26
-0.68
-1.15
-1.48
-1.56
-1.38
-1.01
-0.58
-0.18
0.12
0.29
0.31
0.22
0.09
0.02
0.08
0.24
0.42
0.49
0.40
0.16
-0.15
-0.43
-0.66
-0.86
-1.09
-1.36
-1.65
-1.86
-1.97
-1.98
-2.00
-2.14
-2.44
-2.86
-3.30
-3.63
-3.79
-3.82
-3.81
-3.85
-3.95
-4.04
-3.97
-3.58
-2.80
-1.65
-0.25
1.26
2.71
3.95
4.86
5.34
5.36
4.97
4.33
3.65
3.14
2.93
3.02
3.30
3.62
3.81
3.81
3.63
3.35
3.04
2.73
2.41
2.05
1.64
1.19
0.78
0.41
0.11
-0.20
-0.57
-1.01
-1.47
-1.84
-2.01
-1.93
-1.60
-1.09
-0.50
0.11
0.71
1.24
1.70
2.07
2.36
2.58
2.72
2.77
2.68
2.43
2.03
1.56
1.13
0.87
0.80
0.91
1.11
1.32
1.49
1.59
1.61
1.52
1.36
1.14
0.91
0.71
0.56
0.46
0.36
0.21
-0.06
-0.44
-0.95
-1.55
-2.19
-2.80
-3.29
-3.54
-3.47
-3.05
-2.35
-1.53
-0.77
-0.23
0.06
0.18
0.23
0.32
0.45
0.57
0.60
0.55
0.46
0.41
0.46
0.54
0.57
0.46
0.20
-0.11
-0.31
-0.27
0.04
0.52
0.99
1.26
1.22
0.85
0.26
-0.40
-0.98
-1.37
-1.56
-1.57
-1.46
-1.32
-1.17
-1.03
-0.89
-0.71
-0.49
-0.20
0.13
0.50
0.86
1.16
1.34
1.35
1.24
1.05
0.88
0.81
0.82
0.88
0.93
0.94
0.93
0.93
0.96
1.00
0.97
0.86
0.67
0.45
0.25
0.06
-0.17
-0.46
-0.82
-1.17
-1.45
-1.60
-1.64
-1.64
-1.66
-1.70
-1.69
-1.57
-1.31
-0.93
-0.52
-0.10
0.29
0.67
1.03
1.34
1.54
1.58
1.45
1.21
0.93
0.69
0.55
0.52
0.58
0.67
0.72
0.67
0.50
0.28
0.08
-0.03
-0.02
0.05
0.12
0.13
0.06
-0.04
-0.14
-0.22
-0.30
-0.36
-0.42
-0.48
-0.56
-0.71
-0.94
-1.23
-1.49
-1.61
-1.50
-1.19
-0.80
-0.49
-0.35
-0.40
-0.58
-0.74
-0.80
-0.69
-0.40
0.01
0.47
0.89
1.19
1.33
1.32
1.16
0.89
0.53
0.15
-0.18
-0.38
-0.41
-0.30
-0.11
0.02
0.05
-0.00
-0.07
-0.09
-0.04
0.02
0.00
-0.12
-0.31
-0.49
-0.61
-0.68
-0.77
-0.94
-1.18
-1.44
-1.65
-1.77
-1.82
-1.88
-2.02
-2.24
-2.49
-2.65
-2.65
-2.43
-2.01
-1.46
-0.91
-0.48
-0.26
-0.25
-0.36
-0.45
-0.40
-0.14
0.27
0.73
1.12
1.35
1.38
1.22
0.93
0.57
0.25
0.03
-0.06
-0.04
0.02
0.05
0.02
-0.05
-0.15
-0.28
-0.46
-0.72
-1.01
-1.22
-1.26
-1.08
-0.74
-0.40
-0.24
-0.34
-0.66
-1.06
-1.37
-1.52
-1.52
-1.50
-1.54
-1.63
-1.69
-1.59
-1.27
-0.77
-0.26
0.13
0.29
0.27
0.18
0.14
0.18
0.24
0.21
0.06
-0.17
-0.35
-0.36
-0.16
0.15
0.44
0.61
0.64
0.60
0.59
0.68
0.86
1.07
1.22
1.25
1.11
0.84
0.50
0.15
-0.12
-0.29
-0.35
-0.33
-0.26
-0.18
-0.12
-0.09
-0.13
-0.24
-0.43
-0.67
-0.92
-1.09
-1.14
-1.05
-0.81
-0.45
-0.03
0.36
0.62
0.70
0.58
0.32
0.03
-0.20
-0.30
-0.24
-0.07
0.16
0.39
0.58
0.69
0.71
0.66
0.54
0.36
0.13
-0.10
-0.28
-0.35
-0.25
0.01
0.33
0.60
0.68
0.51
0.15
-0.30
-0.70
-0.98
-1.14
-1.18
-1.12
-0.94
-0.65
-0.32
-0.10
-0.12
-0.44
-0.99
-1.59
-2.02
-2.12
-1.89
-1.41
-0.84
-0.32
0.08
0.34
0.49
0.59
0.66
0.73
0.78
0.81
0.82
0.81
0.81
0.86
0.96
1.08
1.15
1.07
0.83
0.49
0.20
0.10
0.25
0.60
1.01
1.32
1.44
1.37
1.21
1.05
0.95
0.87
0.71
0.36
-0.19
-0.86
-1.48
-1.86
-1.91
-1.67
-1.29
-0.95
-0.80
-0.87
-1.09
-1.33
-1.49
-1.51
-1.43
-1.28
-1.07
-0.80
-0.40
0.12
0.74
1.32
1.76
1.94
1.87
1.63
1.37
1.20
1.16
1.22
1.29
1.30
1.22
1.09
0.95
0.81
0.67
0.53
0.38
0.27
0.22
0.26
0.37
0.51
0.60
0.59
0.44
0.15
-0.20
-0.54
-0.76
-0.80
-0.66
-0.40
-0.10
0.11
0.17
0.05
-0.21
-0.56
-0.91
-1.21
-1.41
-1.49
-1.42
-1.20
-0.81
-0.31
0.23
0.71
1.02
1.14
1.10
0.96
0.85
0.82
0.90
1.02
1.13
1.16
1.12
1.08
1.11
1.23
1.39
1.46
1.36
1.06
0.65
0.31
0.17
0.25
0.42
0.51
0.39
0.08
-0.26
-0.44
-0.37
-0.12
0.14
0.21
0.03
-0.32
-0.67
-0.87
-0.89
-0.79
-0.70
-0.69
-0.78
-0.86
-0.85
-0.70
-0.46
-0.21
-0.03
0.03
0.00
-0.03
0.03
0.21
0.49
0.79
1.04
1.15
1.13
1.05
1.01
1.05
1.16
1.27
1.28
1.14
0.87
0.56
0.34
