1530060623.00
64.000000
-0.00
-0.00
-0.00
-0.00
-0.00
-0.00
-0.00
-0.00
-0.00
-0.00
0.00
0.01
0.01
-0.00
-0.03
-0.05
-0.05
0.00
0.13
0.36
0.66
1.01
1.37
1.72
2.06
2.40
2.79
3.24
3.80
4.42
5.06
5.66
6.20
6.68
7.15
7.68
8.31
9.14
10.09
11.04
11.88
12.56
13.14
13.76
14.66
15.97
17.91
20.31
22.90
25.38
27.59
29.61
31.73
34.37
37.81
42.42
47.87
53.64
59.20
64.21
68.75
73.28
78.46
84.78
92.73
101.82
111.28
120.26
128.23
135.22
141.81
149.26
156.18
164.81
175.75
189.18
204.02
217.44
225.12
222.31
205.45
173.48
128.67
74.93
16.79
-42.22
-100.32
-157.22
-213.23
-268.46
-322.45
-373.96
-421.96
-465.34
-502.96
-533.49
-555.45
-567.39
-568.21
-557.47
-535.33
-502.84
-461.52
-413.24
-359.97
-303.78
-246.66
-190.47
-136.99
-87.79
-44.42
-8.07
21.05
44.20
64.24
84.93
109.54
139.35
172.99
206.74
236.18
257.84
270.39
274.56
272.24
265.32
255.07
242.14
227.07
210.74
194.32
178.89
165.00
152.49
140.70
128.80
116.35
103.40
90.55
78.63
68.31
59.81
52.83
46.73
40.84
34.86
28.71
22.66
17.14
12.51
8.87
6.09
3.84
1.81
-0.21
-2.29
-4.28
-5.97
-7.17
-7.82
-7.99
-7.91
-7.82
-7.91
-8.21
-8.60
-8.90
-8.97
-8.78
-8.44
-8.07
-7.77
-7.51
-7.24
-6.92
-6.57
-6.25
-5.98
-5.70
-5.33
-4.80
-4.17
-3.61
-3.30
-3.31
-3.48
-3.52
-3.18
-2.38
-1.28
-0.17
0.69
1.19
1.37
1.34
1.19
0.91
0.47
-0.15
-0.90
-1.65
-2.23
-2.54
-2.56
-2.30
-1.87
-1.38
-0.90
-0.55
-0.34
-0.30
-0.38
-0.51
-0.59
-0.58
-0.46
-0.25
0.00
0.28
0.56
0.87
1.20
1.55
1.90
2.23
2.56
2.93
3.41
4.00
4.66
5.26
5.71
5.89
5.76
5.33
4.66
3.80
2.81
1.66
0.32
-1.20
-2.83
-4.45
-5.90
-7.05
-7.83
-8.26
-8.40
-8.35
-8.22
-8.08
-7.98
-7.89
-7.75
-7.41
-6.78
-5.82
-4.61
-3.33
-2.14
-1.16
-0.41
0.11
0.42
0.45
0.16
-0.45
-1.22
-1.91
-2.30
-2.33
-2.09
-1.77
-1.59
-1.61
-1.74
-1.81
-1.63
-1.15
-0.45
0.30
0.97
1.47
1.79
1.93
1.90
1.71
1.35
0.89
0.43
0.04
-0.21
-0.36
-0.46
-0.60
-0.78
-0.99
-1.19
-1.34
-1.46
-1.60
-1.78
-2.03
-2.31
-2.60
-2.84
-3.01
-3.12
-3.22
-3.39
-3.70
-4.20
-4.87
-5.68
-6.57
-7.43
-8.18
-8.68
-8.78
-8.33
-7.25
-5.58
-3.48
-1.23
0.86
2.56
3.80
4.63
5.21
5.67
6.04
6.31
6.40
6.33
6.14
5.97
5.89
5.93
5.99
6.00
5.88
5.67
5.44
5.26
5.15
5.02
4.77
4.34
3.74
3.07
2.42
1.87
1.40
0.93
0.43
-0.12
-0.66
-1.14
-1.53
-1.90
-2.34
-2.92
-3.60
-4.30
-4.89
-5.32
-5.66
-6.07
-6.70
-7.64
-8.84
-10.13
-11.25
-11.95
-11.99
-11.25
-9.70
-7.49
-4.88
-2.18
0.31
2.41
4.08
5.42
6.54
7.50
8.27
8.76
8.88
8.66
8.21
7.67
7.14
6.64
6.10
5.45
4.68
3.83
2.99
2.23
1.55
0.89
0.18
-0.62
-1.46
-2.27
-3.02
-3.70
-4.36
-5.07
-5.82
-6.57
-7.21
-7.65
-7.87
-7.92
-7.92
-7.98
-8.17
-8.46
-8.78
-8.97
-8.91
-8.46
-7.56
-6.23
-4.55
-2.65
-0.72
1.14
2.83
4.36
5.72
6.90
7.84
8.44
8.67
8.52
8.11
7.55
6.98
6.49
6.07
5.74
5.49
5.30
5.15
4.97
4.66
4.17
3.51
2.77
2.06
1.46
0.99
0.60
0.22
-0.20
-0.67
-1.17
-1.71
-2.28
-2.87
-3.44
-3.97
-4.41
-4.73
-4.88
-4.85
-4.58
-4.01
-3.10
-1.86
-0.32
1.40
3.20
4.98
6.64
8.06
9.15
9.83
10.10
10.00
9.63
9.11
8.60
8.16
7.83
7.56
7.24
6.74
5.95
4.85
3.49
2.02
0.61
-0.62
-1.57
-2.23
-2.65
-2.88
-3.00
-3.05
-3.06
-3.05
-3.00
-2.89
-2.73
-2.50
-2.27
-2.11
-2.09
-2.27
-2.64
-3.13
-3.64
-4.06
-4.35
-4.49
-4.50
-4.39
-4.12
-3.63
-2.84
-1.73
-0.34
1.23
2.85
4.39
5.77
6.92
7.82
8.44
8.77
8.81
8.58
8.13
7.50
6.76
5.99
5.27
4.69
4.28
4.00
3.74
3.37
2.78
1.95
0.99
0.02
-0.78
-1.36
-1.73
-1.96
-2.10
-2.16
-2.10
-1.94
-1.72
-1.54
-1.48
-1.58
-1.72
-1.79
-1.66
-1.34
-0.98
-0.77
-0.86
-1.27
-1.84
-2.35
-2.66
-2.74
-2.68
-2.62
-2.60
-2.61
-2.61
-2.59
-2.59
-2.69
-2.92
-3.21
-3.42
-3.49
-3.45
-3.43
-3.63
-4.14
-4.89
-5.68
-6.29
-6.55
-6.45
-6.05
-5.47
-4.77
-3.97
-3.04
-1.96
-0.73
0.55
1.77
2.77
3.46
3.84
3.97
3.97
3.93
3.87
3.79
3.61
3.35
3.07
2.87
2.85
3.00
3.24
3.43
3.44
3.24
2.91
2.52
2.17
1.89
1.62
1.34
1.01
0.66
0.36
0.16
0.07
0.07
0.14
0.25
0.41
0.65
0.96
1.31
1.57
1.65
1.48
1.10
0.60
0.10
-0.28
-0.50
-0.57
-0.56
-0.54
-0.60
-0.76
-1.04
-1.43
-1.90
-2.43
-3.01
-3.63
-4.27
-4.90
-5.53
-6.17
-6.84
-7.53
-8.18
-8.65
-8.75
-8.36
-7.45
-6.11
-4.53
-2.91
-1.43
-0.22
0.70
1.38
1.91
2.43
2.99
3.58
4.09
4.39
4.40
4.16
3.84
3.65
3.73
4.04
4.39
4.58
4.47
4.08
3.58
3.13
2.86
2.76
2.72
2.63
2.43
2.12
1.75
1.38
1.01
0.65
0.27
-0.14
-0.59
-1.07
-1.58
-2.08
-2.51
-2.82
-2.97
-2.99
-2.94
-2.93
-3.01
-3.14
-3.23
-3.18
-2.96
-2.62
-2.26
-2.02
-1.95
-2.03
-2.21
-2.42
-2.63
-2.89
-3.20
-3.58
-3.98
-4.33
-4.60
-4.80
-4.96
-5.10
-5.17
-5.04
-4.57
-3.68
-2.41
-0.92
0.54
1.72
2.46
2.76
2.71
2.48
2.21
1.98
1.83
1.79
1.87
2.10
2.48
2.97
3.50
3.95
4.26
4.44
4.51
4.54
4.56
4.55
4.51
4.38
4.14
3.77
3.28
2.71
2.15
1.67
1.32
1.09
0.96
0.87
0.80
0.75
0.74
0.73
0.69
0.53
0.21
-0.27
-0.86
-1.44
-1.94
-2.31
-2.52
-2.59
-2.55
-2.44
-2.33
-2.29
-2.41
-2.69
-3.12
-3.64
-4.14
-4.56
-4.86
-5.06
-5.21
-5.34
-5.46
-5.59
-5.70
-5.76
-5.72
-5.51
-5.05
-4.30
-3.28
-2.11
-0.90
0.21
1.15
1.90
2.48
2.93
3.23
3.36
3.28
3.01
2.65
2.33
2.19
2.30
2.64
3.07
3.44
3.64
3.61
3.36
2.95
2.44
1.90
1.34
0.80
0.30
-0.16
-0.58
-0.99
-1.38
-1.74
-2.07
-2.35
-2.62
-2.88
-3.18
-3.52
-3.90
-4.30
-4.68
-4.99
-5.16
-5.15
-4.91
-4.44
-3.75
-2.92
-2.01
-1.10
-0.25
0.47
1.05
1.47
1.77
2.02
2.28
2.56
2.78
2.79
2.42
1.61
0.42
-0.89
-1.99
-2.60
-2.60
-2.07
-1.22
-0.28
0.63
1.49
2.35
3.23
4.08
4.75
5.10
5.10
4.83
4.47
4.18
4.05
4.05
4.10
4.13
4.11
4.08
4.07
4.08
4.02
3.84
3.51
3.07
2.62
2.21
1.89
1.65
1.46
1.33
1.27
1.30
1.40
1.50
1.51
1.39
1.14
0.82
0.53
0.34
0.27
0.29
0.35
0.37
0.31
0.14
-0.13
-0.47
-0.84
-1.19
-1.47
-1.66
-1.74
-1.73
-1.66
-1.60
-1.61
-1.77
-2.11
-2.64
-3.32
-4.07
-4.77
-5.31
-5.62
-5.64
-5.37
-4.85
-4.17
-3.44
-2.74
-2.09
-1.46
-0.76
0.06
0.94
1.77
2.38
2.67
2.65
2.47
2.29
2.23
2.34
2.56
2.82
3.06
3.28
3.46
3.63
3.76
3.84
3.82
3.72
3.53
3.26
2.93
2.55
2.16
1.82
1.56
1.42
1.38
1.39
1.41
1.38
1.26
1.06
0.78
0.49
0.26
0.16
0.18
0.24
0.19
-0.08
-0.61
-1.30
-1.96
-2.40
-2.55
-2.45
-2.26
-2.16
-2.26
-2.61
-3.17
-3.88
-4.68
-5.46
-6.13
-6.58
-6.75
-6.59
-6.10
-5.29
-4.22
-2.94
-1.54
-0.14
1.17
2.26
3.09
3.64
3.91
3.94
3.76
3.42
3.04
2.75
2.72
3.00
3.57
4.22
4.74
4.95
4.81
4.46
4.10
3.93
3.98
4.16
4.29
4.24
3.97
3.56
3.14
2.76
2.45
2.13
1.72
1.18
0.55
-0.10
-0.65
-1.02
-1.16
-1.10
-0.91
-0.71
-0.63
-0.74
-1.05
-1.46
-1.86
-2.14
-2.25
-2.23
-2.17
-2.15
-2.25
-2.52
-2.97
-3.60
-4.35
-5.15
-5.88
-6.41
-6.63
-6.47
-5.90
-4.96
-3.74
-2.36
-0.98
0.27
1.29
2.01
2.44
2.63
2.67
2.63
2.61
2.63
2.67
2.66
2.53
2.29
2.00
1.80
1.78
1.94
2.16
2.30
2.25
2.03
1.73
1.47
1.29
1.19
1.11
1.04
1.00
1.07
1.26
1.50
1.67
1.58
1.15
0.38
-0.61
-1.64
-2.51
-3.06
-3.23
-3.04
-2.65
-2.26
-2.09
-2.27
-2.82
-3.64
-4.53
-5.35
-6.00
-6.47
-6.79
-6.98
-7.03
-6.86
-6.39
-5.58
-4.50
-3.28
-2.12
-1.17
-0.48
0.01
0.42
0.87
1.39
1.92
2.40
2.76
3.02
3.25
3.49
3.76
4.04
4.30
4.53
4.72
4.85
4.84
4.61
4.12
3.46
2.82
2.40
2.32
2.52
2.79
2.93
2.79
2.39
1.85
1.33
0.90
0.58
0.31
0.07
-0.12
-0.19
-0.13
0.02
0.12
0.03
-0.31
-0.89
-1.57
-2.20
-2.68
-3.01
-3.23
-3.46
-3.76
-4.15
-4.63
-5.21
-5.85
-6.55
-7.23
-7.78
-8.05
-7.90
-7.24
-6.11
-4.65
-3.09
-1.65
-0.50
0.30
0.76
0.95
0.98
0.93
0.88
0.91
1.06
1.33
1.66
1.94
2.08
2.03
1.79
1.47
1.14
0.87
0.68
0.52
0.31
-0.01
-0.48
-1.05
-1.66
-2.23
-2.66
-2.91
-2.94
-2.73
-2.30
-1.65
-0.82
0.16
1.23
2.32
3.37
4.32
5.13
5.73
6.08
6.11
5.82
5.25
4.52
3.73
2.99
2.34
1.80
1.34
0.93
0.51
0.03
-0.58
-1.37
-2.34
-3.38
-4.31
-4.94
-5.13
-4.88
-4.30
-3.56
-2.76
-1.96
-1.09
-0.12
0.92
1.90
2.67
3.11
3.24
3.21
3.22
3.39
3.69
4.00
4.15
4.10
3.92
3.76
3.76
3.94
4.21
4.42
4.45
4.30
4.02
3.72
3.47
3.25
3.02
2.72
2.36
1.96
1.59
1.34
1.25
1.32
1.51
1.73
1.88
1.91
1.81
1.63
1.45
1.32
1.23
1.10
0.85
0.40
-0.22
-0.90
-1.52
-1.95
-2.21
-2.40
-2.64
-3.01
-3.51
-4.02
-4.41
-4.54
-4.30
-3.64
-2.63
-1.50
-0.64
-0.53
-1.58
-3.94
-7.37
-11.29
-15.02
-17.99
-19.92
-20.77
-20.67
-19.72
-18.01
-15.66
-12.87
-9.88
-6.89
-3.88
-0.66
3.16
7.90
13.66
20.28
27.31
34.17
40.23
44.90
47.74
48.50
47.23
44.28
40.29
35.95
31.85
28.23
25.02
21.93
18.64
15.00
11.11
7.21
3.58
0.36
-2.45
-5.02
-7.50
-9.94
-12.29
-14.37
-16.06
-17.28
-18.13
-18.81
-19.50
-20.31
-21.18
-21.94
-22.37
-22.33
-21.81
-20.89
-19.73
-18.48
-17.24
-16.07
-14.97
-13.94
-12.96
-12.04
-11.21
-10.51
-9.95
-9.55
-9.25
-8.98
-8.61
-8.03
-7.18
-6.07
-4.80
-3.53
-2.43
-1.58
-0.97
-0.47
0.07
0.75
1.57
2.44
3.21
3.77
4.08
4.19
4.18
4.13
4.06
3.92
3.65
3.21
2.63
1.98
1.38
0.91
0.57
0.27
-0.07
-0.52
-1.08
-1.66
-2.19
-2.63
-3.02
-3.42
-3.88
-4.40
-4.94
-5.45
-5.93
-6.38
-6.86
-7.36
-7.82
-8.13
-8.14
-7.74
-6.89
-5.68
-4.27
-2.86
-1.58
-0.54
0.30
0.96
1.51
1.93
2.25
2.45
2.62
2.82
3.15
3.60
4.09
4.50
4.69
4.58
4.21
3.67
3.14
2.75
2.60
2.70
3.02
3.47
3.97
4.40
4.70
4.83
4.75
4.48
4.06
3.55
3.06
2.67
2.45
2.43
2.56
2.76
2.91
2.93
2.79
2.52
2.22
1.98
1.83
1.72
1.57
1.31
0.91
0.40
-0.16
-0.79
-1.51
-2.41
-3.48
-4.64
-5.65
-6.27
-6.31
-5.74
-4.71
-3.45
-2.16
-0.99
0.03
0.96
1.84
2.69
3.50
4.24
4.94
5.62
6.30
6.97
7.57
8.09
8.52
8.91
9.33
9.84
10.50
11.32
12.38
13.71
15.33
17.18
19.10
20.81
21.99
22.40
21.85
20.27
17.68
14.14
9.72
4.52
-1.36
-7.72
-14.29
-20.69
-26.49
-31.32
-34.92
-37.26
-38.49
-38.88
-38.78
-38.42
-37.85
-36.89
-35.20
-32.48
-28.53
-23.41
-17.32
-10.46
-2.94
5.22
13.91
22.70
30.85
37.51
42.13
44.74
45.95
46.56
47.18
47.91
48.51
48.67
48.38
47.97
47.87
48.26
48.90
49.15
48.40
46.43
43.65
40.95
39.41
39.74
41.96
45.30
48.44
49.96
48.94
45.36
40.26
35.37
32.49
32.70
35.98
41.20
46.56
50.18
50.62
47.14
39.65
28.65
15.06
0.00
-15.43
-30.47
-44.84
-58.83
-72.98
-87.72
-103.07
-118.59
-133.46
-146.79
-157.69
-165.29
-168.67
-167.08
-160.17
-148.35
-132.93
-115.81
-98.95
-83.83
-71.03
-60.32
-50.96
-42.14
-33.36
-24.58
-16.13
-8.54
-2.25
2.51
5.81
7.88
9.03
9.48
9.34
8.66
7.50
5.92
4.07
2.00
-0.27
-2.72
-5.13
-6.91
-7.16
-4.89
0.54
9.05
19.82
31.49
42.68
52.38
60.12
65.78
69.32
70.64
69.60
66.29
61.18
55.08
48.77
42.72
36.88
30.87
24.34
17.31
10.20
3.66
-1.82
-6.10
-9.42
-12.14
-14.47
-16.32
-17.35
-17.22
-15.84
-13.46
-10.64
-8.00
-5.99
-4.73
-4.08
-3.73
-3.41
-3.01
-2.54
-2.13
-1.88
-1.80
-1.84
-1.94
-2.07
-2.24
-2.55
-3.08
-3.86
-4.84
-5.89
-6.84
-7.53
-7.89
-7.95
-7.78
-7.44
-6.98
-6.36
-5.55
-4.57
-3.47
-2.37
-1.42
-0.75
-0.43
-0.56
-1.15
-2.20
-3.62
-5.16
-6.43
-6.99
-6.47
-4.76
-2.15
0.82
3.49
5.42
6.49
7.01
7.43
8.15
9.33
10.84
12.37
13.66
14.64
15.48
16.53
18.21
20.88
24.77
29.91
36.03
42.47
48.15
51.79
52.23
49.05
42.84
35.19
28.17
23.55
22.13
23.57
26.73
30.25
33.19
35.17
36.23
36.48
35.91
34.22
30.92
25.48
17.44
6.60
-6.81
-21.93
-37.27
-51.01
-61.44
-67.49
-68.88
-66.01
-59.50
-49.93
-37.83
-23.97
-9.63
3.40
13.30
18.85
19.94
17.73
14.28
11.86
12.17
15.75
21.84
28.53
33.38
34.15
29.56
19.77
6.36
-8.36
-22.18
-33.63
-42.23
-48.17
-51.98
-54.36
-56.02
-57.46
-58.90
-59.85
-59.11
-55.39
-48.10
-38.33
-28.93
-23.24
-23.42
-29.42
-38.77
-47.80
-53.57
-54.76
-51.89
-46.72
-40.74
-35.02
-30.59
-28.27
-26.89
-24.64
-18.17
-4.64
15.53
39.15
61.90
80.64
95.15
107.72
120.47
133.08
143.96
146.85
137.07
114.15
82.14
48.19
19.76
1.38
-6.18
-5.68
-1.81
1.77
3.81
4.33
4.26
4.75
6.36
8.89
11.01
10.37
4.66
-7.73
-26.70
-49.34
-69.85
-80.97
-76.50
-54.16
-17.26
26.15
65.72
92.27
100.78
91.43
68.45
37.80
4.85
-26.52
-53.48
-73.77
-85.39
-86.85
-77.94
-60.26
-37.08
-12.91
8.19
23.90
33.89
39.38
42.20
44.07
45.89
47.78
48.65
47.78
45.49
42.96
41.24
40.45
39.69
37.12
31.05
19.53
2.77
-16.68
-34.98
-49.19
-58.61
-64.77
-70.90
-80.17
-96.10
-119.60
-148.33
-177.56
-202.09
-217.77
-222.16
-215.28
-189.67
-145.93
-93.03
-43.53
-5.87
18.54
31.52
38.13
41.52
43.41
43.33
41.41
39.20
38.47
40.06
43.32
46.87
48.98
48.76
45.09
38.26
30.02
22.67
17.90
16.08
16.68
18.51
20.64
21.87
21.80
20.94
20.19
20.22
21.07
22.46
23.79
24.62
24.39
22.84
20.18
16.85
13.30
9.73
6.22
2.73
-0.69
-3.96
-6.82
-8.80
-9.44
-8.46
-5.90
-2.10
2.40
6.99
11.18
14.63
17.06
18.29
18.22
16.85
14.40
11.29
8.08
5.32
3.36
2.29
1.94
1.98
2.13
2.21
2.13
1.88
1.47
0.96
0.41
-0.05
-0.30
-0.26
0.10
0.78
1.69
2.76
3.87
4.92
5.82
6.54
7.08
7.46
7.68
7.75
7.60
7.21
6.57
5.74
4.81
3.84
2.90
2.01
1.24
0.62
0.23
0.11
0.21
0.45
0.72
0.92
0.99
0.91
0.63
0.11
-0.65
-1.58
-2.47
-3.05
-3.06
-2.44
-1.28
0.13
1.49
2.59
3.36
3.86
4.21
4.54
4.87
5.20
5.52
5.87
6.28
6.77
7.28
7.72
7.98
7.99
7.70
7.17
6.51
5.89
5.42
5.15
5.06
5.07
5.09
5.08
5.07
5.24
5.74
6.63
7.78
8.95
9.89
10.47
10.67
10.58
10.61
11.08
12.06
13.26
14.27
14.75
14.58
13.81
12.73
12.21
13.00
15.26
18.44
21.61
23.98
25.14
25.13
24.43
24.68
27.23
32.54
39.83
47.63
54.58
59.99
63.76
66.52
70.27
76.67
86.27
98.27
111.26
124.06
135.85
145.74
144.67
126.34
90.55
44.77
-0.42
-37.01
-61.86
-75.24
-81.38
-83.60
-82.84
-79.23
-73.23
-66.20
-59.79
-55.38
-53.52
-54.02
-55.88
-57.04
-55.75
-51.29
-44.35
-36.60
-30.01
-26.14
-25.74
-28.33
-32.03
-34.71
-35.14
-33.59
-31.70
-31.55
-34.59
-41.13
-50.11
-59.54
-67.47
-72.68
-74.84
-74.18
-71.14
-66.10
-59.57
-52.23
-44.86
-38.21
-32.76
-28.46
-24.78
-21.00
-16.46
-10.85
-4.18
3.29
11.23
19.23
26.87
33.64
38.97
42.36
43.53
42.49
39.50
34.90
29.03
22.25
15.00
7.91
1.78
-2.64
-4.86
-4.88
-3.21
-0.66
1.93
3.96
5.20
5.77
5.96
6.09
6.48
7.49
9.58
13.24
18.89
26.64
36.07
46.10
55.16
61.41
63.17
59.39
49.97
35.88
18.91
1.27
-15.00
-28.47
-38.38
-44.50
-46.90
-45.73
-41.32
-34.31
-25.73
-16.79
-8.42
-0.88
6.36
14.21
23.32
33.62
44.09
53.15
59.19
61.10
58.39
51.14
39.69
24.57
6.57
-13.01
-32.12
-48.11
-58.20
-60.32
-53.86
-40.11
-22.00
-3.35
12.27
22.52
26.87
26.46
23.62
21.15
21.57
26.55
36.49
50.25
65.28
78.15
85.44
84.70
75.06
57.33
33.61
6.62
-20.92
-46.76
-69.30
-87.71
-101.80
-111.82
-118.20
-121.14
-120.51
-115.97
-107.36
-95.18
-80.72
-65.87
-52.51
-41.79
-33.75
-27.45
-21.59
-15.06
-7.47
0.90
9.27
16.63
22.19
25.54
26.61
25.51
22.44
17.59
11.23
3.81
-4.04
-11.40
-17.13
-20.32
-20.74
-19.04
-16.62
-15.02
-15.25
-17.72
-21.48
-24.53
-24.65
-20.42
-11.38
1.93
18.64
37.78
57.11
74.13
86.25
90.98
86.54
72.99
52.36
28.63
6.40
-12.46
-27.46
-39.21
-48.97
-58.46
-69.08
-82.40
-99.20
-119.35
-143.64
-170.58
-196.13
-215.02
-223.11
-218.54
-203.23
-181.15
-144.86
-95.55
-41.55
6.79
43.66
66.13
79.43
87.16
91.39
93.47
92.85
89.51
84.63
79.67
75.28
71.50
67.28
62.07
56.03
48.23
38.64
28.30
18.75
11.13
6.20
3.71
3.40
5.09
7.67
10.47
13.43
16.81
20.66
24.84
28.69
31.77
33.90
34.67
34.00
32.15
29.56
26.48
23.01
18.91
13.92
7.92
0.89
-6.82
-14.39
-20.75
-24.97
-26.42
-25.04
-21.15
-15.31
-8.20
-0.43
7.41
14.83
21.41
26.80
30.78
33.28
34.36
34.23
33.15
31.39
29.22
26.83
24.33
21.86
19.56
17.61
16.19
15.40
15.23
15.50
15.98
16.41
16.56
16.33
15.70
14.78
13.75
12.79
12.01
11.41
10.88
10.25
9.40
8.28
6.94
5.46
3.92
2.36
0.83
-0.62
-1.92
-3.04
-3.97
-4.75
-5.46
-6.13
-6.73
-7.14
-7.30
-7.21
-6.92
-6.53
-6.07
-5.48
-4.63
-3.46
-2.01
-0.45
0.98
2.11
2.89
3.41
3.74
3.96
4.05
4.00
3.79
3.52
3.28
3.18
3.22
3.37
3.56
3.76
3.98
4.27
4.66
5.14
5.63
6.00
6.17
6.08
5.80
5.42
5.03
4.67
4.35
4.02
3.70
3.39
3.15
2.99
2.87
2.67
2.28
1.61
0.69
-0.41
-1.56
-2.69
-3.76
-4.80
-5.87
-6.96
-8.09
-9.22
-10.35
-11.40
-12.29
-12.85
-12.87
-12.18
-10.73
-8.61
-6.07
-3.41
-0.92
1.24
2.98
4.34
5.33
6.01
6.40
6.57
6.61
6.70
7.02
7.70
8.73
9.97
11.17
12.07
12.54
12.55
12.22
11.68
11.02
10.27
9.43
8.55
7.70
6.93
6.24
5.55
4.71
3.66
2.44
1.20
0.14
-0.64
-1.14
-1.48
-1.77
-2.07
-2.40
-2.71
-3.00
-3.30
-3.59
-3.80
-3.75
-3.27
-2.29
-0.91
0.63
2.05
3.17
3.94
4.48
4.89
5.26
5.56
5.74
5.75
5.62
5.45
5.30
5.20
5.09
4.90
4.54
3.99
3.33
2.69
2.18
1.87
1.73
1.68
1.61
1.43
1.12
0.70
0.25
-0.14
-0.43
-0.59
-0.68
-0.73
-0.80
-0.90
-1.01
-1.11
-1.22
-1.36
-1.59
-1.94
-2.40
-2.93
-3.47
-4.01
-4.62
-5.36
-6.23
-7.16
-8.00
-8.52
-8.59
-8.12
-7.16
-5.82
-4.29
-2.73
-1.34
-0.25
0.47
0.87
1.05
1.16
1.32
1.55
1.82
2.06
2.21
2.27
2.23
2.12
1.94
1.68
1.33
0.92
0.50
0.12
-0.17
-0.39
-0.59
-0.85
-1.16
-1.49
-1.73
-1.79
-1.63
-1.29
-0.85
-0.35
0.18
0.75
1.36
1.97
2.48
2.79
2.90
2.85
2.74
2.63
2.54
2.38
2.07
1.53
0.77
-0.15
-1.10
-1.97
-2.66
-3.15
-3.47
-3.63
-3.64
-3.46
-3.00
-2.24
-1.23
-0.12
0.94
1.82
2.50
3.02
3.48
3.92
4.32
4.60
4.69
4.56
4.29
3.99
3.77
3.72
3.81
3.94
3.97
3.77
3.34
2.77
2.23
1.86
1.74
1.83
2.00
2.11
2.04
1.79
1.39
0.96
0.57
0.24
-0.03
-0.29
-0.55
-0.79
-0.98
-1.11
-1.19
-1.27
-1.43
-1.72
-2.14
-2.66
-3.22
-3.76
-4.28
-4.77
-5.26
-5.69
-5.96
-5.93
-5.53
-4.73
-3.61
-2.36
-1.15
-0.13
0.62
1.13
1.47
1.67
1.77
1.77
1.70
1.60
1.56
1.66
1.92
2.29
2.66
2.95
3.08
3.05
2.90
2.69
2.48
2.28
2.12
1.94
1.73
1.45
1.11
0.77
0.49
0.29
0.15
-0.03
-0.32
-0.75
-1.23
-1.64
-1.85
-1.88
-1.82
-1.85
-2.10
-2.59
-3.21
-3.79
-4.21
-4.41
-4.49
-4.55
-4.70
-4.98
-5.37
-5.82
-6.26
-6.64
-6.91
-6.94
-6.62
-5.89
-4.75
-3.35
-1.92
-0.72
0.13
0.62
0.91
1.21
1.69
2.38
3.15
3.81
4.20
4.29
4.18
4.05
4.01
4.08
4.15
4.06
3.74
3.22
2.68
2.30
2.19
2.34
2.59
2.74
2.65
2.30
1.79
1.29
0.92
0.76
0.76
0.80
0.78
0.62
0.31
-0.13
-0.65
-1.20
-1.75
-2.26
-2.67
-2.96
-3.10
-3.14
-3.14
-3.22
-3.44
-3.83
-4.40
-5.10
-5.88
-6.69
-7.48
-8.22
-8.85
-9.35
-9.71
-9.92
-9.99
-9.89
-9.54
-8.86
-7.77
-6.32
-4.64
-2.94
-1.42
-0.17
0.81
1.64
2.40
3.14
3.82
4.40
4.82
5.09
5.25
5.34
5.37
5.34
5.20
4.98
4.73
4.53
4.47
4.58
4.79
5.02
5.14
5.09
4.87
4.54
4.22
3.99
3.87
3.83
3.78
3.65
3.41
3.04
2.59
2.11
1.65
1.26
0.96
0.73
0.56
0.37
0.10
-0.29
-0.82
-1.44
-2.04
-2.54
-2.90
-3.14
-3.31
-3.49
-3.74
-4.08
-4.48
-4.84
-5.07
-5.06
-4.75
-4.13
-3.27
-2.29
-1.30
-0.37
0.46
1.19
1.85
2.40
2.80
3.00
2.98
2.82
2.61
2.47
2.48
2.62
2.81
2.91
2.83
2.58
2.23
1.91
1.72
1.67
1.68
1.65
1.56
1.43
1.33
1.33
1.38
1.40
1.29
1.00
0.56
0.08
-0.34
-0.66
-0.87
-1.04
-1.22
-1.44
-1.68
-1.90
-2.04
-2.06
-1.99
-1.86
-1.78
-1.83
-2.06
-2.47
-3.00
-3.55
-4.03
-4.38
-4.57
-4.60
-4.48
-4.20
-3.73
-3.07
-2.21
-1.25
-0.33
0.43
0.95
1.27
1.52
1.78
2.12
2.47
2.76
2.90
2.92
2.88
2.89
3.01
3.25
3.57
3.87
4.03
3.95
3.60
2.99
2.19
1.32
0.44
-0.38
-1.12
-1.76
-2.25
-2.55
-2.59
-2.39
-2.02
-1.61
-1.31
-1.20
-1.33
-1.64
-2.07
-2.54
-3.03
-3.51
-4.03
-4.58
-5.15
-5.65
-6.00
-6.09
-5.92
-5.58
-5.24
-5.06
-5.08
-5.22
-5.33
-5.21
-4.76
-4.01
-3.05
-2.00
-0.92
0.14
1.16
2.06
2.73
3.09
3.12
2.93
2.61
2.38
2.34
2.52
2.82
3.12
3.35
3.47
3.49
3.42
3.40
3.52
3.80
4.10
4.26
4.23
4.05
3.79
3.49
3.36
3.55
4.17
5.13
6.30
7.58
8.82
9.91
10.79
11.89
13.86
17.35
22.53
29.06
36.28
43.45
49.98
53.52
52.42
46.20
35.84
22.75
8.27
-6.30
-19.46
-29.72
-36.18
-38.62
-38.43
-36.29
-32.58
-27.08
-19.26
-8.89
3.45
16.28
27.97
37.24
43.62
46.63
46.27
42.87
36.74
28.14
17.47
5.62
-6.00
-15.74
-22.39
-25.34
-24.77
-21.52
-16.80
-11.81
-7.45
-4.21
-2.24
-1.51
-1.82
-2.85
-4.29
-5.86
-7.38
-8.72
-9.82
-10.65
-11.16
-11.26
-10.74
-9.29
-6.58
-2.28
3.78
11.50
20.40
29.65
38.20
44.95
48.99
49.78
47.31
42.07
34.92
26.81
18.54
10.48
2.53
-5.87
-15.44
-26.86
-40.39
-55.75
-72.00
-87.62
-100.85
-109.97
-113.79
-111.89
-104.77
-93.68
-80.29
-66.25
-52.89
-41.06
-31.15
-23.17
-16.93
-12.13
-8.40
-5.38
-2.79
-0.42
1.81
3.90
5.80
7.42
8.70
9.60
10.16
10.49
10.79
11.22
11.89
12.80
13.82
14.82
15.66
16.30
16.74
17.03
17.24
17.41
17.62
17.89
18.25
18.71
19.27
19.91
20.57
21.19
21.66
21.83
21.57
20.81
19.62
18.18
16.74
15.52
14.65
14.16
13.98
13.98
14.03
13.97
13.69
13.18
12.50
11.84
11.46
11.58
12.24
13.32
14.47
15.34
15.66
15.32
14.47
13.35
12.31
11.58
11.26
11.19
11.04
10.35
8.73
6.06
2.55
-1.29
-4.84
-7.57
-9.26
-9.96
-9.96
-9.62
-9.25
-9.07
-9.15
-9.45
-9.87
-10.26
-10.50
-10.47
-10.13
-9.46
-8.52
-7.48
-6.65
-6.42
-7.18
-9.13
-12.13
-15.71
-19.25
-22.21
-24.35
-25.70
-26.48
-26.85
-26.80
-26.18
-24.87
-22.92
-20.61
-18.30
-16.33
-14.83
-13.75
-12.94
-12.32
-11.94
-12.00
-12.76
-14.42
-17.05
-20.52
-24.60
-28.94
-33.18
-36.99
-40.00
-41.91
-42.52
-41.78
-39.87
-37.16
-34.06
-30.95
-28.06
-25.48
-23.24
-21.35
-19.82
-18.61
-17.67
-16.92
-16.28
-15.74
-15.28
-14.89
-14.45
-13.81
-12.78
-11.28
-9.29
-6.97
-4.52
-2.17
-0.13
1.53
2.91
4.30
6.11
8.76
12.50
17.30
22.88
28.80
34.68
40.27
45.44
50.15
54.34
57.88
60.60
62.28
62.80
62.09
60.23
57.38
53.77
49.62
45.11
40.31
35.25
29.99
24.74
19.87
15.87
13.10
11.62
11.10
10.91
10.38
9.09
7.07
4.78
2.88
1.92
2.13
3.35
5.21
7.34
9.57
11.91
14.40
17.01
19.48
21.39
22.40
22.36
21.41
19.90
18.25
16.72
15.38
14.12
12.71
10.91
8.56
5.58
2.08
-1.65
-5.07
-7.52
-8.41
-7.51
-5.08
-1.96
0.71
1.84
0.77
-2.55
-7.62
-13.69
-20.04
-26.16
-31.78
-36.78
-41.08
-44.57
-47.19
-48.92
-49.87
-50.17
-49.98
-49.35
-48.20
-46.35
-43.67
-40.16
-36.03
-31.73
-27.70
-24.25
-21.36
-18.75
-16.06
-13.11
-9.95
-6.86
-4.07
-1.60
0.74
3.22
5.99
8.91
11.69
13.96
15.52
16.33
16.44
15.90
14.70
12.81
10.32
7.51
4.88
3.08
2.76
4.38
8.04
13.42
19.79
26.22
31.73
35.61
37.48
37.37
35.63
32.75
29.18
25.26
21.21
17.16
13.22
9.49
6.07
3.00
0.22
-2.33
-4.66
-6.63
-7.98
-8.38
-7.64
-5.86
-3.38
-0.70
1.78
3.94
5.94
8.11
10.71
13.69
16.67
19.06
20.28
20.00
18.22
15.18
11.32
7.07
2.84
-1.01
-4.14
-6.34
-7.51
-7.78
-7.47
-7.00
-6.74
-6.93
-7.66
-8.88
-10.53
-12.54
-14.85
-17.40
-20.11
-22.94
-25.88
-29.02
-32.39
-35.99
-39.63
-43.02
-45.81
-47.71
-48.55
-48.29
-46.94
-44.53
-41.08
-36.70
-31.64
-26.28
-21.09
-16.48
-12.67
-9.65
-7.24
-5.15
-3.11
-0.98
1.31
3.72
6.15
8.51
10.72
12.75
14.63
16.42
18.18
19.92
21.54
22.90
23.83
24.19
23.88
22.89
21.33
19.35
17.17
15.02
13.06
11.45
10.25
9.54
9.40
9.90
11.09
12.88
15.12
17.51
19.72
21.41
22.31
22.33
21.58
20.35
19.01
17.89
17.14
16.69
16.38
16.05
15.65
15.25
14.99
14.94
15.10
15.41
15.81
16.28
16.78
17.19
17.23
16.44
14.32
10.44
4.68
-2.71
-11.10
-19.56
-27.10
-32.86
-36.33
-37.40
-36.38
-33.83
-30.38
-26.58
-22.77
-19.08
-15.55
-12.17
-8.99
-6.13
-3.73
-1.87
-0.59
0.21
0.65
0.88
0.99
1.01
0.91
0.68
0.31
-0.10
-0.39
-0.44
-0.20
0.26
0.78
1.16
1.29
1.14
0.79
0.34
-0.11
-0.52
-0.88
-1.26
-1.70
-2.21
-2.75
-3.22
-3.53
-3.62
-3.56
-3.48
-3.60
-4.09
-4.99
-6.24
-7.66
-9.06
-10.27
-11.20
-11.78
-11.96
-11.66
-10.83
-9.47
-7.67
-5.63
-3.59
-1.75
-0.21
1.06
2.16
3.18
4.15
5.00
5.66
6.11
6.39
6.61
6.88
7.24
7.69
8.15
8.58
8.96
9.32
9.68
10.01
10.20
10.09
9.57
8.63
7.42
6.20
5.25
4.70
4.55
4.59
4.58
4.31
3.71
2.84
1.85
0.87
0.01
-0.68
-1.18
-1.50
-1.69
-1.91
-2.35
-3.20
-4.52
-6.16
-7.81
-9.08
-9.64
-9.34
-8.22
-6.52
-4.50
-2.40
-0.38
1.49
3.19
4.67
5.92
6.91
7.62
8.11
8.42
8.63
8.79
8.91
8.98
8.97
8.89
8.74
8.57
8.41
8.26
8.16
8.10
8.09
8.10
8.04
7.82
7.35
6.64
5.77
4.92
4.22
3.74
3.45
3.24
3.01
2.70
2.32
1.91
1.48
0.97
0.32
-0.53
-1.56
-2.69
-3.82
-4.86
-5.77
-6.59
-7.34
-8.02
-8.61
-9.01
-9.11
-8.78
-7.96
-6.66
-4.99
-3.13
-1.30
0.33
1.68
2.71
3.50
4.07
4.45
4.64
4.67
4.61
4.59
4.72
5.03
5.48
5.93
6.24
6.36
6.31
6.19
6.11
6.07
5.99
5.73
5.21
4.43
3.52
2.68
2.09
1.80
1.72
1.69
1.52
1.14
0.57
-0.08
-0.71
-1.28
-1.82
-2.40
-3.04
-3.74
-4.45
-5.17
-5.93
-6.79
-7.77
-8.74
-9.51
-9.81
-9.46
-8.41
-6.78
-4.82
-2.79
-0.94
0.62
1.83
2.74
3.37
3.77
3.97
3.99
3.89
3.71
3.53
3.40
3.36
3.44
3.61
3.83
4.01
4.12
4.11
4.01
3.82
3.57
3.28
2.94
2.55
2.11
1.65
1.17
0.74
0.37
0.10
-0.09
-0.22
-0.38
-0.64
-1.10
-1.80
-2.72
-3.79
-4.88
-5.89
-6.69
-7.25
-7.64
-7.95
-8.35
-8.89
-9.52
-10.01
-10.05
-9.36
-7.86
-5.71
-3.29
-1.01
0.80
2.01
2.72
3.13
3.41
3.66
3.89
4.04
4.08
4.07
4.10
4.26
4.58
4.98
5.33
5.48
5.38
5.05
4.65
4.30
4.09
4.00
3.95
3.85
3.64
3.34
2.96
2.55
2.06
1.47
0.74
-0.07
-0.88
-1.55
-2.00
-2.26
-2.41
-2.61
-2.96
-3.50
-4.18
-4.95
-5.76
-6.61
-7.51
-8.47
-9.41
-10.16
-10.51
-10.30
-9.44
-8.00
-6.12
-4.04
-1.99
-0.18
1.21
2.13
2.62
2.82
2.91
3.03
3.26
3.54
3.80
3.98
4.10
4.21
4.37
4.57
4.71
4.70
4.50
4.20
3.95
3.87
3.97
4.14
4.18
3.97
3.46
2.77
2.06
1.50
1.13
0.93
0.78
0.57
0.27
-0.12
-0.51
-0.84
-1.10
-1.34
-1.64
-2.06
-2.64
-3.37
-4.24
-5.20
-6.20
-7.17
-8.01
-8.64
-8.95
-8.86
-8.34
-7.38
-6.02
-4.36
-2.54
-0.75
0.83
2.07
2.92
3.40
3.55
3.44
3.15
2.80
2.52
2.43
2.60
2.98
3.43
3.78
3.89
3.72
3.39
3.05
2.81
2.73
2.73
2.71
2.56
2.25
1.78
1.20
0.54
-0.15
-0.82
-1.36
-1.69
-1.74
-1.58
-1.33
-1.19
-1.30
-1.69
-2.32
-3.09
-3.95
-4.92
-6.03
-7.27
-8.49
-9.43
-9.84
-9.52
-8.46
-6.83
-4.93
-3.04
-1.39
-0.08
0.88
1.51
1.86
2.01
2.02
1.99
2.01
2.18
2.50
2.93
3.41
3.85
4.19
4.43
4.63
4.84
5.12
5.46
5.81
6.08
6.20
6.13
5.86
5.48
5.06
4.66
4.31
3.99
3.67
3.33
3.00
2.71
2.46
2.21
1.94
1.62
1.29
1.03
0.89
0.82
0.66
0.19
-0.71
-2.04
-3.54
-4.88
-5.71
-5.85
-5.35
-4.36
-3.09
-1.66
-0.13
1.51
3.21
4.88
6.46
7.91
9.35
10.89
12.64
14.56
16.44
18.00
18.97
19.13
18.39
16.76
14.27
11.03
7.15
2.82
-1.74
-6.31
-10.66
-14.61
-18.04
-20.86
-23.02
-24.48
-25.23
-25.26
-24.59
-23.26
-21.32
-18.88
-16.13
-13.32
-10.73
-8.64
-7.22
-6.47
-6.24
-6.31
-6.49
-6.73
-7.06
-7.55
-8.16
-8.72
-8.98
-8.77
-8.04
-6.95
-5.74
-4.64
-3.73
-2.98
-2.29
-1.53
-0.71
0.13
0.86
1.43
1.85
2.17
2.49
2.84
3.23
3.58
3.83
3.96
4.02
4.12
4.35
4.72
5.17
5.57
5.76
5.69
5.35
4.83
4.24
3.69
3.24
2.86
2.48
2.03
1.45
0.72
-0.09
-0.93
-1.74
-2.51
-3.32
-4.24
-5.35
-6.63
-7.92
-8.98
-9.52
-9.28
-8.15
-6.21
-3.70
-0.99
1.53
3.58
5.03
5.94
6.44
6.69
6.80
6.84
6.86
6.95
7.20
7.67
8.33
9.02
9.56
9.79
9.69
9.33
8.85
8.39
8.02
7.80
7.71
7.69
7.64
7.45
7.01
6.30
5.40
4.47
3.64
2.99
2.46
1.95
1.35
0.63
-0.20
-1.06
-1.95
-2.85
-3.77
-4.72
-5.73
-6.83
-8.09
-9.51
-10.99
-12.28
-13.08
-13.14
-12.33
-10.72
-8.54
-6.04
-3.50
-1.14
0.89
2.48
3.63
4.39
4.88
5.22
5.50
5.78
6.06
6.37
6.73
7.15
7.59
7.97
8.19
8.20
8.04
7.78
7.54
7.34
7.14
6.81
6.27
5.49
4.58
3.71
3.07
2.73
2.67
2.76
2.81
2.68
2.30
1.67
0.83
-0.17
-1.26
-2.39
-3.45
-4.35
-4.99
-5.32
-5.35
-5.22
-5.10
-5.22
-5.73
-6.72
-8.12
-9.70
-11.13
-12.04
-12.15
-11.36
-9.79
-7.68
-5.36
-3.08
-0.97
0.90
2.53
3.88
4.89
5.50
5.73
5.70
5.58
5.55
5.68
5.92
6.20
6.42
6.57
6.70
6.83
6.94
6.97
6.86
6.62
6.34
6.13
6.06
6.08
6.06
5.88
5.52
5.03
4.53
4.09
3.67
3.17
2.51
1.67
0.73
-0.19
-1.00
-1.68
-2.25
-2.76
-3.23
-3.68
-4.15
-4.72
-5.45
-6.38
-7.49
-8.69
-9.83
-10.74
-11.26
-11.26
-10.65
-9.40
-7.61
-5.49
-3.32
-1.31
0.41
1.84
3.03
4.01
4.73
5.11
5.12
4.83
4.43
4.13
4.09
4.36
4.87
5.49
6.11
6.59
6.85
6.83
6.50
5.97
5.36
4.83
4.45
4.13
3.70
3.02
2.10
1.14
0.39
0.02
-0.03
0.02
-0.11
-0.60
-1.46
-2.53
-3.62
-4.59
-5.40
-6.06
-6.58
-7.00
-7.37
-7.77
-8.35
-9.20
-10.33
-11.58
-12.67
-13.24
-12.99
-11.80
-9.77
-7.18
-4.42
-1.84
0.36
2.12
3.46
4.45
5.10
5.42
5.45
5.30
5.19
5.31
5.74
6.38
7.05
7.52
7.64
7.40
6.91
6.30
5.71
5.23
4.91
4.77
4.76
4.77
4.69
4.45
4.02
3.44
2.76
2.01
1.20
0.39
-0.37
-0.97
-1.35
-1.54
-1.65
-1.81
-2.13
-2.59
-3.14
-3.73
-4.44
-5.37
-6.60
-8.10
-9.70
-11.18
-12.31
-12.96
-13.10
-12.72
-11.81
-10.36
-8.41
-6.09
-3.62
-1.29
0.68
2.17
3.18
3.78
4.09
4.23
4.32
4.42
4.59
4.84
5.18
5.56
5.94
6.25
6.46
6.58
6.59
6.50
6.31
6.02
5.63
5.18
4.71
4.26
3.87
3.56
3.27
2.93
2.50
1.96
1.36
0.79
0.27
-0.20
-0.69
-1.23
-1.83
-2.43
-2.96
-3.42
-3.85
-4.32
-4.92
-5.71
-6.68
-7.79
-8.97
-10.09
-11.00
-11.48
-11.35
-10.51
-9.00
-6.99
-4.76
-2.57
-0.60
1.06
2.42
3.51
4.37
5.01
5.43
5.62
5.60
5.45
5.25
5.11
5.11
5.27
5.59
5.99
6.36
6.57
6.55
6.30
5.86
5.34
4.79
4.24
3.68
3.11
2.54
2.03
1.65
1.38
1.11
0.72
0.09
-0.73
-1.59
-2.33
-2.84
-3.19
-3.56
-4.14
-4.99
-6.00
-7.00
-7.86
-8.60
-9.33
-10.19
-11.18
-12.10
-12.64
-12.51
-11.55
-9.85
-7.63
-5.18
-2.77
-0.58
1.32
2.88
4.11
5.03
5.68
6.11
6.36
6.44
6.38
6.27
6.20
6.26
6.52
6.91
7.31
7.57
7.62
7.46
7.19
6.88
6.61
6.36
6.07
5.70
5.25
4.76
4.28
3.84
3.43
3.04
2.64
2.17
1.60
0.90
0.08
-0.80
-1.63
-2.31
-2.79
-3.08
-3.27
-3.44
-3.71
-4.11
-4.70
-5.48
-6.46
-7.63
-8.99
-10.45
-11.91
-13.18
-14.04
-14.29
-13.80
-12.57
-10.70
-8.41
-5.90
-3.37
-0.93
1.30
3.17
4.53
5.28
5.44
5.21
4.90
4.78
4.98
5.46
6.05
6.58
6.91
7.05
7.04
6.98
6.91
6.85
6.79
6.71
6.61
6.45
6.19
5.81
5.31
4.75
4.18
3.66
3.20
2.80
2.43
2.06
1.69
1.32
0.95
0.50
-0.09
-0.87
-1.81
-2.78
-3.62
-4.18
-4.38
-4.33
-4.20
-4.23
-4.57
-5.27
-6.30
-7.55
-8.92
-10.29
-11.53
-12.46
-12.87
-12.57
-11.45
-9.54
-7.02
-4.21
-1.45
0.98
2.93
4.34
5.28
5.78
5.92
5.78
5.46
5.10
4.87
4.86
5.09
5.50
5.96
6.37
6.70
6.93
7.10
7.17
7.06
6.73
6.15
5.40
4.58
3.80
3.17
2.69
2.37
2.15
1.97
1.74
1.42
1.00
0.49
-0.06
-0.56
-0.97
-1.30
-1.59
-1.94
-2.41
-3.02
-3.74
-4.53
-5.33
-6.08
-6.78
-7.44
-8.12
-8.90
-9.87
-11.07
-12.42
-13.75
-14.75
-15.06
-14.40
-12.67
-10.03
-6.91
-3.82
-1.18
0.80
2.16
3.12
3.89
4.60
5.25
5.78
6.14
6.35
6.48
6.61
6.77
7.00
7.26
7.52
7.74
7.87
7.87
7.73
7.47
7.15
6.81
6.46
6.09
5.65
5.18
4.76
4.50
4.41
4.42
4.33
3.94
3.16
2.09
0.96
0.01
-0.63
-0.97
-1.17
-1.39
-1.73
-2.22
-2.85
-3.56
-4.33
-5.10
-5.80
-6.42
-6.96
-7.53
-8.28
-9.31
-10.63
-12.13
-13.59
-14.74
-15.31
-15.09
-13.98
-12.03
-9.45
-6.57
-3.77
-1.36
0.51
1.86
2.84
3.63
4.35
5.00
5.56
5.96
6.23
6.44
6.69
7.02
7.42
7.75
7.89
7.77
7.47
7.16
7.01
7.07
7.28
7.42
7.32
6.88
6.19
5.41
4.75
4.29
3.99
3.73
3.40
2.93
2.34
1.69
1.08
0.55
0.06
-0.44
-0.99
-1.60
-2.23
-2.79
-3.24
-3.63
-4.04
-4.59
-5.36
-6.33
-7.42
-8.55
-9.63
-10.63
-11.50
-12.15
-12.38
-12.03
-10.98
-9.29
-7.13
-4.77
-2.46
-0.39
1.30
2.58
3.45
3.96
4.20
4.31
4.39
4.54
4.81
5.21
5.67
6.13
6.52
6.74
6.78
6.62
6.35
6.07
5.87
5.79
5.76
5.65
5.29
4.62
3.70
2.72
1.89
1.39
1.24
1.31
1.41
1.36
1.05
0.48
-0.27
-1.16
-2.14
-3.17
-4.22
-5.20
-6.05
-6.73
-7.30
-7.89
-8.66
-9.69
-10.93
-12.20
-13.24
-13.78
-13.65
-12.78
-11.23
-9.13
-6.69
-4.13
-1.66
0.54
2.35
3.72
4.69
5.39
5.92
6.38
6.78
7.11
7.34
7.46
7.52
7.59
7.71
7.88
8.04
8.15
8.14
7.99
7.70
7.27
6.70
6.03
5.35
4.74
4.28
3.97
3.74
3.47
3.08
2.55
1.92
1.25
0.58
-0.09
-0.78
-1.51
-2.28
-3.11
-3.97
-4.78
-5.44
-5.86
-6.05
-6.20
-6.57
-7.47
-9.00
-11.00
-13.06
-14.68
-15.48
-15.30
-14.26
-12.61
-10.58
-8.33
-5.97
-3.56
-1.22
0.88
2.61
3.88
4.71
5.22
5.53
5.74
5.91
6.02
6.07
6.07
6.07
6.12
6.25
6.43
6.63
6.77
6.81
6.74
6.58
6.37
6.13
5.86
5.51
5.00
4.30
3.45
2.61
1.95
1.61
1.58
1.70
1.73
1.50
0.96
0.22
-0.56
-1.24
-1.84
-2.45
-3.19
-4.09
-5.14
-6.25
-7.40
-8.57
-9.68
-10.55
-10.87
-10.34
-8.79
-6.30
-3.26
-0.20
2.40
4.24
5.26
5.65
5.63
5.44
5.21
4.99
4.80
4.66
4.62
4.67
4.80
4.94
5.04
5.02
4.90
4.69
4.44
4.20
3.95
3.66
3.28
2.79
2.21
1.62
1.08
0.59
0.12
-0.39
-1.00
-1.71
-2.49
-3.24
-3.88
-4.39
-4.77
-5.11
-5.48
-5.97
-6.65
-7.57
-8.74
-10.11
-11.52
-12.71
-13.37
-13.23
-12.17
-10.29
-7.87
-5.28
-2.86
-0.85
0.70
1.87
2.78
3.56
4.29
4.98
5.61
6.14
6.55
6.86
7.05
7.14
7.14
7.06
6.90
6.73
6.58
6.45
6.32
6.12
5.77
5.29
4.74
4.21
3.80
3.49
3.20
2.83
2.32
1.72
1.13
0.64
0.24
-0.17
-0.72
-1.48
-2.42
-3.43
-4.37
-5.16
-5.83
-6.49
-7.24
-8.16
-9.28
-10.53
-11.79
-12.89
-13.62
-13.76
-13.15
-11.75
-9.69
-7.20
-4.55
-2.02
0.22
2.14
3.76
5.11
6.19
6.96
7.37
7.44
7.31
7.17
7.23
7.58
8.17
8.83
9.37
9.68
9.74
9.62
9.42
9.16
8.83
8.36
7.69
6.79
5.73
4.59
3.50
2.58
1.89
1.42
1.06
0.70
0.24
-0.35
-1.01
-1.67
-2.28
-2.84
-3.43
-4.13
-5.03
-6.16
-7.52
-9.04
-10.58
-11.97
-12.94
-13.25
-12.73
-11.34
-9.26
-6.78
-4.24
-1.90
0.12
1.81
3.22
4.37
5.25
5.81
6.08
6.11
6.03
5.92
5.86
5.84
5.85
5.88
5.93
5.99
6.05
6.09
6.09
6.05
5.99
5.88
5.70
5.37
4.89
4.22
3.43
2.58
1.72
0.94
0.29
-0.20
-0.54
-0.85
-1.26
-1.92
-2.87
-4.03
-5.18
-6.15
-6.89
-7.54
-8.37
-9.61
-11.29
-13.21
-15.00
-16.28
-16.77
-16.37
-15.13
-13.21
-10.79
-8.11
-5.47
-3.17
-1.49
-0.61
-0.51
-1.03
-1.88
-2.75
-3.43
-3.75
-3.74
-3.53
-3.35
-3.48
-4.14
-5.36
-6.95
-8.57
-9.86
-10.61
-10.90
-11.06
-11.53
-12.68
-14.66
-17.26
-19.90
-21.64
-21.39
-18.14
-11.39
-1.47
10.32
21.99
31.38
36.93
38.13
35.63
30.88
25.40
20.32
16.08
12.58
9.59
6.96
4.77
3.15
2.16
1.61
1.19
0.68
0.10
-0.23
0.15
1.58
4.09
7.32
10.69
13.58
15.60
16.68
17.07
17.15
17.26
17.57
18.05
18.52
18.81
18.84
18.66
18.48
18.51
18.88
19.59
20.48
21.35
22.03
22.42
22.54
22.46
22.25
21.98
21.67
21.30
20.86
20.31
19.56
18.51
17.06
15.20
13.06
10.96
9.37
8.78
9.49
11.48
14.30
17.10
18.79
18.39
15.22
9.16
0.71
-9.11
-18.98
-27.65
-34.19
-38.22
-39.95
-39.95
-38.90
-37.28
-35.32
-32.95
-30.02
-26.40
-22.09
-17.20
-11.88
-6.22
-0.28
5.92
12.35
18.98
25.79
32.74
39.71
46.40
52.28
56.60
58.48
57.14
52.12
43.46
31.83
18.57
5.39
-5.97
-14.12
-18.39
-18.99
-16.88
-13.57
-10.71
-9.74
-11.54
-16.15
-22.77
-29.96
-36.16
-40.26
-41.95
-41.75
-40.52
-38.98
-37.27
-35.07
-31.97
-27.89
-23.29
-18.99
-15.66
-13.52
-12.25
-11.19
-9.78
-7.79
-5.41
-3.03
-1.02
0.43
1.40
2.06
2.59
3.11
3.68
4.32
5.03
5.79
6.46
6.75
6.30
4.78
2.13
-1.39
-5.18
-8.55
-10.94
-12.11
-12.18
-11.59
-10.87
-10.54
-10.87
-11.85
-13.16
-14.33
-14.95
-14.89
-14.37
-13.86
-13.76
-14.20
-14.91
-15.33
-14.94
-13.55
-11.39
-9.04
-7.27
-6.79
-8.05
-11.18
-15.89
-21.53
-27.20
-31.98
-35.18
-36.49
-36.08
-34.45
-32.26
-30.12
-28.47
-27.57
-27.46
-28.01
-28.98
-30.00
-30.70
-30.74
-29.94
-28.26
-25.83
-22.90
-19.74
-16.59
-13.57
-10.76
-8.15
-5.72
-3.47
-1.40
0.41
1.90
3.00
3.70
4.09
4.34
4.64
5.13
5.84
6.68
7.49
8.13
8.53
8.69
8.64
8.41
7.96
7.25
6.26
4.98
3.48
1.83
0.09
-1.68
-3.38
-4.89
-6.02
-6.55
-6.30
-5.16
-3.17
-0.51
2.51
5.55
8.28
10.50
12.15
13.28
14.02
14.55
14.98
15.37
15.74
16.11
16.46
16.81
17.11
17.37
17.56
17.65
17.66
17.60
17.45
17.17
16.69
16.02
15.20
14.38
13.71
13.30
13.18
13.21
13.19
12.90
12.21
11.16
9.92
8.72
7.76
7.07
6.53
5.93
5.10
3.97
2.64
1.30
0.16
-0.59
-0.80
-0.34
0.91
2.95
5.70
8.98
12.63
16.64
21.21
26.58
32.84
39.70
46.43
52.00
55.40
55.96
53.51
48.45
41.56
33.74
25.83
18.41
11.82
6.18
1.46
-2.52
-6.00
-9.29
-12.68
-16.33
-20.15
-23.85
-27.03
-29.33
-30.64
-31.06
-30.89
-30.43
-29.94
-29.55
-29.29
-29.08
-28.76
-28.10
-26.95
-25.34
-23.49
-21.80
-20.64
-20.17
-20.24
-20.44
-20.31
-19.50
-17.86
-15.46
-12.45
-9.01
-5.34
-1.61
1.95
5.11
7.68
9.57
10.83
11.64
12.20
12.72
13.27
13.83
14.29
14.54
14.53
14.28
13.90
13.48
13.08
12.71
12.32
11.86
11.36
10.84
10.34
9.85
9.33
8.69
7.92
7.04
6.10
5.13
4.12
2.98
1.66
0.12
-1.56
-3.24
-4.79
-6.14
-7.31
-8.37
-9.38
-10.37
-11.30
-12.16
-12.96
-13.72
-14.46
-15.10
-15.45
-15.23
-14.18
-12.14
-9.19
-5.67
-2.04
1.21
3.74
5.42
6.33
6.70
6.71
6.48
6.02
5.28
4.22
2.88
1.40
0.01
-1.04
-1.53
-1.30
-0.26
1.59
4.15
7.25
10.64
14.11
17.50
20.76
23.89
26.76
29.09
30.38
30.13
28.06
24.32
19.55
14.75
11.01
9.23
9.87
12.97
18.13
24.69
31.79
38.46
43.77
46.95
47.61
45.80
42.05
37.18
32.01
27.17
22.88
19.09
15.61
12.34
9.26
6.35
3.43
0.09
-4.12
-9.47
-15.81
-22.56
-28.90
-34.12
-37.86
-40.20
-41.48
-42.02
-41.99
-41.37
-40.06
-38.06
-35.53
-32.81
-30.24
-28.08
-26.40
-25.12
-24.01
-22.84
-21.45
-19.77
-17.86
-15.83
-13.83
-12.00
-10.46
-9.30
-8.55
-8.16
-7.98
-7.85
-7.59
-7.10
-6.42
-5.67
-5.03
-4.70
-4.79
-5.34
-6.29
-7.43
-8.45
-8.98
-8.69
-7.41
-5.21
-2.33
0.83
3.91
6.68
9.01
10.83
12.12
12.87
13.11
12.99
12.70
12.45
12.38
12.50
12.75
13.02
13.24
13.35
13.29
12.97
12.31
11.29
10.01
8.68
7.56
6.77
6.32
6.04
5.78
5.45
5.03
4.53
3.91
3.11
2.07
0.85
-0.41
-1.49
-2.28
-2.86
-3.44
-4.27
-5.51
-7.14
-8.97
-10.73
-12.15
-12.99
-13.10
-12.33
-10.64
-8.07
-4.88
-1.46
1.72
4.26
5.94
6.80
7.03
6.87
6.51
6.06
5.57
5.08
4.68
4.46
4.45
4.62
4.90
5.16
5.37
5.50
5.52
5.38
5.00
4.32
3.37
2.24
1.09
0.07
-0.76
-1.41
-1.93
-2.38
-2.75
-3.03
-3.25
-3.51
-3.95
-4.74
-5.95
-7.60
-9.57
-11.72
-13.85
-15.69
-16.93
-17.21
-16.30
-14.16
-11.01
-7.29
-3.55
-0.23
2.37
4.19
5.29
5.85
6.06
6.08
6.06
6.17
6.49
7.10
7.97
8.98
9.94
10.60
10.80
10.46
9.68
8.70
7.73
6.98
6.51
6.31
6.31
6.50
6.86
7.40
8.04
8.61
8.92
8.83
8.44
8.08
8.21
9.21
11.18
13.91
16.87
19.40
20.87
20.74
18.70
14.68
8.92
2.03
-5.08
-11.36
-15.89
-18.11
-18.02
-16.08
-13.06
-9.77
-6.85
-4.74
-3.68
-3.74
-4.87
-6.91
-9.54
-12.38
-15.00
-17.09
-18.55
-19.51
-20.19
-20.75
-21.15
-21.16
-20.43
-18.75
-16.16
-13.00
-9.82
-7.16
-5.40
-4.56
-4.42
-4.62
-4.83
-4.91
-4.85
-4.76
-4.69
-4.62
-4.48
-4.25
-4.03
-4.04
-4.49
-5.45
-6.72
-7.92
-8.53
-8.18
-6.73
-4.28
-1.13
2.37
5.88
9.16
12.01
14.35
16.15
17.49
18.57
19.59
20.75
22.17
23.85
25.76
27.83
29.97
32.07
34.03
35.72
37.09
38.20
39.19
40.29
41.66
43.37
45.37
47.59
49.97
52.51
55.25
58.12
60.96
63.44
65.18
65.87
65.31
63.36
59.93
54.84
47.87
38.86
27.91
15.52
2.57
-9.97
-21.35
-31.33
-40.22
-48.61
-56.92
-64.97
-71.96
-76.85
-79.04
-78.85
-77.59
-77.08
-78.79
-83.11
-89.07
-94.70
-97.91
-97.42
-93.26
-86.74
-79.80
-74.12
-70.59
-69.19
-69.24
-69.82
-69.66
-66.98
-59.43
-44.74
-22.15
6.32
35.55
58.75
70.03
66.99
51.75
29.96
8.27
-8.25
-17.42
-19.64
-16.53
-9.72
-0.48
9.89
19.57
26.31
28.18
24.70
17.62
10.76
8.77
15.28
31.00
52.80
74.27
87.81
87.62
72.16
45.07
13.74
-13.85
-32.32
-40.80
-42.41
-41.87
-42.77
-45.94
-49.71
-51.53
-49.84
-44.93
-38.56
-32.75
-28.79
-26.96
-27.03
-28.96
-33.13
-39.81
-48.50
-57.46
-64.04
-65.62
-60.86
-50.50
-37.25
-24.96
-17.22
-16.04
-20.99
-29.10
-35.81
-36.44
-27.97
-10.15
14.44
41.45
66.48
86.60
100.93
110.22
115.72
118.39
118.64
116.89
114.06
111.59
110.75
111.79
113.42
113.39
109.45
100.51
87.01
70.55
53.05
35.94
19.90
5.16
-8.01
-19.05
-27.30
-32.35
-34.46
-34.50
-33.57
-32.62
-32.14
-32.25
-32.89
-34.08
-35.86
-38.10
-40.33
-41.82
-41.83
-40.07
-36.79
-32.73
-28.74
-25.41
-22.96
-21.26
-20.12
-19.40
-19.01
-18.86
-18.74
-18.34
-17.32
-15.46
-12.70
-9.17
-5.23
-1.41
1.57
3.10
2.85
1.06
-1.60
-4.26
-6.30
-7.68
-8.85
-10.49
-12.94
-16.02
-19.00
-21.02
-21.53
-20.52
-18.47
-16.03
-13.71
-11.66
-9.73
-7.70
-5.46
-3.14
-1.08
0.40
1.14
1.28
1.17
1.23
1.77
2.84
4.28
5.78
7.08
8.04
8.66
9.05
9.38
9.74
10.18
10.71
11.35
12.15
13.20
14.55
16.17
17.88
19.38
20.33
20.41
19.48
17.61
15.02
12.01
8.81
5.57
2.36
-0.77
-3.76
-6.47
-8.78
-10.61
-11.97
-12.98
-13.79
-14.54
-15.27
-15.92
-16.44
-16.79
-17.06
-17.37
-17.90
-18.75
-19.90
-21.18
-22.27
-22.79
-22.37
-20.79
-18.12
-14.72
-11.10
-7.81
-5.17
-3.21
-1.74
-0.48
0.73
1.89
2.85
3.45
3.65
3.52
3.25
2.98
2.80
2.76
2.89
3.28
4.09
5.50
7.57
10.20
13.18
16.20
19.02
21.55
23.79
25.82
27.63
29.11
30.02
30.10
29.21
27.42
25.06
22.68
20.84
20.02
20.42
21.96
24.32
27.08
29.84
32.35
34.43
35.97
36.83
36.89
36.06
34.37
31.98
29.14
26.07
22.89
19.68
16.44
13.25
10.20
7.44
4.97
2.73
0.58
-1.60
-3.81
-5.94
-7.86
-9.52
-10.95
-12.24
-13.42
-14.41
-15.02
-15.06
-14.46
-13.36
-12.02
-10.73
-9.68
-8.92
-8.32
-7.66
-6.71
-5.31
-3.47
-1.36
0.80
2.77
4.46
5.88
7.14
8.31
9.43
10.51
11.65
13.08
15.10
17.97
21.67
25.87
29.95
33.19
35.03
35.23
34.01
32.05
30.23
29.29
29.65
31.23
33.63
36.16
38.07
38.68
37.52
34.37
29.21
22.29
14.16
5.57
-2.73
-10.34
-17.02
-22.60
-26.98
-30.17
-32.34
-33.78
-34.82
-35.81
-37.38
-39.75
-42.43
-44.59
-45.55
-45.20
-43.83
-41.96
-40.24
-40.00
-41.69
-44.49
-46.87
-47.74
-46.99
-45.21
-43.17
-41.81
-43.07
-47.55
-53.92
-59.90
-64.05
-66.37
-67.71
-68.94
-71.32
-77.76
-89.66
-105.79
-122.90
-137.47
-146.68
-148.38
-141.81
-118.49
-80.06
-38.74
-9.61
0.78
-3.24
-11.15
-14.76
-6.62
15.45
47.18
82.63
117.27
149.16
175.55
189.28
185.58
166.26
138.05
107.33
78.94
56.11
40.65
32.34
29.31
29.43
30.94
31.96
30.36
25.65
19.14
13.12
9.12
7.40
7.60
9.10
10.82
11.43
10.46
8.62
7.21
7.14
8.53
11.16
14.34
16.91
17.56
15.41
10.34
2.93
-5.88
-15.00
-23.26
-29.85
-34.74
-38.63
-42.55
-47.31
-53.03
-59.16
-64.84
-69.34
-72.58
-75.08
-77.48
-79.80
-81.06
-79.39
-72.84
-60.36
-42.56
-21.82
-1.73
14.05
22.98
24.40
19.61
11.27
2.50
-4.03
-6.63
-4.74
1.21
10.16
20.72
31.47
41.25
49.23
54.99
58.56
60.29
60.73
60.44
59.84
58.99
57.65
55.29
51.33
45.32
37.11
26.92
15.26
2.86
-9.52
-21.18
-31.47
-39.85
-45.81
-48.90
-48.80
-45.43
-39.05
-30.31
-20.11
-9.47
0.68
9.69
17.21
23.07
27.31
30.05
31.51
31.99
31.82
31.26
30.45
29.36
27.89
25.93
23.50
20.72
17.83
15.04
12.44
9.97
7.42
4.51
1.06
-2.97
-7.37
-11.79
-15.80
-19.04
-21.29
-22.52
-22.78
-22.16
-20.69
-18.35
-15.13
-11.08
-6.42
-1.46
3.41
7.80
11.47
14.27
16.21
17.36
17.78
17.56
16.79
15.67
14.49
13.54
13.07
13.13
13.61
14.29
14.89
15.22
15.14
14.61
13.59
12.07
10.11
7.82
5.40
3.03
0.85
-1.09
-2.79
-4.23
-5.39
-6.19
-6.57
-6.54
-6.18
-5.60
-4.98
-4.39
-3.89
-3.48
-3.13
-2.88
-2.79
-2.97
-3.55
-4.63
-6.21
-8.17
-10.25
-12.07
-13.27
-13.57
-12.90
-11.39
-9.34
-7.14
-5.16
-3.68
-2.81
-2.50
-2.56
-2.66
-2.47
-1.74
-0.39
1.47
3.56
5.55
7.16
8.20
8.62
8.44
7.77
6.76
5.61
4.54
3.70
3.17
2.92
2.85
2.83
2.72
2.48
2.14
1.81
1.66
1.79
2.21
2.80
3.36
3.72
3.80
3.68
3.48
3.31
3.23
3.16
3.00
2.66
2.11
1.34
0.37
-0.81
-2.17
-3.65
-5.13
-6.49
-7.64
-8.63
-9.61
-10.72
-12.00
-13.28
-14.26
-14.55
-13.89
-12.25
-9.88
-7.17
-4.53
-2.26
-0.43
1.02
2.19
3.18
3.99
4.59
4.99
5.24
5.47
5.79
6.28
6.88
7.46
7.86
7.97
7.80
7.41
6.92
6.38
5.80
5.11
4.28
3.33
2.36
1.48
0.75
0.16
-0.37
-0.95
-1.63
-2.40
-3.23
-4.07
-4.91
-5.76
-6.64
-7.50
-8.30
-8.99
-9.58
-10.15
-10.82
-11.70
-12.78
-13.94
-14.94
-15.50
-15.40
-14.53
-12.88
-10.55
-7.72
-4.61
-1.48
1.39
3.77
5.52
6.63
7.21
7.41
7.39
7.25
7.03
6.75
6.45
6.21
6.10
6.15
6.31
6.46
6.48
6.26
5.80
5.16
4.48
3.87
3.38
2.98
2.60
2.18
1.70
1.17
0.63
0.08
-0.49
-1.12
-1.82
-2.58
-3.35
-4.10
-4.80
-5.44
-6.09
-6.78
-7.58
-8.55
-9.73
-11.09
-12.51
-13.72
-14.38
-14.15
-12.87
-10.61
-7.66
-4.49
-1.55
0.84
2.59
3.83
4.76
5.54
6.21
6.71
6.94
6.85
6.55
6.23
6.07
6.18
6.52
6.94
7.28
7.48
7.53
7.49
7.41
7.25
6.95
6.47
5.81
5.04
4.24
3.46
2.69
1.85
0.87
-0.28
-1.52
-2.77
-3.94
-4.99
-5.98
-7.00
-8.10
-9.25
-10.34
-11.25
-11.90
-12.34
-12.72
-13.21
-13.92
-14.79
-15.60
-16.00
-15.65
-14.36
-12.12
-9.19
-5.91
-2.72
0.08
2.31
4.00
5.26
6.23
7.02
7.63
8.04
8.26
8.36
8.45
8.63
8.95
9.32
9.59
9.62
9.37
8.94
8.49
8.24
8.28
8.59
8.95
9.13
8.89
8.16
7.04
5.76
4.60
3.75
3.23
2.91
2.60
2.14
1.48
0.68
-0.20
-1.11
-2.02
-3.00
-4.06
-5.21
-6.36
-7.43
-8.36
-9.16
-9.93
-10.78
-11.83
-13.04
-14.25
-15.18
-15.52
-15.02
-13.59
-11.35
-8.53
-5.49
-2.53
0.13
2.35
4.11
5.48
6.53
7.37
8.02
8.47
8.68
8.62
8.30
7.83
7.38
7.06
6.94
6.97
7.03
7.03
6.95
6.83
6.74
6.69
6.62
6.44
6.05
5.42
4.64
3.83
3.13
2.63
2.30
2.07
1.85
1.54
1.09
0.50
-0.21
-0.98
-1.71
-2.37
-2.93
-3.43
-3.94
-4.53
-5.25
-6.16
-7.29
-8.65
-10.19
-11.77
-13.10
-13.84
-13.71
-12.60
-10.64
-8.14
-5.49
-2.98
-0.78
1.09
2.67
3.99
5.04
5.76
6.15
6.25
6.14
5.96
5.83
5.87
6.12
6.55
7.10
7.65
8.07
8.28
8.25
8.02
7.64
7.20
6.73
6.25
5.78
5.29
4.80
4.29
3.75
3.13
2.39
1.49
0.46
-0.60
-1.52
-2.18
-2.52
-2.61
-2.59
-2.63
-2.84
-3.25
-3.86
-4.62
-5.51
-6.50
-7.58
-8.67
-9.72
-10.72
-11.65
-12.55
-13.34
-13.88
-13.91
-13.22
-11.72
-9.53
-6.94
-4.28
-1.80
0.37
2.23
3.80
5.03
5.87
6.26
6.23
5.97
5.70
5.62
5.84
6.29
6.81
7.23
7.46
7.51
7.50
7.54
7.69
7.88
7.98
7.84
7.40
6.70
5.90
5.15
4.56
4.12
3.76
3.34
2.80
2.13
1.40
0.71
0.15
-0.25
-0.51
-0.72
-0.95
-1.25
-1.63
-2.05
-2.50
-2.98
-3.52
-4.15
-4.88
-5.64
-6.33
-6.92
-7.44
-8.01
-8.79
-9.82
-11.02
-12.17
-12.97
-13.16
-12.56
-11.16
-9.09
-6.58
-3.88
-1.25
1.11
3.05
4.52
5.47
5.95
6.05
5.90
5.69
5.60
5.72
6.07
6.57
7.06
7.44
7.63
7.66
7.59
7.46
7.30
7.09
6.83
6.51
6.16
5.78
5.37
4.92
4.46
4.03
3.68
3.41
3.16
2.84
2.36
1.71
0.95
0.17
-0.53
-1.13
-1.68
-2.19
-2.64
-2.99
-3.22
-3.38
-3.61
-4.04
-4.69
-5.51
-6.39
-7.28
-8.19
-9.23
-10.37
-11.45
-12.13
-12.07
-11.07
-9.25
-6.93
-4.56
-2.43
-0.67
0.80
2.10
3.27
4.23
4.84
5.03
4.83
4.41
4.01
3.82
3.94
4.33
4.87
5.40
5.82
6.08
6.20
6.24
6.21
6.05
5.71
5.13
4.36
3.55
2.87
2.46
2.30
2.27
2.18
1.88
1.35
0.65
-0.10
-0.77
-1.29
-1.64
-1.87
-2.04
-2.22
-2.48
-2.87
-3.41
-4.10
-4.91
-5.79
-6.68
-7.52
-8.25
-8.89
-9.47
-10.10
-10.83
-11.65
-12.40
-12.84
-12.72
-11.89
-10.38
-8.38
-6.19
-4.10
-2.28
-0.81
0.35
1.27
2.04
2.70
3.30
3.79
4.15
4.34
4.36
4.28
4.20
4.26
4.51
4.91
5.38
5.80
6.09
6.22
6.20
6.05
5.80
5.48
5.10
4.76
4.50
4.35
4.26
4.16
3.97
3.64
3.20
2.69
2.16
1.61
1.03
0.41
-0.24
-0.86
-1.40
-1.84
-2.22
-2.58
-3.01
-3.51
-4.07
-4.66
-5.25
-5.88
-6.55
-7.32
-8.18
-9.12
-10.08
-10.93
-11.48
-11.51
-10.87
-9.51
-7.53
-5.19
-2.80
-0.63
1.13
2.45
3.35
3.90
4.18
4.23
4.14
4.01
3.95
4.03
4.25
4.54
4.82
5.04
5.17
5.25
5.30
5.35
5.38
5.39
5.39
5.36
5.30
5.14
4.83
4.32
3.64
2.91
2.27
1.80
1.48
1.22
0.91
0.49
-0.01
-0.49
-0.86
-1.11
-1.26
-1.38
-1.54
-1.75
-2.03
-2.41
-2.91
-3.57
-4.39
-5.30
-6.20
-6.96
-7.40
-7.37
-6.78
-5.65
-4.14
-2.49
-0.96
0.26
1.13
1.72
2.16
2.58
2.99
3.36
3.58
3.63
3.53
3.40
3.37
3.55
3.97
4.54
5.13
5.56
5.74
5.66
5.41
5.10
4.79
4.49
4.18
3.84
3.49
3.15
2.85
2.56
2.26
1.92
1.55
1.12
0.64
0.09
-0.55
-1.20
-1.77
-2.14
-2.30
-2.32
-2.33
-2.47
-2.77
-3.17
-3.56
-3.92
-4.28
-4.75
-5.38
-6.15
-6.94
-7.59
-8.01
-8.16
-8.00
-7.51
-6.65
-5.39
-3.82
-2.14
-0.61
0.57
1.37
1.89
2.29
2.65
2.96
3.11
3.04
2.81
2.62
2.68
3.09
3.74
4.42
4.85
4.91
4.63
4.19
3.80
3.54
3.38
3.19
2.85
2.34
1.79
1.38
1.25
1.42
1.74
2.00
2.02
1.72
1.18
0.55
-0.05
-0.58
-1.12
-1.76
-2.54
-3.41
-4.25
-4.94
-5.45
-5.81
-6.11
-6.43
-6.83
-7.32
-7.90
-8.57
-9.28
-9.95
-10.43
-10.53
-10.16
-9.27
-7.94
-6.25
-4.28
-2.12
0.14
2.36
4.38
6.02
7.19
7.90
8.25
8.38
8.42
8.40
8.34
8.22
8.07
7.94
7.86
7.81
7.71
7.47
7.05
6.50
5.94
5.52
5.28
5.17
5.07
4.81
4.35
3.69
2.94
2.22
1.58
1.05
0.56
0.06
-0.48
-1.05
-1.59
-2.04
-2.36
-2.53
-2.60
-2.62
-2.69
-2.88
-3.25
-3.86
-4.69
-5.68
-6.70
-7.56
-8.07
-8.08
-7.55
-6.55
-5.24
-3.85
-2.58
-1.57
-0.92
-0.59
-0.50
-0.53
-0.56
-0.50
-0.34
-0.14
-0.03
-0.10
-0.40
-0.81
-1.13
-1.10
-0.58
0.43
1.71
2.96
3.95
4.59
4.97
5.28
5.66
6.13
6.58
6.88
6.90
6.63
6.16
5.61
5.06
4.56
4.12
3.73
3.40
3.11
2.85
2.59
2.28
1.87
1.36
0.75
0.06
-0.65
-1.35
-1.99
-2.54
-3.01
-3.45
-3.93
-4.48
-5.11
-5.71
-6.15
-6.27
-6.04
-5.48
-4.68
-3.75
-2.77
-1.79
-0.88
-0.11
0.43
0.68
0.64
0.37
0.01
-0.31
-0.49
-0.46
-0.26
0.04
0.34
0.60
0.79
0.96
1.17
1.45
1.79
2.16
2.47
2.72
2.93
3.21
3.64
4.28
5.04
5.79
6.35
6.60
6.54
6.26
5.90
5.57
5.30
5.01
4.60
4.05
3.43
2.87
2.50
2.36
2.32
2.18
1.75
0.99
0.01
-0.93
-1.60
-1.94
-2.01
-2.06
-2.26
-2.67
-3.17
-3.51
-3.47
-2.96
-2.06
-0.98
0.06
0.91
1.54
1.99
2.35
2.66
2.91
3.03
2.98
2.78
2.53
2.35
2.34
2.48
2.69
2.86
2.93
2.89
2.78
2.67
2.58
2.48
2.32
2.04
1.62
1.10
0.56
0.07
-0.32
-0.60
-0.85
-1.12
-1.46
-1.84
-2.22
-2.53
-2.74
-2.86
-2.96
-3.07
-3.21
-3.40
-3.64
-3.98
-4.47
-5.12
-5.88
-6.66
-7.32
-7.75
-7.89
-7.74
-7.31
-6.66
-5.84
-4.95
-4.09
-3.35
-2.75
-2.27
-1.85
-1.46
-1.09
-0.79
-0.59
-0.47
-0.37
-0.21
0.04
0.38
0.79
1.30
1.97
2.87
4.01
5.25
6.39
7.21
7.61
7.64
7.42
7.11
6.78
6.44
6.03
5.53
4.96
4.37
3.80
3.28
2.84
2.45
2.13
1.86
1.61
1.33
0.98
0.56
0.09
-0.40
-0.89
-1.39
-1.88
-2.37
-2.85
-3.32
-3.78
-4.20
-4.55
-4.76
-4.76
-4.50
-3.98
-3.22
-2.26
-1.16
-0.03
1.05
1.95
2.60
2.94
3.01
2.92
2.79
2.76
2.90
3.20
3.59
3.95
4.17
4.21
4.06
3.82
3.56
3.37
3.24
3.12
2.95
2.70
2.35
1.95
1.52
1.11
0.70
0.30
-0.08
-0.41
-0.63
-0.69
-0.62
-0.45
-0.27
-0.19
-0.28
-0.52
-0.86
-1.21
-1.49
-1.69
-1.83
-2.00
-2.26
-2.69
-3.28
-3.97
-4.66
-5.20
-5.45
-5.35
-4.90
-4.16
-3.26
-2.31
-1.38
-0.49
0.32
1.03
1.58
1.92
2.04
2.00
1.91
1.83
1.82
1.85
1.90
1.94
1.95
1.97
1.99
2.03
2.04
2.00
1.89
1.70
1.45
1.13
0.77
0.38
-0.00
-0.34
-0.62
-0.83
-1.01
-1.19
-1.39
-1.66
-2.03
-2.51
-3.06
-3.58
-3.92
-4.00
-3.80
-3.48
-3.25
-3.37
-3.93
-4.85
-5.90
-6.73
-7.08
-6.84
-6.10
-5.08
-4.05
-3.18
-2.51
-1.95
-1.38
-0.69
0.16
1.10
2.01
2.76
3.28
3.54
3.58
3.48
3.33
3.25
3.29
3.48
3.76
4.02
4.16
4.06
3.68
3.07
2.38
1.79
1.47
1.47
1.69
1.91
1.88
1.46
0.70
-0.22
-1.04
-1.59
-1.83
-1.87
-1.89
-2.01
-2.30
-2.71
-3.15
-3.54
-3.84
-4.05
-4.19
-4.30
-4.39
-4.44
-4.45
-4.38
-4.23
-3.99
-3.66
-3.28
-2.82
-2.26
-1.57
-0.69
0.38
1.56
2.75
3.77
4.53
5.02
5.32
5.53
5.73
5.91
5.96
5.80
5.44
5.00
4.68
4.60
4.76
4.96
4.96
4.63
4.02
3.36
2.92
2.80
2.89
2.92
2.63
1.95
1.00
0.05
-0.65
-0.98
-0.97
-0.79
-0.59
-0.49
-0.51
-0.61
-0.74
-0.88
-1.05
-1.29
-1.67
-2.17
-2.73
-3.26
-3.71
-4.10
-4.53
-5.09
-5.79
-6.49
-7.00
-7.10
-6.72
-5.93
-4.91
-3.85
-2.85
-1.93
-1.05
-0.20
0.59
1.22
1.64
1.87
2.03
2.22
2.49
2.78
2.94
2.89
2.64
2.31
2.07
2.02
2.12
2.23
2.22
2.02
1.68
1.32
0.99
0.73
0.48
0.23
-0.03
-0.24
-0.36
-0.39
-0.37
-0.37
-0.45
-0.62
-0.85
-1.11
-1.41
-1.77
-2.20
-2.67
-3.11
-3.42
-3.59
-3.67
-3.77
-4.01
-4.44
-5.04
-5.70
-6.30
-6.73
-6.92
-6.82
-6.39
-5.64
-4.59
-3.33
-1.97
-0.62
0.61
1.61
2.34
2.78
3.00
3.11
3.27
3.55
3.97
4.44
4.84
5.07
5.12
5.05
4.96
4.93
4.96
5.02
5.04
4.94
4.71
4.35
3.91
3.42
2.90
2.39
1.92
1.52
1.25
1.13
1.15
1.22
1.22
1.04
0.64
0.08
-0.53
-1.06
-1.44
-1.68
-1.87
-2.08
-2.37
-2.74
-3.15
-3.56
-3.98
-4.43
-4.97
-5.65
-6.46
-7.36
-8.26
-9.03
-9.50
-9.59
-9.24
-8.52
-7.55
-6.46
-5.35
-4.18
-2.89
-1.41
0.25
1.96
3.51
4.73
5.54
5.98
6.21
6.36
6.53
6.69
6.80
6.78
6.61
6.30
5.88
5.41
4.92
4.47
4.10
3.82
3.63
3.45
3.22
2.87
2.39
1.80
1.15
0.49
-0.12
-0.64
-1.02
-1.24
-1.33
-1.38
-1.49
-1.72
-2.09
-2.53
-2.96
-3.30
-3.53
-3.67
-3.78
-3.96
-4.25
-4.63
-5.01
-5.25
-5.18
-4.73
-3.93
-2.96
-2.02
-1.29
-0.81
-0.50
-0.22
0.12
0.54
0.96
1.31
1.59
1.86
2.24
2.75
3.34
3.84
4.07
3.93
3.42
2.74
2.10
1.69
1.53
1.56
1.61
1.57
1.42
1.22
1.03
0.89
0.74
0.51
0.16
-0.27
-0.65
-0.88
-0.93
-0.85
-0.79
-0.89
-1.25
-1.84
-2.60
-3.35
-3.93
-4.21
-4.17
-3.89
-3.55
-3.36
-3.47
-3.93
-4.64
-5.42
-6.07
-6.46
-6.52
-6.24
-5.65
-4.77
-3.61
-2.23
-0.75
0.71
1.99
3.01
3.71
4.12
4.30
4.34
4.33
4.36
4.49
4.74
5.05
5.30
5.41
5.35
5.15
4.91
4.72
4.62
4.58
4.51
4.36
4.13
3.84
3.54
3.21
2.84
2.41
1.97
1.59
1.35
1.27
1.28
1.25
1.08
0.73
0.27
-0.20
-0.60
-0.91
-1.18
-1.45
-1.75
-2.09
-2.44
-2.78
-3.09
-3.38
-3.68
-4.06
-4.56
-5.21
-5.96
-6.69
-7.18
-7.28
-6.89
-6.05
-4.88
-3.58
-2.30
-1.16
-0.21
0.55
1.16
1.67
2.12
2.52
2.85
3.10
3.25
3.32
3.33
3.31
3.27
3.21
3.11
2.98
2.81
2.57
2.23
1.76
1.21
0.65
0.16
-0.17
-0.37
-0.53
-0.75
-1.12
-1.61
-2.13
-2.55
-2.81
-2.94
-3.04
-3.22
-3.55
-4.01
-4.50
-4.92
-5.22
-5.39
-5.51
-5.69
-6.04
-6.62
-7.43
-8.35
-9.21
-9.80
-9.96
-9.63
-8.84
-7.73
-6.46
-5.12
-3.74
-2.28
-0.74
0.86
2.44
3.87
5.07
5.95
6.49
6.73
6.72
6.57
6.40
6.31
6.35
6.53
6.81
7.12
7.40
7.59
7.65
7.57
7.34
6.98
6.54
6.02
5.43
4.75
3.97
3.11
2.22
1.37
0.64
0.07
-0.33
-0.54
-0.58
-0.44
-0.15
0.21
0.54
0.69
0.57
0.13
-0.61
-1.53
-2.50
-3.38
-4.06
-4.50
-4.74
-4.87
-4.93
-4.95
-4.90
-4.72
-4.35
-3.78
-3.03
-2.16
-1.26
-0.39
0.41
1.14
1.81
2.42
2.92
3.26
3.40
3.37
3.26
3.21
3.31
3.55
3.86
4.13
4.28
4.30
4.24
4.13
3.97
3.71
3.32
2.86
2.43
2.14
2.05
2.12
2.19
2.13
1.86
1.43
0.96
0.58
0.35
0.22
0.14
0.02
-0.16
-0.38
-0.60
-0.77
-0.89
-0.98
-1.09
-1.24
-1.48
-1.82
-2.23
-2.67
-3.07
-3.43
-3.74
-4.03
-4.34
-4.65
-4.89
-5.00
-4.95
-4.75
-4.44
-4.05
-3.58
-2.98
-2.21
-1.28
-0.24
0.78
1.63
2.19
2.41
2.31
2.00
1.63
1.34
1.22
1.29
1.54
1.92
2.39
2.91
3.42
3.87
4.17
4.23
3.97
3.36
2.42
1.25
0.01
-1.13
-2.04
-2.63
-2.91
-2.93
-2.76
-2.45
-2.04
-1.56
-1.11
-0.82
-0.84
-1.25
-2.00
-2.95
-3.87
-4.63
-5.17
-5.58
-5.97
-6.42
-6.92
-7.41
-7.86
-8.23
-8.56
-8.88
-9.17
-9.33
-9.22
-8.75
-7.87
-6.68
-5.29
-3.90
-2.67
-1.71
-1.07
-0.67
-0.37
0.01
0.61
1.47
2.52
3.63
4.67
5.57
6.35
7.02
7.59
8.03
8.30
8.41
8.42
8.40
8.43
8.47
8.44
8.21
7.70
6.90
5.90
4.86
3.93
3.22
2.80
2.64
2.65
2.74
2.80
2.76
2.62
2.39
2.08
1.70
1.22
0.63
-0.07
-0.83
-1.54
-2.07
-2.35
-2.37
-2.24
-2.10
-2.10
-2.33
-2.76
-3.31
-3.87
-4.33
-4.66
-4.87
-4.96
-4.94
-4.76
-4.33
-3.57
-2.46
-1.10
0.36
1.70
2.71
3.27
3.42
3.29
3.10
3.05
3.26
3.68
4.17
4.55
4.72
4.66
4.46
4.23
4.01
3.77
3.40
2.86
2.19
1.54
1.11
1.00
1.19
1.53
1.84
1.95
1.82
1.48
0.98
0.41
-0.18
-0.72
-1.12
-1.31
-1.26
-1.03
-0.75
-0.54
-0.51
-0.67
-0.99
-1.41
-1.89
-2.42
-2.98
-3.59
-4.25
-4.93
-5.61
-6.26
-6.83
-7.27
-7.51
-7.48
-7.16
-6.57
-5.79
-4.94
-4.12
-3.38
-2.68
-1.94
-1.14
-0.31
0.42
0.91
1.11
1.10
1.06
1.13
1.40
1.75
2.04
2.08
1.84
1.40
0.98
0.78
0.95
1.45
2.08
2.57
2.73
2.50
2.05
1.71
1.81
2.58
4.06
6.09
8.45
10.90
13.19
15.04
16.15
16.25
15.23
13.33
11.09
9.31
8.69
9.60
11.82
14.66
17.16
18.54
18.45
17.03
14.78
12.28
9.97
8.12
6.96
6.65
7.33
8.92
11.05
13.11
14.47
14.78
14.21
13.44
13.43
15.15
19.12
25.18
32.17
38.04
40.43
37.47
28.83
16.06
2.16
-9.62
-17.17
-20.22
-20.15
-18.96
-18.17
-18.33
-19.31
-20.95
-23.61
-28.04
-34.74
-43.36
-52.50
-60.15
-64.53
-64.82
-61.33
-55.30
-48.23
-41.34
-35.19
-29.71
-24.47
-19.05
-13.33
-7.53
-2.15
2.27
5.36
6.96
7.15
6.19
4.47
2.52
0.89
0.04
0.25
1.48
3.42
5.56
7.46
8.83
9.61
9.97
10.14
10.36
10.86
11.81
13.39
15.72
18.78
22.38
26.11
29.45
31.96
33.37
33.76
33.42
32.72
31.93
31.08
30.05
28.63
26.68
24.18
21.29
18.22
15.23
12.51
10.22
8.36
6.86
5.54
4.23
2.81
1.29
-0.23
-1.57
-2.61
-3.30
-3.74
-4.08
-4.49
-5.10
-5.93
-6.93
-7.92
-8.71
-9.08
-8.95
-8.34
-7.35
-6.15
-4.85
-3.51
-2.18
-0.93
0.14
0.89
1.20
1.11
0.75
0.32
0.06
0.07
0.38
0.89
1.49
2.03
2.38
2.46
2.26
1.88
1.46
1.18
1.17
1.45
1.93
2.49
3.01
3.44
3.88
4.48
5.37
6.63
8.19
9.85
11.42
12.74
13.83
14.83
16.01
17.63
19.84
22.61
25.71
28.73
31.14
32.37
31.85
29.15
24.13
17.05
8.55
-0.45
-9.03
-16.50
-22.63
-27.62
-31.91
-35.90
-39.79
-43.42
-46.37
-48.21
-48.75
-48.18
-47.08
-46.29
-46.63
-48.71
-52.71
-58.30
-64.70
-70.86
-75.58
-77.80
-76.74
-72.10
-64.25
-54.31
-43.91
-34.72
-27.84
-23.34
-20.35
-17.54
-13.76
-8.64
-2.49
4.04
10.54
17.06
23.86
30.89
37.53
42.72
45.55
45.86
44.49
42.95
42.85
45.24
50.21
56.88
63.59
68.35
69.36
65.51
56.70
43.85
28.65
12.96
-1.65
-14.19
-24.28
-31.90
-37.26
-40.70
-42.70
-43.86
-44.79
-45.91
-47.28
-48.70
-49.76
-50.09
-49.47
-47.87
-45.38
-42.11
-38.20
-33.71
-28.66
-23.04
-16.84
-10.13
-3.17
3.53
9.24
13.27
15.20
15.10
13.56
11.43
9.51
8.24
7.58
7.18
6.59
5.54
3.95
1.89
-0.54
-3.31
-6.36
-9.59
-12.79
-15.67
-17.99
-19.62
-20.60
-21.07
-21.25
-21.31
-21.34
-21.33
-21.20
-20.85
-20.24
-19.44
-18.63
-18.03
-17.76
-17.80
-17.95
-17.93
-17.45
-16.33
-14.49
-12.00
-9.03
-5.83
-2.65
0.27
2.76
4.76
6.27
7.37
8.17
8.78
9.32
9.92
10.70
11.73
12.99
14.43
15.91
17.27
18.38
19.13
19.52
19.61
19.53
19.40
19.28
19.14
18.86
18.33
17.48
16.33
14.98
13.56
12.14
10.76
9.36
7.93
6.52
5.24
4.19
3.41
2.82
2.23
1.43
0.33
-0.97
-2.17
-2.93
-2.95
-2.15
-0.64
1.36
3.64
6.05
8.51
10.92
13.09
14.81
15.85
16.09
15.59
14.59
13.42
12.44
11.90
11.88
12.29
12.90
13.47
13.80
13.80
13.48
12.90
12.13
11.18
10.10
8.93
7.80
6.88
6.31
6.07
6.02
5.94
5.60
4.91
3.90
2.69
1.42
0.18
-1.02
-2.21
-3.44
-4.80
-6.33
-7.99
-9.64
-11.01
-11.77
-11.61
-10.38
-8.16
-5.22
-1.92
1.40
4.54
7.35
9.76
11.64
12.85
13.32
13.06
12.27
11.24
10.26
9.57
9.24
9.23
9.41
9.61
9.70
9.61
9.33
8.90
8.36
7.74
7.06
6.31
5.54
4.80
4.17
3.65
3.20
2.70
2.02
1.11
0.02
-1.11
-2.13
-2.98
-3.68
-4.36
-5.19
-6.28
-7.69
-9.33
-11.04
-12.52
-13.49
-13.68
-12.98
-11.38
-9.06
-6.26
-3.27
-0.35
2.33
4.64
6.53
7.95
8.93
9.47
9.63
9.46
9.02
8.42
7.77
7.20
6.78
6.50
6.30
6.10
5.87
5.63
5.47
5.42
5.49
5.53
5.39
4.90
4.04
2.91
1.70
0.63
-0.20
-0.80
-1.34
-1.98
-2.88
-4.03
-5.36
-6.74
-8.06
-9.25
-10.30
-11.15
-11.70
-11.78
-11.23
-9.97
-8.02
-5.60
-2.96
-0.38
1.95
3.93
5.56
6.86
7.85
8.51
8.82
8.74
8.29
7.54
6.60
5.62
4.76
4.11
3.73
3.54
3.42
3.26
2.96
2.57
2.14
1.76
1.45
1.16
0.82
0.35
-0.25
-0.91
-1.55
-2.13
-2.66
-3.21
-3.86
-4.68
-5.65
-6.71
-7.81
-8.87
-9.87
-10.74
-11.39
-11.66
-11.37
-10.38
-8.68
-6.36
-3.68
-0.93
1.59
3.67
5.17
6.09
6.49
6.48
6.17
5.63
4.93
4.15
3.37
2.72
2.27
2.06
2.04
2.11
2.16
2.13
2.02
1.86
1.70
1.53
1.32
0.98
0.42
-0.38
-1.35
-2.37
-3.26
-3.94
-4.42
-4.80
-5.24
-5.85
-6.65
-7.62
-8.68
-9.73
-10.65
-11.24
-11.31
-10.70
-9.35
-7.37
-4.99
-2.48
-0.04
2.18
4.10
5.64
6.72
7.24
7.19
6.66
5.83
4.91
4.05
3.34
2.77
2.31
1.93
1.60
1.35
1.19
1.10
1.05
0.98
0.81
0.46
-0.08
-0.78
-1.58
-2.38
-3.10
-3.73
-4.25
-4.71
-5.15
-5.60
-6.12
-6.76
-7.59
-8.61
-9.74
-10.83
-11.63
-11.92
-11.53
-10.45
-8.75
-6.62
-4.25
-1.84
0.41
2.30
3.70
4.58
4.96
4.94
4.61
4.04
3.26
2.33
1.37
0.55
0.01
-0.21
-0.17
-0.04
0.06
0.08
0.08
0.12
0.24
0.34
0.27
-0.10
-0.78
-1.68
-2.56
-3.22
-3.56
-3.61
-3.53
-3.50
-3.66
-4.05
-4.63
-5.30
-5.91
-6.33
-6.39
-5.96
-4.98
-3.44
-1.45
0.81
3.09
5.15
6.84
8.05
8.77
9.04
8.93
8.53
7.90
7.12
6.23
5.31
4.43
3.67
3.08
2.67
2.41
2.23
2.03
1.73
1.31
0.76
0.11
-0.56
-1.23
-1.84
-2.41
-2.89
-3.29
-3.63
-3.95
-4.36
-4.98
-5.89
-7.04
-8.23
-9.15
-9.50
-9.05
-7.76
-5.79
-3.39
-0.86
1.56
3.69
5.46
6.84
7.84
8.47
8.70
8.54
7.98
7.09
5.97
4.78
3.65
2.70
2.01
1.59
1.44
1.51
1.68
1.82
1.78
1.50
1.00
0.37
-0.28
-0.90
-1.50
-2.11
-2.78
-3.48
-4.18
-4.88
-5.70
-6.76
-8.13
-9.68
-11.07
-11.80
-11.49
-10.00
-7.53
-4.52
-1.45
1.33
3.70
5.71
7.44
8.88
9.95
10.50
10.45
9.87
8.91
7.80
6.73
5.82
5.11
4.62
4.32
4.18
4.18
4.26
4.36
4.41
4.37
4.25
4.06
3.82
3.50
3.07
2.49
1.79
1.02
0.26
-0.45
-1.14
-1.88
-2.75
-3.80
-4.96
-6.12
-7.11
-7.75
-7.89
-7.43
-6.33
-4.63
-2.46
-0.05
2.33
4.44
6.14
7.35
8.05
8.26
7.98
7.24
6.14
4.87
3.72
2.90
2.56
2.65
3.01
3.43
3.73
3.82
3.72
3.46
3.08
2.59
2.02
1.40
0.82
0.35
0.03
-0.18
-0.39
-0.71
-1.22
-1.93
-2.81
-3.79
-4.78
-5.68
-6.37
-6.67
-6.46
-5.65
-4.27
-2.48
-0.53
1.34
2.93
4.16
5.04
5.61
5.92
5.97
5.77
5.32
4.67
3.92
3.19
2.60
2.20
1.98
1.86
1.73
1.55
1.35
1.21
1.18
1.25
1.32
1.24
0.91
0.33
-0.41
-1.16
-1.78
-2.23
-2.51
-2.72
-2.97
-3.34
-3.90
-4.66
-5.56
-6.47
-7.22
-7.54
-7.22
-6.13
-4.32
-2.06
0.31
2.41
4.07
5.23
6.02
6.54
6.82
6.78
6.34
5.50
4.42
3.37
2.63
2.30
2.31
2.43
2.42
2.16
1.73
1.29
1.05
1.06
1.25
1.42
1.38
1.04
0.45
-0.26
-0.97
-1.57
-2.03
-2.38
-2.69
-3.05
-3.54
-4.23
-5.15
-6.21
-7.26
-8.07
-8.40
-8.11
-7.14
-5.58
-3.60
-1.44
0.63
2.40
3.73
4.59
5.03
5.14
5.02
4.72
4.26
3.68
3.05
2.48
2.09
1.96
2.09
2.42
2.81
3.12
3.24
3.09
2.67
2.04
1.30
0.59
0.03
-0.35
-0.55
-0.71
-0.93
-1.30
-1.80
-2.35
-2.85
-3.29
-3.70
-4.14
-4.65
-5.20
-5.69
-5.99
-6.00
-5.67
-5.00
-4.04
-2.87
-1.52
-0.08
1.38
2.73
3.83
4.56
4.84
4.70
4.26
3.69
3.17
2.83
2.69
2.68
2.73
2.78
2.84
2.93
3.06
3.16
3.16
2.98
2.59
2.04
1.39
0.72
0.06
-0.61
-1.28
-1.93
-2.53
-3.06
-3.51
-3.89
-4.24
-4.62
-5.04
-5.50
-5.94
-6.28
-6.37
-6.06
-5.28
-4.02
-2.41
-0.69
0.90
2.16
3.03
3.50
3.61
3.40
2.89
2.13
1.26
0.51
0.08
0.11
0.55
1.20
1.77
2.04
1.93
1.53
1.04
0.63
0.41
0.34
0.32
0.23
-0.01
-0.40
-0.89
-1.39
-1.84
-2.19
-2.43
-2.59
-2.65
-2.64
-2.60
-2.64
-2.87
-3.35
-4.05
-4.79
-5.31
-5.34
-4.73
-3.48
-1.77
0.13
1.95
3.51
4.66
5.34
5.56
5.36
4.86
4.21
3.54
2.99
2.59
2.35
2.24
2.23
2.27
2.31
2.35
2.42
2.58
2.94
3.53
4.31
5.09
5.66
5.88
5.73
5.33
4.88
4.56
4.45
4.49
4.56
4.49
4.15
3.44
2.32
0.80
-1.05
-3.01
-4.80
-6.05
-6.49
-6.04
-4.90
-3.47
-2.25
-1.59
-1.59
-2.03
-2.50
-2.52
-1.76
-0.13
2.24
4.94
7.48
9.30
9.94
9.13
6.89
3.56
-0.27
-3.84
-6.48
-7.71
-7.40
-5.82
-3.51
-1.13
0.73
1.72
1.75
1.00
-0.26
-1.76
-3.29
-4.77
-6.16
-7.43
-8.48
-9.19
-9.41
-9.06
-8.14
-6.74
-5.02
-3.18
-1.38
0.23
1.54
2.52
3.19
3.60
3.81
3.85
3.71
3.31
2.66
1.81
0.95
0.29
-0.01
0.08
0.46
0.93
1.31
1.47
1.39
1.07
0.57
-0.07
-0.78
-1.48
-2.08
-2.51
-2.70
-2.69
-2.51
-2.26
-2.03
-1.88
-1.89
-2.07
-2.41
-2.87
-3.31
-3.57
-3.48
-2.93
-1.93
-0.64
0.64
1.62
2.10
2.08
1.75
1.42
1.35
1.62
2.19
2.86
3.46
3.88
4.12
4.24
4.28
4.27
4.18
4.03
3.87
3.73
3.62
3.49
3.24
2.79
2.11
1.26
0.38
-0.41
-1.02
-1.43
-1.64
-1.74
-1.79
-1.85
-1.97
-2.18
-2.40
-2.57
-2.55
-2.30
-1.81
-1.19
-0.56
-0.02
0.39
0.70
0.95
1.15
1.30
1.37
1.36
1.35
1.38
1.50
1.71
1.94
2.13
2.25
2.31
2.31
2.23
2.04
1.71
1.25
0.74
0.31
0.08
0.08
0.26
0.45
0.46
0.19
-0.38
-1.13
-1.88
-2.45
-2.71
-2.68
-2.44
-2.13
-1.86
-1.66
-1.46
-1.14
-0.56
0.34
1.55
2.95
4.35
5.52
6.23
6.36
5.90
4.97
3.82
2.71
1.87
1.41
1.30
1.38
1.52
1.63
1.70
1.78
1.91
2.11
2.32
2.49
2.57
2.52
2.32
1.94
1.40
0.77
0.13
-0.43
-0.84
-1.10
-1.28
-1.48
-1.80
-2.25
-2.76
-3.20
-3.45
-3.42
-3.10
-2.55
-1.83
-1.01
-0.13
0.74
1.53
2.15
2.52
2.64
2.58
2.42
2.25
2.09
1.90
1.64
1.30
0.94
0.64
0.48
0.48
0.62
0.82
1.01
1.14
1.20
1.18
1.10
0.99
0.84
0.70
0.60
0.58
0.63
0.73
0.79
0.74
0.53
0.17
-0.31
-0.86
-1.45
-2.05
-2.61
-3.03
-3.18
-2.93
-2.26
-1.23
-0.02
1.14
2.07
2.63
2.81
2.64
2.22
1.65
1.04
0.49
0.11
-0.02
0.14
0.54
1.04
1.42
1.57
1.43
1.12
0.82
0.67
0.70
0.83
0.92
0.85
0.63
0.31
0.00
-0.29
-0.60
-1.00
-1.50
-2.02
-2.41
-2.56
-2.46
-2.19
-1.90
-1.71
-1.63
-1.58
-1.44
-1.12
-0.57
0.17
1.00
1.82
2.49
2.91
3.01
2.78
2.29
1.67
1.08
0.66
0.49
0.55
0.76
1.00
1.18
1.25
1.22
1.13
1.00
0.85
0.68
0.50
0.32
0.21
0.19
0.25
0.31
0.26
0.05
-0.31
-0.76
-1.18
-1.54
-1.80
-1.99
-2.09
-2.12
-2.05
-1.92
-1.77
-1.66
-1.57
-1.43
-1.12
-0.57
0.15
0.92
1.55
1.96
2.17
2.26
2.31
2.29
2.14
1.81
1.31
0.78
0.35
0.11
0.07
0.14
0.27
0.41
0.57
0.74
0.89
0.96
0.88
0.65
0.30
-0.09
-0.45
-0.70
-0.81
-0.76
-0.56
-0.29
-0.06
-0.03
-0.29
-0.81
-1.48
-2.09
-2.50
-2.65
-2.57
-2.36
-2.09
-1.79
-1.42
-0.94
-0.35
0.30
0.95
1.47
1.81
1.95
1.91
1.75
1.51
1.20
0.83
0.45
0.10
-0.11
-0.10
0.11
0.46
0.81
1.02
1.01
0.80
0.49
0.24
0.11
0.14
0.26
0.36
0.33
0.14
-0.21
-0.64
-1.06
-1.39
-1.63
-1.83
-2.02
-2.21
-2.37
-2.45
-2.42
-2.29
-2.09
-1.83
-1.49
-1.02
-0.40
0.36
1.13
1.75
2.10
2.09
1.77
1.25
0.71
0.26
-0.01
-0.12
-0.10
-0.01
0.10
0.22
0.34
0.46
0.53
0.53
0.46
0.31
0.17
0.09
0.11
0.18
0.25
0.23
0.07
-0.23
-0.58
-0.89
-1.13
-1.28
-1.42
-1.61
-1.88
-2.20
-2.50
-2.71
-2.78
-2.70
-2.49
-2.14
-1.67
-1.10
-0.49
0.07
0.49
0.72
0.79
0.73
0.57
0.32
-0.04
-0.48
-0.92
-1.21
-1.21
-0.91
-0.40
0.14
0.49
0.59
0.46
0.23
0.06
-0.01
-0.03
-0.11
-0.31
-0.60
-0.84
-0.92
-0.79
-0.56
-0.39
-0.41
-0.63
-0.95
-1.21
-1.31
-1.26
-1.18
-1.19
-1.35
-1.59
-1.79
-1.79
-1.53
-1.01
-0.34
0.33
0.87
1.18
1.27
1.19
1.05
0.90
0.77
0.60
0.33
-0.08
-0.57
-1.04
-1.34
-1.39
-1.19
-0.85
-0.50
-0.23
-0.05
0.10
0.27
0.50
0.74
0.89
0.82
0.48
-0.08
-0.72
-1.27
-1.59
-1.65
-1.50
-1.28
-1.10
-1.02
-1.04
-1.12
-1.19
-1.23
-1.20
-1.07
-0.82
-0.42
0.13
0.78
1.44
2.00
2.37
2.49
2.39
2.13
1.82
1.56
1.39
1.32
1.31
1.30
1.26
1.15
0.99
0.81
0.62
0.46
0.33
0.24
0.16
0.06
-0.07
-0.23
-0.40
-0.60
-0.80
-0.99
-1.18
-1.35
-1.48
-1.56
-1.56
-1.45
-1.22
-0.85
-0.33
0.28
0.92
1.46
1.79
1.86
1.68
1.35
1.00
0.74
0.66
0.76
0.97
1.19
1.29
1.19
0.91
0.52
0.18
-0.00
0.02
0.22
0.49
0.73
0.89
1.01
1.13
1.23
1.27
1.15
0.81
0.30
-0.27
-0.75
-1.01
-1.06
-0.98
-0.93
-1.02
-1.28
-1.62
-1.87
-1.86
-1.55
-0.97
-0.26
0.42
1.01
1.50
1.93
2.31
2.59
2.65
2.42
1.91
1.24
0.58
0.10
-0.12
-0.09
0.09
0.31
0.49
0.63
0.72
0.80
0.87
0.89
0.81
0.56
0.16
-0.32
-0.74
-0.98
-0.94
-0.69
-0.31
0.03
0.21
0.18
-0.05
-0.43
-0.85
-1.18
-1.31
-1.17
-0.77
-0.23
0.30
0.69
0.89
0.95
0.98
1.02
1.06
0.98
0.68
0.16
-0.45
-0.94
-1.12
-0.96
-0.53
-0.03
0.35
0.52
0.50
0.37
0.21
0.08
-0.00
-0.04
-0.03
-0.01
0.01
-0.01
-0.08
-0.19
-0.30
-0.36
-0.36
-0.32
-0.30
-0.33
-0.41
-0.51
-0.62
-0.73
-0.80
-0.82
-0.71
-0.41
0.09
0.74
1.38
1.82
1.95
1.73
1.24
0.63
0.05
-0.42
-0.74
-0.96
-1.09
-1.15
-1.14
-1.04
-0.83
-0.57
-0.31
-0.15
-0.13
-0.27
-0.53
-0.82
-1.08
-1.30
-1.48
-1.68
-1.91
-2.16
-2.36
-2.43
-2.32
-2.04
-1.66
-1.24
-0.86
-0.53
-0.24
-0.02
0.11
0.11
-0.00
-0.16
-0.27
-0.25
-0.09
0.15
0.39
0.55
0.63
0.67
0.70
0.72
0.71
0.66
0.57
0.43
0.23
-0.06
-0.45
-0.90
-1.34
-1.64
-1.77
-1.72
-1.59
-1.48
-1.46
-1.53
-1.65
-1.78
-1.91
-2.03
-2.09
-2.04
-1.78
-1.31
-0.69
-0.07
0.43
0.74
0.88
0.91
0.88
0.81
0.63
0.32
-0.12
-0.59
-0.95
-1.10
-0.97
-0.61
-0.11
0.40
0.80
1.00
0.97
0.70
0.29
-0.18
-0.57
-0.78
-0.82
-0.73
-0.63
-0.62
-0.76
-1.04
-1.37
-1.65
-1.81
-1.82
-1.69
-1.48
-1.25
-1.04
-0.85
-0.64
-0.38
-0.04
0.36
0.76
1.10
1.29
1.30
1.14
0.86
0.54
0.26
0.09
0.08
0.22
0.46
0.73
0.95
1.08
1.11
1.07
0.98
0.84
0.63
0.34
-0.02
-0.38
-0.70
-0.90
-0.96
-0.89
-0.73
-0.56
-0.46
-0.50
-0.71
-1.02
-1.27
-1.28
-0.94
-0.25
0.64
1.50
2.11
2.38
2.33
2.07
1.72
1.35
0.97
0.59
0.21
-0.10
-0.27
-0.25
-0.03
0.29
0.59
0.77
0.77
0.63
0.45
0.29
0.18
0.07
-0.09
-0.33
-0.61
-0.86
-1.01
-1.08
-1.10
-1.13
-1.15
-1.11
-0.95
-0.64
-0.20
0.33
0.89
1.44
1.95
2.40
2.74
2.91
2.87
2.58
2.08
1.42
0.74
0.16
-0.21
-0.34
-0.28
-0.17
-0.07
0.01
0.13
0.37
0.70
0.98
1.02
0.71
0.06
-0.73
-1.43
-1.87
-2.01
-1.95
-1.84
-1.75
-1.66
-1.53
-1.30
-0.99
-0.69
-0.48
-0.40
-0.40
-0.34
-0.12
0.36
1.07
1.85
2.52
2.89
2.86
2.46
1.84
1.18
0.65
0.37
0.33
0.47
0.64
0.76
0.77
0.72
0.68
0.72
0.85
0.97
1.00
0.89
0.65
0.38
0.15
-0.02
-0.20
-0.46
-0.82
-1.19
-1.43
-1.47
-1.31
-1.07
-0.87
-0.79
-0.79
-0.76
-0.61
-0.27
0.21
0.74
1.21
1.53
1.63
1.53
1.27
0.92
0.57
0.30
0.14
0.06
0.01
-0.04
-0.09
-0.11
-0.07
0.07
0.30
0.58
0.86
1.09
1.20
1.17
0.98
0.68
0.35
0.07
-0.10
-0.17
-0.17
-0.16
-0.15
-0.12
-0.06
0.05
0.12
0.08
-0.11
-0.41
-0.70
-0.85
-0.78
-0.50
-0.12
0.25
0.52
0.65
0.64
0.49
0.24
-0.08
-0.38
-0.56
-0.55
-0.31
0.14
0.75
1.43
2.09
2.60
2.87
2.84
2.53
2.01
1.37
0.69
-0.01
-0.74
-1.47
-2.12
-2.60
-2.87
-2.96
-3.00
-3.08
-3.25
-3.51
-3.77
-3.96
-4.03
-3.99
-3.83
-3.59
-3.27
-2.88
-2.43
-1.95
-1.49
-1.06
-0.69
-0.36
-0.04
0.31
0.73
1.18
1.58
1.85
1.92
1.82
1.61
1.40
1.29
1.31
1.45
1.68
1.94
2.15
2.24
2.14
1.81
1.28
0.60
-0.12
-0.79
-1.35
-1.78
-2.10
-2.39
-2.70
-3.08
-3.51
-3.89
-4.13
-4.14
-3.91
-3.49
-2.96
-2.39
-1.80
-1.21
-0.66
-0.20
0.08
0.18
0.15
0.09
0.12
0.25
0.43
0.58
0.63
0.63
0.64
0.77
1.05
1.44
1.83
2.17
2.39
2.52
2.56
2.51
2.31
1.94
1.39
0.75
0.15
-0.27
-0.42
-0.32
-0.03
0.29
0.55
0.64
0.51
0.16
-0.38
-1.08
-1.85
-2.59
-3.23
-3.64
-3.79
-3.64
-3.22
-2.59
-1.82
-0.99
-0.21
0.43
0.85
1.01
0.93
0.69
0.41
0.21
0.14
0.21
0.39
0.60
0.80
0.98
1.10
1.16
1.13
0.97
0.72
0.42
0.20
0.18
0.39
0.80
1.26
1.62
1.75
1.62
1.30
0.88
0.48
0.14
-0.11
-0.25
-0.29
-0.26
-0.20
-0.20
-0.32
-0.58
-0.91
-1.19
-1.32
-1.29
-1.16
-0.98
-0.84
-0.74
-0.67
-0.60
-0.52
-0.43
-0.33
-0.19
-0.02
0.18
0.37
0.47
0.47
0.37
0.23
0.14
0.17
0.38
0.75
1.19
1.55
1.69
1.55
1.17
0.72
0.36
0.21
0.26
0.41
0.55
0.61
0.63
0.68
0.79
0.91
0.95
0.81
0.46
-0.05
-0.61
-1.16
-1.63
-2.03
-2.40
-2.71
-2.91
-2.92
-2.63
-2.03
-1.16
-0.20
0.64
1.18
1.30
1.02
0.47
-0.21
-0.85
-1.35
-1.66
-1.78
-1.70
-1.40
-0.88
-0.17
0.63
1.43
2.11
2.58
2.83
2.88
2.75
2.47
2.04
1.46
0.76
0.03
-0.56
-0.85
-0.76
-0.35
0.21
0.67
0.88
0.77
0.42
-0.03
-0.47
-0.84
-1.10
-1.22
-1.15
-0.84
-0.32
0.33
0.95
1.38
1.56
1.47
1.21
0.86
0.52
0.22
-0.01
-0.18
-0.31
-0.41
-0.48
-0.51
-0.48
-0.39
-0.25
-0.12
-0.05
-0.07
-0.14
-0.21
-0.21
-0.13
-0.01
0.08
0.03
-0.17
-0.49
-0.84
-1.12
-1.27
-1.31
-1.29
-1.28
-1.32
-1.38
-1.39
-1.29
-1.01
-0.56
-0.00
0.59
1.11
1.46
1.59
1.46
1.09
0.56
-0.02
-0.50
-0.79
-0.87
-0.75
-0.53
-0.30
-0.12
-0.04
-0.04
-0.11
-0.24
-0.39
-0.54
-0.69
-0.81
-0.90
-0.96
-0.98
-0.98
-0.95
-0.88
-0.78
-0.63
-0.43
-0.20
0.01
0.12
0.08
-0.17
-0.64
-1.27
-1.95
-2.50
-2.78
-2.68
-2.23
-1.53
-0.78
-0.16
0.21
0.36
0.37
0.38
0.47
0.67
0.94
1.22
1.44
1.58
1.61
1.53
1.35
1.13
0.88
0.64
0.40
0.17
-0.06
-0.25
-0.38
-0.41
-0.38
-0.36
-0.45
-0.69
-1.09
-1.57
-2.02
-2.39
-2.68
-2.91
-3.16
-3.42
-3.68
-3.86
-3.93
-3.90
-3.81
-3.70
-3.57
-3.33
-2.87
-2.15
-1.20
-0.20
0.69
1.33
1.71
1.93
2.09
2.30
2.54
2.77
2.93
2.98
2.93
2.79
2.55
2.19
1.75
1.28
0.94
0.87
1.14
1.69
2.32
2.83
3.05
2.93
2.55
2.08
1.67
1.42
1.31
1.26
1.14
0.89
0.52
0.12
-0.16
-0.19
0.11
0.69
1.45
2.21
2.83
3.20
3.29
3.14
2.85
2.50
2.18
1.91
1.66
1.36
0.97
0.48
-0.00
-0.36
-0.49
-0.37
-0.06
0.26
0.41
0.27
-0.19
-0.86
-1.55
-2.09
-2.34
-2.34
-2.19
-2.00
-1.82
-1.65
-1.43
-1.16
-0.91
-0.82
-0.95
-1.26
-1.63
-1.85
-1.82
-1.51
-1.02
-0.46
0.11
0.63
1.07
1.40
1.58
1.59
1.46
1.27
1.08
0.92
0.75
0.51
0.19
-0.17
-0.46
-0.56
-0.42
-0.06
0.43
0.91
1.29
1.51
1.59
1.54
1.36
1.03
0.53
-0.09
-0.73
-1.26
-1.57
-1.65
-1.57
-1.44
-1.34
-1.29
-1.25
-1.17
-1.05
-0.91
-0.79
-0.68
-0.55
-0.34
-0.03
0.36
0.71
0.92
0.96
0.86
0.73
0.69
0.79
0.98
1.18
1.27
1.20
1.00
0.74
0.51
0.34
0.21
0.09
-0.05
-0.19
-0.26
-0.21
-0.03
0.18
0.29
0.20
-0.10
-0.52
-0.93
-1.20
-1.26
-1.16
-0.94
-0.68
-0.43
-0.19
0.01
0.15
0.22
0.26
0.31
0.46
0.73
1.06
1.37
1.54
1.51
1.31
0.98
0.56
0.10
-0.37
-0.81
-1.16
-1.35
-1.35
-1.18
-0.90
-0.57
-0.25
0.02
0.20
0.26
0.16
-0.14
-0.58
-1.07
-1.52
-1.84
-2.01
-2.06
-2.06
-2.02
-1.95
-1.82
-1.69
-1.59
-1.59
-1.68
-1.77
-1.68
-1.30
-0.63
0.21
0.99
1.56
1.87
1.99
2.02
1.99
1.85
1.47
0.83
0.00
-0.79
-1.31
-1.42
-1.17
-0.74
-0.37
-0.23
-0.35
-0.68
-1.10
-1.51
-1.88
-2.22
-2.54
-2.81
-3.02
-3.13
-3.17
-3.20
-3.32
-3.58
-3.97
-4.39
-4.70
-4.76
-4.48
-3.84
-2.90
-1.77
-0.59
0.50
1.41
2.10
2.59
2.96
3.30
3.65
4.02
4.38
4.66
4.80
4.77
4.55
4.19
3.75
3.30
2.94
2.74
2.71
2.81
2.95
3.02
2.92
2.60
2.07
1.37
0.61
-0.10
-0.64
-0.97
-1.08
-1.08
-1.07
-1.14
-1.32
-1.53
-1.66
-1.58
-1.21
-0.55
0.31
1.18
1.88
2.28
2.36
2.16
1.83
1.47
1.17
0.94
0.77
0.66
0.62
0.65
0.73
0.77
0.74
0.60
0.42
0.29
0.27
0.34
0.38
0.26
-0.08
-0.59
-1.12
-1.53
-1.76
-1.86
-1.95
-2.09
-2.28
-2.41
-2.35
-2.05
-1.55
-0.99
-0.56
-0.33
-0.30
-0.33
-0.27
0.00
0.51
1.17
1.82
2.29
2.50
2.47
2.28
2.04
1.81
1.63
1.46
1.28
1.13
1.04
1.09
1.32
1.71
2.15
2.51
2.69
2.65
2.42
2.05
1.58
1.03
0.39
-0.31
-0.99
-1.56
-1.94
-2.11
-2.08
-1.95
-1.81
-1.73
-1.74
-1.85
-2.02
-2.17
-2.24
-2.14
-1.82
-1.31
-0.68
-0.01
0.56
0.94
1.07
0.96
0.64
0.21
-0.22
-0.55
-0.75
-0.82
-0.80
-0.71
-0.54
-0.25
0.15
0.59
0.96
1.14
1.05
0.75
0.33
-0.05
-0.33
-0.52
-0.70
-0.94
-1.27
-1.63
-1.92
-2.06
-2.03
-1.90
-1.77
-1.70
-1.70
-1.69
-1.58
-1.29
-0.82
-0.24
0.36
0.89
1.33
1.68
1.96
2.21
2.41
2.55
2.60
2.55
2.41
2.24
2.08
1.98
1.96
2.01
2.11
2.23
2.30
2.25
2.03
1.65
1.14
0.60
0.12
-0.27
-0.58
-0.88
-1.22
-1.63
-2.08
-2.48
-2.77
-2.92
-2.95
-2.93
-2.93
-2.96
-2.97
-2.89
-2.66
-2.24
-1.68
-1.04
-0.45
0.04
0.42
0.72
0.99
1.24
1.42
1.50
1.46
1.32
1.14
0.97
0.83
0.72
0.61
0.50
0.39
0.30
0.26
0.22
0.14
-0.02
-0.25
-0.54
-0.82
-1.06
-1.26
-1.45
-1.68
-1.94
-2.18
-2.32
-2.35
-2.29
-2.26
-2.39
-2.75
-3.25
-3.74
-4.03
-4.00
-3.68
-3.17
-2.59
-1.97
-1.25
-0.35
0.74
1.89
2.87
3.47
3.59
3.35
2.98
2.71
2.69
2.89
3.19
3.45
3.57
3.57
3.49
3.36
3.20
3.00
2.77
2.53
2.29
2.02
1.66
1.18
0.61
0.05
-0.37
-0.56
-0.54
-0.41
-0.32
-0.33
-0.43
-0.52
-0.51
-0.37
-0.18
-0.04
0.00
-0.02
-0.00
0.16
0.50
0.97
1.43
1.77
1.93
1.90
1.75
1.53
1.29
1.04
0.77
0.46
0.12
-0.22
-0.51
-0.73
-0.86
-0.92
-0.91
-0.82
-0.62
-0.33
-0.01
0.23
0.23
-0.09
-0.68
-1.39
-1.98
-2.27
-2.19
-1.82
-1.33
-0.89
-0.60
-0.47
-0.47
-0.55
-0.63
-0.70
-0.69
-0.56
-0.28
0.14
0.65
1.16
1.57
1.82
1.87
1.77
1.54
1.27
0.98
0.71
0.44
0.17
-0.11
-0.37
-0.57
-0.66
-0.65
-0.57
-0.49
-0.48
-0.53
-0.62
-0.71
-0.83
-1.00
-1.24
-1.49
-1.68
-1.70
-1.53
-1.20
-0.82
-0.50
-0.31
-0.27
-0.38
-0.60
-0.88
-1.14
-1.30
-1.24
-0.88
-0.23
0.62
1.50
2.22
2.68
2.82
2.70
2.41
2.04
1.67
1.33
1.03
0.76
0.51
0.29
0.11
-0.02
-0.13
-0.23
-0.37
-0.55
-0.75
-0.92
-0.99
-0.92
-0.69
-0.38
-0.06
0.14
0.19
0.06
-0.18
-0.44
-0.66
-0.78
-0.81
-0.78
-0.74
-0.71
-0.67
-0.58
-0.38
-0.07
0.30
0.62
0.76
0.66
0.36
-0.02
-0.29
-0.35
-0.19
0.10
0.39
0.58
0.69
0.83
1.12
1.62
2.22
2.75
2.96
2.76
2.16
1.29
0.36
-0.46
-1.04
-1.35
-1.34
-1.04
-0.52
0.15
0.86
1.47
1.88
2.02
1.85
1.38
0.67
-0.18
-1.07
-1.89
-2.55
-2.99
-3.16
-3.05
-2.66
-2.09
-1.45
-0.87
-0.42
-0.10
0.17
0.43
0.70
0.91
0.98
0.84
0.55
0.19
-0.08
-0.19
-0.13
0.01
0.13
0.16
0.11
0.03
0.03
0.12
0.31
0.53
0.70
0.78
0.73
0.56
0.30
0.00
-0.30
-0.57
-0.76
-0.88
-0.92
-0.90
-0.79
-0.58
-0.30
-0.01
0.19
0.19
-0.06
-0.54
-1.15
-1.75
-2.20
-2.38
-2.22
-1.72
-1.01
-0.26
0.33
0.62
0.58
0.29
-0.12
-0.49
-0.72
-0.76
-0.61
-0.31
0.10
0.56
1.02
1.43
1.73
1.83
1.64
1.15
0.45
-0.29
-0.83
-1.05
-0.91
-0.56
-0.16
0.15
0.34
0.47
0.61
0.79
0.94
0.92
0.64
0.03
-0.83
-1.85
-2.86
-3.74
-4.39
-4.71
-4.67
-4.23
-3.43
-2.38
-1.22
-0.12
0.77
1.38
1.69
1.73
1.55
1.21
0.78
0.30
-0.15
-0.52
-0.71
-0.68
-0.41
0.08
0.65
1.17
1.47
1.49
1.23
0.80
0.33
-0.09
-0.43
-0.70
-0.90
-1.06
-1.20
-1.34
-1.55
-1.88
-2.33
-2.84
-3.36
-3.80
-4.12
-4.33
-4.44
-4.43
-4.26
-3.88
-3.25
-2.39
-1.39
-0.37
0.56
1.33
1.91
2.33
2.61
2.77
2.82
2.76
2.65
2.55
2.53
2.63
2.84
3.09
3.29
3.38
3.35
3.21
3.01
2.78
2.50
2.18
1.84
1.54
1.36
1.32
1.41
1.52
1.54
1.37
0.99
0.47
-0.09
-0.53
-0.72
-0.60
-0.20
0.35
0.87
1.21
1.30
1.19
0.98
0.78
0.63
0.50
0.35
0.14
-0.10
-0.31
-0.44
-0.45
-0.38
-0.27
-0.16
-0.08
-0.07
-0.17
-0.44
-0.90
-1.52
-2.19
-2.76
-3.10
-3.13
-2.91
-2.60
-2.37
-2.37
-2.65
-3.15
-3.73
-4.26
-4.61
-4.75
-4.72
-4.57
-4.38
-4.21
-4.10
-4.05
-4.02
-3.93
-3.70
-3.30
-2.78
-2.27
-1.94
-1.82
-1.78
-1.48
-0.41
1.92
5.88
11.51
18.58
26.58
34.84
42.68
49.47
54.75
58.33
60.22
60.70
60.14
58.92
57.31
55.42
53.27
50.84
48.18
45.40
42.64
39.96
37.18
33.94
29.87
24.80
18.97
13.03
7.77
3.87
1.50
0.37
-0.12
-0.60
-1.39
-2.50
-3.66
-4.59
-5.18
-5.51
-5.80
-6.24
-6.84
-7.47
-7.92
-8.05
-7.93
-7.83
-8.00
-8.57
-9.41
-10.20
-10.67
-10.78
-10.79
-11.09
-12.04
-13.67
-15.73
-17.71
-19.15
-19.70
-19.24
-17.72
-15.11
-11.33
-6.32
-0.13
6.96
14.39
21.41
27.16
30.95
32.42
31.67
29.24
26.01
22.78
20.02
17.55
14.56
9.84
2.30
-8.57
-22.41
-38.01
-53.77
-68.13
-79.99
-88.83
-94.60
-97.44
-97.58
-95.25
-90.74
-84.49
-77.03
-68.93
-60.73
-52.91
-45.90
-40.04
-35.57
-32.55
-30.81
-30.01
-29.67
-29.30
-28.44
-26.78
-24.12
-20.49
-16.11
-11.38
-6.74
-2.61
0.79
3.43
5.40
6.93
8.35
10.05
12.52
16.16
21.13
27.24
33.95
40.56
46.43
51.23
54.93
57.70
59.73
61.04
61.51
60.92
59.09
56.04
51.92
47.08
41.90
36.77
31.97
27.68
23.94
20.70
17.90
15.45
13.25
11.18
9.11
6.96
4.81
2.91
1.60
1.14
1.50
2.27
2.69
1.89
-0.88
-6.01
-13.35
-22.20
-31.44
-39.81
-46.16
-49.74
-50.39
-48.44
-44.58
-39.52
-33.78
-27.62
-21.14
-14.47
-7.96
-2.17
2.32
5.12
6.25
6.18
5.66
5.44
5.94
7.14
8.63
9.93
10.75
11.16
11.49
12.03
12.78
13.40
13.28
11.89
8.95
4.56
-0.87
-6.80
-12.67
-17.97
-22.27
-25.29
-26.97
-27.52
-27.36
-27.02
-26.94
-27.34
-28.23
-29.42
-30.63
-31.62
-32.19
-32.28
-31.88
-31.05
-29.80
-28.09
-25.85
-23.07
-19.89
-16.64
-13.76
-11.65
-10.50
-10.20
-10.44
-10.83
-11.07
-10.99
-10.53
-9.71
-8.53
-7.03
-5.27
-3.45
-1.84
-0.80
-0.62
-1.47
-3.29
-5.81
-8.59
-11.10
-12.91
-13.78
-13.76
-13.07
-12.05
-10.98
-10.02
-9.24
-8.66
-8.33
-8.31
-8.62
-9.19
-9.83
-10.28
-10.28
-9.63
-8.26
-6.25
-3.75
-1.01
1.75
4.32
6.52
8.26
9.49
10.22
10.54
10.56
10.45
10.37
10.46
10.80
11.35
11.99
12.56
12.89
12.90
12.57
11.99
11.25
10.44
9.63
8.84
8.10
7.46
6.92
6.49
6.10
5.66
5.04
4.13
2.88
1.32
-0.40
-2.00
-3.17
-3.62
-3.20
-1.93
-0.05
2.09
4.13
5.83
7.10
7.98
8.55
8.86
8.92
8.74
8.39
7.95
7.55
7.26
7.08
6.94
6.75
6.49
6.21
6.02
5.99
6.07
6.11
5.94
5.41
4.52
3.34
2.06
0.82
-0.30
-1.25
-2.03
-2.66
-3.20
-3.76
-4.47
-5.39
-6.47
-7.47
-8.04
-7.88
-6.83
-5.02
-2.76
-0.48
1.50
3.01
4.01
4.62
4.96
5.18
5.39
5.65
6.00
6.39
6.76
7.00
7.05
6.89
6.63
6.38
6.26
6.30
6.38
6.30
5.88
5.04
3.90
2.69
1.62
0.83
0.28
-0.20
-0.78
-1.58
-2.59
-3.71
-4.80
-5.69
-6.20
-6.22
-5.65
-4.54
-3.01
-1.29
0.40
1.92
3.22
4.36
5.37
6.24
6.88
7.23
7.27
7.13
7.00
7.05
7.32
7.74
8.13
8.37
8.43
8.33
8.14
7.87
7.45
6.81
5.90
4.78
3.57
2.44
1.50
0.79
0.24
-0.26
-0.83
-1.55
-2.46
-3.51
-4.62
-5.70
-6.64
-7.33
-7.60
-7.31
-6.36
-4.75
-2.65
-0.29
2.04
4.10
5.73
6.90
7.62
7.98
8.06
7.97
7.80
7.60
7.44
7.34
7.31
7.33
7.36
7.30
7.08
6.65
6.03
5.32
4.64
4.06
3.57
3.10
2.54
1.83
0.98
0.04
-0.90
-1.80
-2.63
-3.40
-4.18
-5.05
-6.06
-7.19
-8.28
-9.03
-9.09
-8.24
-6.48
-4.10
-1.54
0.78
2.61
3.86
4.65
5.08
5.25
5.20
4.98
4.71
4.53
4.59
4.90
5.38
5.83
6.06
5.93
5.43
4.69
3.88
3.19
2.73
2.49
2.35
2.15
1.76
1.16
0.42
-0.29
-0.87
-1.25
-1.53
-1.86
-2.43
-3.35
-4.61
-6.05
-7.41
-8.40
-8.76
-8.37
-7.24
-5.52
-3.44
-1.23
0.89
2.79
4.36
5.59
6.45
6.95
7.10
6.93
6.50
5.93
5.36
4.93
4.77
4.87
5.17
5.51
5.73
5.73
5.46
4.93
4.20
3.34
2.39
1.40
0.43
-0.46
-1.20
-1.71
-1.99
-2.11
-2.23
-2.54
-3.20
-4.27
-5.63
-7.12
-8.48
-9.47
-9.92
-9.69
-8.71
-7.05
-4.87
-2.45
-0.11
1.87
3.36
4.36
4.95
5.26
5.35
5.26
5.02
4.72
4.48
4.44
4.63
4.97
5.32
5.52
5.48
5.25
4.92
4.61
4.34
4.07
3.72
3.22
2.58
1.84
1.06
0.27
-0.50
-1.22
-1.84
-2.32
-2.67
-3.00
-3.48
-4.25
-5.33
-6.59
-7.73
-8.46
-8.57
-8.01
-6.88
-5.34
-3.51
-1.50
0.57
2.52
4.09
5.05
5.29
4.94
4.28
3.63
3.18
2.97
2.92
2.94
3.04
3.31
3.79
4.42
4.99
5.27
5.14
4.64
3.94
3.20
2.49
1.76
0.96
0.11
-0.69
-1.31
-1.67
-1.84
-1.95
-2.18
-2.61
-3.24
-3.99
-4.82
-5.71
-6.63
-7.49
-8.14
-8.35
-7.96
-6.91
-5.30
-3.37
-1.37
0.43
1.89
2.91
3.47
3.63
3.46
3.11
2.70
2.38
2.21
2.23
2.42
2.70
2.97
3.13
3.09
2.84
2.44
2.01
1.70
1.60
1.69
1.85
1.90
1.70
1.18
0.41
-0.47
-1.31
-2.01
-2.54
-2.95
-3.31
-3.72
-4.22
-4.81
-5.42
-5.93
-6.19
-6.08
-5.54
-4.60
-3.38
-2.04
-0.74
0.43
1.41
2.21
2.82
3.19
3.26
2.99
2.45
1.79
1.22
0.95
1.05
1.47
2.04
2.55
2.87
2.95
2.83
2.54
2.14
1.64
1.06
0.47
-0.06
-0.47
-0.76
-0.98
-1.24
-1.58
-2.03
-2.59
-3.24
-3.97
-4.78
-5.65
-6.47
-7.09
-7.34
-7.07
-6.21
-4.78
-2.93
-0.87
1.09
2.70
3.75
4.22
4.22
3.95
3.59
3.24
2.93
2.66
2.45
2.35
2.39
2.55
2.71
2.76
2.63
2.37
2.13
2.08
2.23
2.50
2.66
2.52
1.99
1.15
0.18
-0.74
-1.47
-1.98
-2.35
-2.67
-3.06
-3.61
-4.35
-5.26
-6.24
-7.10
-7.60
-7.53
-6.78
-5.43
-3.71
-1.94
-0.40
0.70
1.32
1.48
1.25
0.72
0.01
-0.75
-1.41
-1.86
-2.02
-1.93
-1.68
-1.40
-1.20
-1.15
-1.28
-1.58
-2.00
-2.48
-2.92
-3.24
-3.40
-3.39
-3.27
-3.13
-3.05
-3.10
-3.30
-3.63
-4.08
-4.59
-5.13
-5.67
-6.17
-6.55
-6.72
-6.59
-6.12
-5.26
-4.05
-2.53
-0.80
1.03
2.77
4.23
5.25
5.73
5.69
5.30
4.79
4.39
4.20
4.25
4.46
4.71
4.96
5.18
5.32
5.34
5.14
4.68
3.98
3.20
2.52
2.11
2.00
2.06
2.09
1.90
1.43
0.73
-0.10
-0.99
-1.90
-2.80
-3.66
-4.36
-4.77
-4.76
-4.29
-3.44
-2.33
-1.04
0.35
1.77
3.11
4.23
4.95
5.17
4.88
4.22
3.39
2.58
1.96
1.59
1.48
1.60
1.87
2.19
2.42
2.47
2.26
1.81
1.16
0.40
-0.41
-1.19
-1.90
-2.51
-3.00
-3.39
-3.67
-3.85
-3.95
-4.01
-4.13
-4.35
-4.69
-5.09
-5.36
-5.32
-4.80
-3.77
-2.30
-0.56
1.25
2.93
4.29
5.14
5.38
5.01
4.21
3.25
2.39
1.83
1.62
1.74
2.10
2.64
3.28
3.91
4.36
4.48
4.19
3.53
2.67
1.83
1.14
0.65
0.29
-0.01
-0.29
-0.56
-0.80
-1.04
-1.36
-1.82
-2.42
-3.06
-3.58
-3.78
-3.52
-2.81
-1.71
-0.39
0.99
2.27
3.32
4.03
4.35
4.28
3.91
3.39
2.86
2.43
2.16
2.05
2.07
2.15
2.25
2.34
2.42
2.50
2.61
2.78
2.95
3.03
2.88
2.42
1.66
0.74
-0.15
-0.83
-1.21
-1.37
-1.46
-1.64
-1.98
-2.47
-2.96
-3.32
-3.45
-3.30
-2.90
-2.27
-1.44
-0.43
0.67
1.71
2.52
2.96
3.02
2.76
2.31
1.80
1.27
0.77
0.37
0.17
0.28
0.71
1.36
2.01
2.46
2.59
2.40
1.99
1.48
0.95
0.47
0.11
-0.10
-0.10
0.05
0.24
0.34
0.21
-0.18
-0.78
-1.47
-2.13
-2.65
-2.93
-2.92
-2.53
-1.77
-0.69
0.59
1.86
2.95
3.72
4.12
4.16
3.93
3.53
3.04
2.54
2.05
1.60
1.24
1.01
0.96
1.10
1.36
1.64
1.84
1.87
1.73
1.49
1.20
0.93
0.67
0.38
0.06
-0.28
-0.61
-0.92
-1.24
-1.67
-2.20
-2.78
-3.24
-3.40
-3.12
-2.44
-1.48
-0.47
0.42
1.11
1.62
1.98
2.25
2.41
2.41
2.25
1.98
1.71
1.54
1.54
1.70
1.92
2.11
2.21
2.20
2.11
1.98
1.80
1.55
1.23
0.86
0.48
0.16
-0.06
-0.21
-0.33
-0.45
-0.57
-0.66
-0.71
-0.78
-0.95
-1.29
-1.75
-2.20
-2.43
-2.32
-1.86
-1.17
-0.42
0.24
0.74
1.10
1.34
1.52
1.62
1.66
1.62
1.53
1.40
1.27
1.17
1.13
1.18
1.30
1.42
1.45
1.38
1.22
1.07
1.01
1.07
1.20
1.32
1.33
1.21
1.00
0.75
0.52
0.31
0.11
-0.12
-0.44
-0.89
-1.47
-2.15
-2.77
-3.18
-3.22
-2.83
-2.06
-1.09
-0.10
0.76
1.40
1.81
2.01
2.04
1.95
1.78
1.59
1.43
1.34
1.32
1.39
1.54
1.76
2.03
2.29
2.46
2.47
2.28
1.94
1.51
1.10
0.74
0.43
0.11
-0.19
-0.44
-0.57
-0.56
-0.44
-0.35
-0.39
-0.61
-0.95
-1.27
-1.44
-1.41
-1.19
-0.86
-0.49
-0.09
0.35
0.84
1.37
1.85
2.18
2.29
2.19
1.95
1.71
1.58
1.62
1.81
2.05
2.23
2.26
2.14
1.92
1.70
1.59
1.62
1.74
1.84
1.78
1.47
0.96
0.38
-0.09
-0.34
-0.36
-0.27
-0.21
-0.28
-0.48
-0.76
-1.04
-1.32
-1.60
-1.93
-2.30
-2.62
-2.80
-2.69
-2.25
-1.48
-0.48
0.62
1.64
2.44
2.94
3.14
3.09
2.86
2.52
2.15
1.81
1.56
1.44
1.45
1.56
1.67
1.73
1.71
1.62
1.49
1.38
1.28
1.18
1.06
0.90
0.69
0.44
0.14
-0.22
-0.61
-1.00
-1.33
-1.56
-1.68
-1.74
-1.77
-1.84
-1.97
-2.14
-2.28
-2.33
-2.20
-1.88
-1.35
-0.67
0.09
0.87
1.59
2.18
2.56
2.64
2.39
1.85
1.14
0.50
0.14
0.18
0.62
1.32
2.04
2.60
2.88
2.84
2.53
2.05
1.45
0.83
0.26
-0.16
-0.38
-0.39
-0.28
-0.17
-0.18
-0.36
-0.66
-0.97
-1.17
-1.23
-1.19
-1.17
-1.27
-1.52
-1.85
-2.13
-2.25
-2.15
-1.84
-1.37
-0.81
-0.19
0.45
1.06
1.57
1.86
1.87
1.61
1.19
0.77
0.51
0.48
0.63
0.87
1.08
1.19
1.19
1.11
1.01
0.90
0.81
0.74
0.68
0.65
0.65
0.65
0.62
0.53
0.35
0.12
-0.10
-0.23
-0.22
-0.09
0.05
0.08
-0.09
-0.47
-0.99
-1.54
-2.02
-2.37
-2.56
-2.56
-2.40
-2.08
-1.65
-1.15
-0.64
-0.15
0.26
0.58
0.77
0.86
0.87
0.86
0.87
0.88
0.88
0.85
0.79
0.72
0.69
0.69
0.68
0.60
0.42
0.17
-0.04
-0.16
-0.16
-0.07
0.04
0.12
0.17
0.20
0.21
0.21
0.17
0.08
-0.05
-0.20
-0.35
-0.52
-0.75
-1.08
-1.50
-1.95
-2.32
-2.55
-2.60
-2.47
-2.17
-1.72
-1.09
-0.35
0.41
1.03
1.38
1.40
1.15
0.76
0.36
0.05
-0.14
-0.24
-0.21
-0.02
0.35
0.87
1.43
1.86
2.04
1.94
1.64
1.26
0.87
0.51
0.14
-0.25
-0.64
-0.94
-1.07
-1.01
-0.80
-0.52
-0.29
-0.15
-0.11
-0.18
-0.36
-0.69
-1.20
-1.84
-2.51
-3.08
-3.39
-3.39
-3.09
-2.57
-1.92
-1.20
-0.45
0.32
1.05
1.65
1.99
1.99
1.64
1.07
0.46
0.01
-0.16
-0.05
0.24
0.58
0.87
1.03
1.05
0.94
0.75
0.51
0.29
0.16
0.15
0.27
0.48
0.72
0.89
0.92
0.74
0.36
-0.17
-0.73
-1.20
-1.49
-1.58
-1.56
-1.50
-1.49
-1.56
-1.69
-1.85
-1.99
-2.10
-2.19
-2.26
-2.28
-2.19
-1.90
-1.37
-0.63
0.18
0.89
1.37
1.55
1.49
1.31
1.11
1.00
0.97
1.01
1.10
1.20
1.31
1.39
1.42
1.39
1.30
1.16
0.97
0.73
0.45
0.17
-0.03
-0.07
0.08
0.35
0.61
0.70
0.54
0.11
-0.52
-1.20
-1.79
-2.20
-2.36
-2.32
-2.14
-1.91
-1.69
-1.49
-1.27
-0.99
-0.60
-0.13
0.38
0.85
1.21
1.42
1.47
1.38
1.17
0.85
0.43
-0.04
-0.51
-0.87
-1.06
-1.04
-0.87
-0.62
-0.35
-0.10
0.14
0.40
0.66
0.88
0.95
0.83
0.52
0.14
-0.18
-0.34
-0.34
-0.25
-0.18
-0.21
-0.34
-0.52
-0.71
-0.87
-1.03
-1.24
-1.54
-1.93
-2.33
-2.62
-2.70
-2.53
-2.13
-1.58
-0.99
-0.41
0.11
0.56
0.90
1.10
1.09
0.86
0.46
0.03
-0.30
-0.42
-0.30
-0.04
0.23
0.38
0.36
0.20
0.00
-0.12
-0.10
0.04
0.24
0.40
0.47
0.40
0.22
-0.03
-0.32
-0.63
-0.92
-1.16
-1.29
-1.26
-1.08
-0.81
-0.59
-0.55
-0.77
-1.22
-1.79
-2.27
-2.53
-2.48
-2.16
-1.67
-1.09
-0.51
0.04
0.52
0.87
1.04
1.04
0.93
0.81
0.79
0.87
0.98
1.03
1.00
0.90
0.84
0.87
0.97
1.06
1.01
0.78
0.43
0.13
0.01
0.11
0.37
0.60
0.65
0.47
0.12
-0.25
-0.52
-0.66
-0.69
-0.70
-0.78
-0.96
-1.24
-1.57
-1.88
-2.09
-2.12
-1.97
-1.66
-1.29
-0.92
-0.59
-0.30
-0.02
0.26
0.51
0.69
0.77
0.78
0.80
0.88
1.01
1.11
1.08
0.87
0.51
0.16
-0.05
-0.02
0.20
0.46
0.62
0.56
0.29
-0.11
-0.50
-0.75
-0.81
-0.70
-0.50
-0.34
-0.29
-0.41
-0.67
-0.95
-1.15
-1.21
-1.15
-1.07
-1.07
-1.17
-1.32
-1.41
-1.38
-1.22
-1.02
-0.89
-0.90
-0.99
-1.04
-0.91
-0.48
0.20
0.99
1.66
2.01
1.92
1.43
0.74
0.10
-0.22
-0.12
0.35
0.97
1.47
1.66
1.50
1.10
0.63
0.24
-0.03
-0.27
-0.57
-0.96
-1.40
-1.76
-1.95
-1.99
-1.96
-2.02
-2.25
-2.61
-2.96
-3.12
-2.99
-2.58
-2.04
-1.50
-1.07
-0.75
-0.45
-0.09
0.33
0.76
1.11
1.30
1.32
1.23
1.07
0.93
0.82
0.71
0.59
0.44
0.28
0.14
0.08
0.11
0.20
0.27
0.26
0.14
-0.04
-0.20
-0.27
-0.26
-0.24
-0.28
-0.43
-0.67
-0.93
-1.12
-1.24
-1.32
-1.42
-1.56
-1.75
-1.94
-2.08
-2.12
-2.03
-1.82
-1.46
-0.96
-0.30
0.48
1.29
1.98
2.40
2.45
2.15
1.61
1.00
0.52
0.26
0.26
0.48
0.86
1.30
1.75
2.11
2.31
2.28
2.02
1.58
1.06
0.58
0.26
0.11
0.14
0.25
0.37
0.43
0.39
0.24
-0.02
-0.40
-0.89
-1.44
-1.95
-2.28
-2.36
-2.18
-1.86
-1.56
-1.36
-1.27
-1.16
-0.87
-0.35
0.36
1.12
1.76
2.22
2.49
2.61
2.57
2.33
1.90
1.31
0.75
0.37
0.31
0.53
0.89
1.22
1.38
1.35
1.18
0.96
0.76
0.62
0.51
0.42
0.32
0.19
0.03
-0.16
-0.39
-0.65
-0.94
-1.28
-1.67
-2.08
-2.44
-2.68
-2.74
-2.60
-2.28
-1.81
-1.26
-0.67
-0.10
0.39
0.77
1.02
1.14
1.21
1.28
1.36
1.40
1.33
1.08
0.64
0.14
-0.27
-0.43
-0.26
0.18
0.72
1.19
1.47
1.53
1.44
1.29
1.10
0.86
0.50
-0.01
-0.63
-1.24
-1.69
-1.90
-1.89
-1.79
-1.75
-1.83
-2.01
-2.18
-2.26
-2.24
-2.23
-2.30
-2.45
-2.51
-2.29
-1.67
-0.70
0.39
1.33
1.92
2.17
2.18
2.13
2.07
1.97
1.75
1.38
0.93
0.56
0.40
0.50
0.75
1.01
1.10
0.97
0.63
0.20
-0.18
-0.41
-0.46
-0.35
-0.18
-0.08
-0.11
-0.29
-0.55
-0.80
-1.00
-1.14
-1.27
-1.44
-1.66
-1.91
-2.15
-2.38
-2.57
-2.71
-2.71
-2.49
-1.99
-1.19
-0.19
0.81
1.64
2.16
2.35
2.32
2.20
2.10
2.08
2.07
1.99
1.77
1.42
1.02
0.69
0.51
0.48
0.49
0.45
0.30
0.07
-0.13
-0.22
-0.16
-0.02
0.09
0.06
-0.14
-0.45
-0.79
-1.03
-1.14
-1.12
-1.03
-0.96
-0.95
-1.04
-1.22
-1.47
-1.70
-1.81
-1.71
-1.39
-0.88
-0.32
0.17
0.51
0.73
0.91
1.14
1.41
1.68
1.85
1.87
1.76
1.61
1.48
1.42
1.40
1.34
1.21
0.99
0.69
0.36
-0.00
-0.38
-0.75
-1.07
-1.28
-1.30
-1.12
-0.82
-0.54
-0.46
-0.66
-1.12
-1.70
-2.17
-2.37
-2.31
-2.10
-1.95
-1.98
-2.20
-2.42
-2.44
-2.13
-1.51
-0.74
-0.00
0.57
0.95
1.19
1.33
1.37
1.25
0.94
0.47
-0.02
-0.37
-0.43
-0.14
0.42
1.09
1.65
1.91
1.75
1.23
0.50
-0.21
-0.70
-0.90
-0.82
-0.56
-0.26
-0.00
0.12
0.05
-0.21
-0.65
-1.17
-1.64
-1.91
-1.94
-1.78
-1.54
-1.34
-1.26
-1.30
-1.43
-1.57
-1.68
-1.67
-1.48
-1.07
-0.47
0.21
0.84
1.32
1.60
1.74
1.80
1.81
1.77
1.63
1.38
1.07
0.76
0.54
0.44
0.44
0.49
0.52
0.50
0.42
0.30
0.19
0.11
0.08
0.07
0.05
-0.01
-0.11
-0.23
-0.31
-0.31
-0.24
-0.14
-0.10
-0.19
-0.40
-0.68
-0.96
-1.18
-1.33
-1.42
-1.48
-1.51
-1.48
-1.35
-1.11
-0.73
-0.27
0.24
0.71
1.11
1.40
1.58
1.68
1.68
1.55
1.27
0.86
0.41
0.08
0.01
0.24
0.71
1.25
1.67
1.86
1.77
1.47
1.03
0.53
-0.00
-0.51
-0.94
-1.23
-1.35
-1.29
-1.10
-0.84
-0.59
-0.44
-0.42
-0.55
-0.78
-1.03
-1.25
-1.41
-1.52
-1.63
-1.78
-1.92
-1.95
-1.77
-1.31
-0.57
0.31
1.18
1.86
2.27
2.38
2.26
1.96
1.58
1.18
0.85
0.67
0.67
0.81
1.00
1.10
1.02
0.77
0.45
0.20
0.15
0.30
0.57
0.82
0.95
0.90
0.68
0.37
0.03
-0.29
-0.57
-0.81
-1.01
-1.17
-1.28
-1.36
-1.42
-1.47
-1.56
-1.68
-1.85
-2.00
-2.08
-2.02
-1.80
-1.43
-0.96
-0.44
0.07
0.57
0.99
1.28
1.37
1.20
0.79
0.22
-0.34
-0.72
-0.80
-0.57
-0.08
0.53
1.09
1.49
1.66
1.59
1.34
0.99
0.59
0.17
-0.26
-0.71
-1.12
-1.40
-1.48
-1.33
-1.04
-0.72
-0.53
-0.53
-0.70
-0.99
-1.36
-1.74
-2.12
-2.45
-2.67
-2.76
-2.70
-2.52
-2.24
-1.86
-1.38
-0.80
-0.13
0.57
1.22
1.76
2.14
2.30
2.24
1.95
1.48
0.94
0.47
0.25
0.33
0.69
1.18
1.63
1.87
1.84
1.58
1.20
0.81
0.52
0.34
0.27
0.26
0.29
0.31
0.27
0.13
-0.14
-0.54
-0.99
-1.38
-1.59
-1.55
-1.27
-0.84
-0.46
-0.27
-0.38
-0.77
-1.29
-1.72
-1.85
-1.53
-0.77
0.31
1.48
2.50
3.16
3.38
3.16
2.62
1.93
1.24
0.68
0.29
0.11
0.10
0.22
0.40
0.59
0.72
0.78
0.81
0.86
1.02
1.28
1.61
1.87
1.93
1.74
1.32
0.79
0.31
-0.02
-0.16
-0.18
-0.16
-0.20
-0.33
-0.53
-0.74
-0.94
-1.10
-1.23
-1.35
-1.48
-1.60
-1.67
-1.67
-1.57
-1.36
-1.01
-0.49
0.20
1.02
1.82
2.44
2.71
2.56
2.07
1.41
0.78
0.32
0.08
0.01
0.04
0.11
0.23
0.39
0.60
0.76
0.78
0.59
0.21
-0.24
-0.60
-0.74
-0.64
-0.40
-0.18
-0.10
-0.17
-0.32
-0.46
-0.53
-0.52
-0.52
-0.61
-0.82
-1.12
-1.45
-1.73
-1.92
-1.99
-1.89
-1.57
-1.03
-0.32
0.45
1.13
1.59
1.79
1.73
1.48
1.10
0.65
0.18
-0.25
-0.57
-0.73
-0.73
-0.60
-0.42
-0.24
-0.08
0.10
0.29
0.47
0.60
0.58
0.37
0.02
-0.36
-0.63
-0.70
-0.58
-0.43
-0.40
-0.61
-1.02
-1.51
-1.87
-2.02
-1.98
-1.88
-1.89
-2.04
-2.24
-2.35
-2.23
-1.88
-1.40
-0.90
-0.46
-0.06
0.36
0.84
1.32
1.69
1.81
1.62
1.21
0.73
0.38
0.31
0.56
1.04
1.56
1.95
2.11
2.02
1.80
1.54
1.37
1.32
1.38
1.47
1.47
1.29
0.88
0.25
-0.48
-1.17
-1.68
-1.95
-1.99
-1.90
-1.75
-1.61
-1.46
-1.32
-1.19
-1.12
-1.14
-1.26
-1.41
-1.48
-1.39
-1.06
-0.55
0.07
0.69
1.19
1.51
1.62
1.54
1.30
0.98
0.66
0.40
0.26
0.23
0.30
0.44
0.59
0.73
0.84
0.89
0.85
0.73
0.53
0.31
0.17
0.18
0.36
0.64
0.88
0.97
0.83
0.51
0.12
-0.25
-0.58
-0.88
-1.19
-1.49
-1.73
-1.83
-1.77
-1.59
-1.38
-1.22
-1.11
-0.97
-0.71
-0.28
0.29
0.91
1.50
1.94
2.19
2.19
1.95
1.49
0.89
0.26
-0.30
-0.69
-0.90
-0.94
-0.85
-0.64
-0.35
0.02
0.41
0.73
0.86
0.76
0.46
0.05
-0.31
-0.50
-0.47
-0.31
-0.12
-0.00
0.01
-0.04
-0.11
-0.19
-0.35
-0.66
-1.16
-1.72
-2.17
-2.28
-1.95
-1.24
-0.35
0.46
1.00
1.22
1.15
0.93
0.68
0.50
0.39
0.36
0.34
0.29
0.20
0.10
0.06
0.16
0.38
0.69
0.97
1.13
1.12
0.96
0.69
0.38
0.06
-0.20
-0.38
-0.43
-0.37
-0.27
-0.21
-0.29
-0.53
-0.87
-1.21
-1.46
-1.54
-1.48
-1.33
-1.16
-1.07
-1.05
-1.06
-1.02
-0.83
-0.46
0.05
0.57
0.97
1.17
1.18
1.11
1.05
1.09
1.20
1.31
1.33
1.20
0.93
0.57
0.20
-0.10
-0.27
-0.29
-0.17
0.04
0.29
0.53
0.71
0.81
0.83
0.77
0.64
0.45
0.20
-0.09
-0.41
-0.69
-0.86
-0.89
-0.78
-0.57
-0.35
-0.16
-0.00
0.19
0.46
0.84
1.26
1.62
1.81
1.81
1.64
1.38
1.13
0.94
0.85
0.85
0.92
1.02
1.12
1.20
1.23
1.21
1.13
0.98
0.73
0.40
0.02
-0.30
-0.45
-0.40
-0.20
-0.04
-0.10
-0.48
-1.12
-1.84
-2.41
-2.66
-2.54
-2.12
-1.55
-0.96
-0.43
0.01
0.40
0.75
1.07
1.31
1.42
1.39
1.22
1.02
0.89
0.89
1.04
1.22
1.30
1.17
0.81
0.32
-0.14
-0.41
-0.41
-0.19
0.14
0.42
0.54
0.45
0.18
-0.21
-0.66
-1.10
-1.50
-1.82
-2.03
-2.09
-2.01
-1.80
-1.51
-1.16
-0.80
-0.45
-0.16
0.08
0.25
0.39
0.54
0.74
0.99
1.23
1.38
1.37
1.19
0.93
0.71
0.62
0.66
0.74
0.73
0.56
0.28
-0.01
-0.18
-0.20
-0.14
-0.11
-0.23
-0.48
-0.80
-1.05
-1.17
-1.15
-1.10
-1.12
-1.27
-1.53
-1.81
-1.96
-1.86
-1.49
-0.89
-0.20
0.41
0.80
0.92
0.83
0.63
0.43
0.28
0.16
0.01
-0.17
-0.34
-0.40
-0.28
0.00
0.33
0.53
0.46
0.13
-0.32
-0.69
-0.80
-0.62
-0.26
0.10
0.30
0.27
0.06
-0.22
-0.48
-0.69
-0.85
-0.99
-1.12
-1.21
-1.26
-1.27
-1.25
-1.19
-1.04
-0.75
-0.33
0.14
0.54
0.75
0.71
0.47
0.16
-0.09
-0.19
-0.14
0.04
0.29
0.54
0.73
0.81
0.79
0.68
0.55
0.43
0.38
0.36
0.35
0.31
0.22
0.11
-0.02
-0.14
-0.28
-0.42
-0.55
-0.64
-0.65
-0.58
-0.43
-0.25
-0.08
0.04
0.07
0.04
-0.01
-0.00
0.13
0.36
0.63
0.86
0.94
0.87
0.67
0.40
0.11
-0.14
-0.33
-0.42
-0.38
-0.20
0.06
0.33
0.52
0.57
0.51
0.39
0.31
0.30
0.34
0.34
0.20
-0.15
-0.66
-1.21
-1.64
-1.83
-1.78
-1.57
-1.33
-1.16
-1.06
-0.95
-0.75
-0.42
0.00
0.40
0.69
0.85
0.95
1.08
1.31
1.62
1.87
1.92
1.71
1.29
0.83
0.52
0.47
0.67
0.97
1.18
1.19
0.96
0.59
0.20
-0.12
-0.32
-0.44
-0.53
-0.64
-0.78
-0.91
-1.02
-1.08
-1.17
-1.32
-1.56
-1.84
-2.01
-1.99
-1.73
-1.34
-0.95
-0.68
-0.56
-0.52
-0.47
-0.34
-0.17
0.01
0.15
0.28
0.41
0.56
0.68
0.72
0.65
0.48
0.27
0.12
0.07
0.14
0.32
0.56
0.78
0.90
0.86
0.67
0.40
0.14
-0.03
-0.14
-0.26
-0.45
-0.74
-1.07
-1.31
-1.41
-1.37
-1.30
-1.28
-1.36
-1.46
-1.48
-1.33
-1.04
-0.68
-0.35
-0.12
0.03
0.11
0.19
0.29
0.43
0.64
0.93
1.30
1.70
2.02
2.15
2.02
1.68
1.22
0.80
0.49
0.34
0.29
0.29
0.25
0.16
-0.02
-0.28
-0.58
-0.88
-1.13
-1.27
-1.25
-1.06
-0.70
-0.26
0.16
0.42
0.41
0.08
-0.48
-1.09
-1.56
-1.71
-1.53
-1.09
-0.55
-0.09
0.24
0.43
0.57
0.72
0.90
1.06
1.10
0.93
0.55
0.01
-0.54
-0.92
-1.02
-0.80
-0.34
0.16
0.56
0.75
0.76
0.69
0.65
0.67
0.70
0.64
0.41
0.02
-0.41
-0.73
-0.83
-0.73
-0.56
-0.46
-0.50
-0.64
-0.72
-0.63
-0.33
0.11
0.55
0.84
0.92
0.84
0.72
0.69
0.79
1.00
1.20
1.26
1.12
0.83
0.56
0.47
0.64
1.00
1.34
1.46
1.25
0.78
0.24
-0.19
-0.41
-0.46
-0.46
-0.50
-0.60
-0.70
-0.73
-0.66
-0.55
-0.49
-0.56
-0.79
-1.13
-1.46
-1.67
-1.70
-1.55
-1.27
-0.90
-0.49
-0.04
0.45
0.93
1.32
1.57
1.62
1.48
1.24
0.98
0.80
0.73
0.75
0.81
0.86
0.85
0.79
0.68
0.54
0.38
0.21
0.00
-0.23
-0.47
-0.66
-0.73
-0.61
-0.32
0.10
0.49
0.68
0.56
0.15
-0.43
-0.98
-1.26
-1.20
-0.83
-0.29
0.25
0.70
1.03
1.27
1.43
1.50
1.46
1.29
1.05
0.84
0.72
0.70
0.72
0.67
0.47
0.13
-0.21
-0.42
-0.39
-0.16
0.11
0.22
0.04
-0.42
-1.03
-1.57
-1.86
-1.85
-1.63
-1.31
-1.03
-0.83
-0.71
-0.62
-0.50
-0.37
-0.23
-0.13
-0.08
-0.06
-0.01
0.13
0.39
0.72
0.99
1.05
0.78
0.22
-0.48
-1.06
-1.35
-1.28
-0.99
-0.67
-0.51
-0.55
-0.73
-0.89
-0.89
-0.71
-0.39
-0.06
0.14
0.12
-0.15
-0.62
-1.16
-1.59
-1.76
-1.64
-1.26
-0.78
-0.33
0.02
0.29
0.55
0.80
0.97
0.95
0.65
0.14
-0.38
-0.67
-0.59
-0.18
0.36
0.81
1.03
1.03
0.93
0.81
0.75
0.71
0.64
0.49
0.25
-0.05
-0.36
-0.66
-0.90
-1.06
-1.14
-1.17
-1.19
-1.22
-1.26
-1.26
-1.17
-0.99
-0.81
-0.72
-0.75
-0.83
-0.87
-0.73
-0.38
0.11
0.63
1.05
1.31
1.44
1.48
1.48
1.43
1.28
1.03
0.72
0.45
0.35
0.45
0.71
1.01
1.19
1.16
0.91
0.55
0.16
-0.16
-0.39
-0.54
-0.66
-0.73
-0.76
-0.73
-0.69
-0.70
-0.81
-1.02
-1.26
-1.39
-1.32
-1.03
-0.60
-0.15
0.23
0.49
0.68
0.87
1.10
1.33
1.47
1.43
1.19
0.83
0.47
0.22
0.15
0.22
0.36
0.53
0.70
0.89
1.07
1.22
1.23
1.05
0.69
0.22
-0.20
-0.46
-0.55
-0.54
-0.52
-0.57
-0.66
-0.71
-0.61
-0.35
-0.06
0.10
-0.02
-0.44
-1.02
-1.55
-1.83
-1.78
-1.42
-0.88
-0.30
0.26
0.73
1.12
1.39
1.52
1.50
1.37
1.20
1.09
1.07
1.10
1.08
0.96
0.74
0.49
0.33
0.34
0.49
0.69
0.78
0.68
0.40
0.03
-0.28
-0.44
-0.42
-0.30
-0.15
-0.06
-0.06
-0.13
-0.21
-0.29
-0.37
-0.49
-0.69
-0.97
-1.26
-1.46
-1.46
-1.22
-0.81
-0.33
0.08
0.33
0.46
0.55
0.66
0.80
0.93
0.98
0.94
0.86
0.80
0.80
0.84
0.85
0.77
0.63
0.46
0.32
0.21
0.12
0.02
-0.09
-0.15
-0.12
-0.02
0.06
0.01
-0.21
-0.52
-0.76
-0.79
-0.60
-0.28
-0.02
0.03
-0.18
-0.56
-0.97
-1.26
-1.34
-1.22
-0.93
-0.54
-0.12
0.28
0.65
0.93
1.11
1.17
1.09
0.87
0.55
0.17
-0.17
-0.42
-0.51
-0.48
-0.36
-0.22
-0.09
0.02
0.17
0.41
0.72
1.00
1.12
0.94
0.44
-0.24
-0.84
-1.14
-1.04
-0.64
-0.16
0.11
0.02
-0.39
-0.97
-1.47
-1.75
-1.73
-1.49
-1.19
-0.96
-0.84
-0.82
-0.83
-0.79
-0.70
-0.55
-0.39
-0.21
-0.01
0.21
0.43
0.60
0.65
0.56
0.37
0.16
0.01
0.00
0.18
0.50
0.90
1.27
1.49
1.47
1.19
0.71
0.21
-0.18
-0.35
-0.29
-0.08
0.17
0.36
0.44
0.41
0.26
-0.01
-0.41
-0.86
-1.29
-1.59
-1.70
-1.63
-1.48
-1.35
-1.29
-1.29
-1.28
-1.20
-1.04
-0.83
-0.64
-0.48
-0.31
-0.01
0.47
1.12
1.76
2.21
2.29
1.95
1.30
0.57
-0.02
-0.29
-0.21
0.16
0.65
1.14
1.51
1.72
1.72
1.55
1.24
0.85
0.47
0.18
0.03
0.05
0.19
0.37
0.49
0.42
0.14
-0.30
-0.78
-1.14
-1.27
-1.16
-0.93
-0.73
-0.66
-0.78
-1.02
-1.31
-1.55
-1.66
-1.65
-1.51
-1.28
-0.99
-0.66
-0.28
0.13
0.56
0.97
1.31
1.50
1.53
1.41
1.20
0.95
0.75
0.62
0.58
0.63
0.78
0.98
1.19
1.33
1.34
1.24
1.07
0.90
0.76
0.64
0.47
0.21
-0.16
-0.54
-0.85
-1.02
-1.08
-1.14
-1.34
-1.77
-2.36
-2.97
-3.42
-3.60
-3.54
-3.36
-3.22
-3.21
-3.32
-3.49
-3.61
-3.63
-3.53
-3.32
-2.99
-2.54
-1.92
-1.12
-0.20
0.74
1.58
2.21
2.59
2.76
2.82
2.85
2.92
3.03
3.14
3.26
3.38
3.55
3.74
3.88
3.85
3.55
2.98
2.28
1.66
1.28
1.18
1.26
1.34
1.26
1.01
0.66
0.34
0.11
-0.04
-0.18
-0.34
-0.51
-0.63
-0.66
-0.64
-0.68
-0.89
-1.26
-1.73
-2.11
-2.22
-1.94
-1.30
-0.40
0.56
1.42
2.03
2.33
2.31
2.03
1.58
1.05
0.55
0.17
-0.03
-0.03
0.14
0.44
0.80
1.15
1.42
1.58
1.55
1.32
0.91
0.43
0.01
-0.20
-0.15
0.09
0.35
0.44
0.23
-0.28
-0.94
-1.52
-1.86
-1.91
-1.74
-1.48
-1.27
-1.13
-1.04
-0.94
-0.79
-0.65
-0.58
-0.64
-0.79
-0.91
-0.82
-0.43
0.24
1.02
1.71
2.10
2.13
1.86
1.45
1.09
0.91
0.91
1.03
1.16
1.20
1.15
1.03
0.90
0.78
0.67
0.50
0.22
-0.17
-0.62
-1.01
-1.25
-1.30
-1.19
-1.02
-0.89
-0.85
-0.86
-0.86
-0.76
-0.55
-0.32
-0.18
-0.21
-0.40
-0.65
-0.84
-0.90
-0.84
-0.74
-0.67
-0.62
-0.49
-0.19
0.29
0.83
1.29
1.54
1.56
1.45
1.31
1.19
1.06
0.82
0.43
-0.05
-0.48
-0.67
-0.57
-0.21
0.24
0.62
0.83
0.88
0.85
0.84
0.85
0.86
0.81
0.65
0.39
0.07
-0.25
-0.55
-0.82
-1.02
-1.12
-1.10
-0.97
-0.78
-0.59
-0.44
-0.37
-0.38
-0.48
-0.66
-0.90
-1.16
-1.36
-1.44
-1.34
-1.09
-0.71
-0.25
0.23
0.67
1.00
1.19
1.25
1.23
1.19
1.18
1.18
1.13
0.94
0.63
0.25
-0.05
-0.16
-0.04
0.26
0.63
0.91
1.03
0.97
0.81
0.67
0.63
0.68
0.76
0.75
0.58
0.26
-0.15
-0.58
-1.00
-1.43
-1.89
-2.33
-2.66
-2.77
-2.61
-2.24
-1.82
-1.50
-1.35
-1.33
-1.29
-1.07
-0.63
-0.03
0.57
1.01
1.21
1.19
1.04
0.84
0.67
0.52
0.37
0.20
0.01
-0.18
-0.32
-0.41
-0.43
-0.41
-0.38
-0.40
-0.51
-0.76
-1.10
-1.50
-1.87
-2.12
-2.24
-2.23
-2.13
-2.04
-2.05
-2.22
-2.57
-3.05
-3.60
-4.12
-4.54
-4.86
-5.06
-5.15
-5.07
-4.75
-4.11
-3.16
-1.98
-0.71
0.50
1.54
2.41
3.13
3.69
4.09
4.31
4.35
4.26
4.15
4.11
4.14
4.16
4.05
3.74
3.27
2.77
2.40
2.24
2.26
2.33
2.32
2.14
1.83
1.49
1.22
1.03
0.90
0.79
0.66
0.54
0.49
0.53
0.62
0.67
0.55
0.21
-0.34
-0.98
-1.55
-1.89
-1.92
-1.68
-1.28
-0.84
-0.46
-0.16
0.13
0.44
0.80
1.13
1.34
1.34
1.10
0.72
0.34
0.14
0.20
0.52
0.96
1.31
1.41
1.21
0.77
0.26
-0.11
-0.23
-0.10
0.16
0.38
0.43
0.30
0.05
-0.18
-0.29
-0.25
-0.12
-0.00
0.03
-0.03
-0.17
-0.33
-0.47
-0.60
-0.73
-0.86
-1.00
-1.10
-1.10
-0.96
-0.66
-0.24
0.27
0.76
1.19
1.50
1.64
1.61
1.43
1.14
0.79
0.44
0.13
-0.10
-0.24
-0.28
-0.24
-0.14
0.02
0.20
0.36
0.47
0.51
0.51
0.48
0.43
0.33
0.14
-0.15
-0.49
-0.80
-1.01
-1.07
-1.07
-1.09
-1.23
-1.50
-1.83
-2.09
-2.17
-2.05
-1.79
-1.44
-1.04
-0.58
-0.05
0.51
1.00
1.30
1.30
1.03
0.60
0.18
-0.11
-0.16
-0.03
0.21
0.45
0.60
0.65
0.60
0.53
0.50
0.54
0.64
0.71
0.67
0.45
0.04
-0.47
-0.98
-1.39
-1.67
-1.82
-1.89
-1.90
-1.85
-1.74
-1.59
-1.46
-1.44
-1.55
-1.76
-1.91
-1.83
-1.43
-0.69
0.25
1.22
2.04
2.59
2.85
2.85
2.63
2.28
1.87
1.50
1.28
1.28
1.53
1.97
2.47
2.88
3.10
3.11
3.00
2.89
2.90
3.06
3.29
3.50
3.60
3.61
3.62
3.75
4.08
4.56
5.08
5.54
5.89
6.17
6.45
6.78
7.15
7.52
7.87
8.20
8.56
9.01
9.46
9.77
9.71
9.10
7.86
6.06
3.88
1.47
-1.02
-3.50
-5.85
-7.93
-9.57
-10.66
-11.15
-11.17
-10.89
-10.50
-10.14
-9.80
-9.45
-9.04
-8.56
-8.06
-7.58
-7.17
-6.86
-6.62
-6.44
-6.28
-6.12
-5.89
-5.53
-5.04
-4.42
-3.76
-3.17
-2.75
-2.53
-2.49
-2.53
-2.53
-2.37
-1.98
-1.37
-0.62
0.15
0.83
1.32
1.59
1.64
1.48
1.17
0.78
0.41
0.13
0.00
0.02
0.14
0.29
0.41
0.47
0.44
0.33
0.14
-0.09
-0.28
-0.36
-0.28
-0.08
0.14
0.25
0.18
-0.02
-0.26
-0.40
-0.42
-0.40
-0.43
-0.59
-0.86
-1.10
-1.22
-1.15
-0.96
-0.73
-0.53
-0.33
-0.06
0.33
0.83
1.34
1.73
1.94
1.95
1.78
1.49
1.12
0.73
0.38
0.16
0.12
0.25
0.46
0.62
0.63
0.49
0.25
0.01
-0.16
-0.26
-0.32
-0.40
-0.54
-0.73
-0.91
-1.07
-1.18
-1.26
-1.38
-1.54
-1.77
-2.00
-2.21
-2.35
-2.42
-2.43
-2.36
-2.15
-1.69
-0.97
-0.04
0.93
1.73
2.24
2.41
2.30
2.01
1.60
1.10
0.51
-0.10
-0.60
-0.83
-0.67
-0.14
0.60
1.31
1.77
1.87
1.66
1.30
0.94
0.69
0.54
0.42
0.26
0.05
-0.16
-0.31
-0.40
-0.49
-0.67
-0.95
-1.27
-1.50
-1.53
-1.31
-0.96
-0.61
-0.42
-0.42
-0.57
-0.70
-0.67
-0.38
0.18
0.89
1.60
2.14
2.39
2.31
1.94
1.42
0.87
0.42
0.14
0.05
0.13
0.33
0.57
0.78
0.91
0.95
0.95
0.95
0.94
0.90
0.77
0.54
0.22
-0.08
-0.28
-0.36
-0.35
-0.33
-0.36
-0.43
-0.51
-0.54
-0.56
-0.62
-0.77
-1.02
-1.29
-1.49
-1.56
-1.49
-1.32
-1.10
-0.81
-0.42
0.09
0.71
1.36
1.92
2.29
2.40
2.22
1.78
1.14
0.41
-0.27
-0.76
-0.99
-0.97
-0.82
-0.71
-0.76
-1.04
-1.47
-1.95
-2.35
-2.57
-2.62
-2.55
-2.45
-2.42
-2.51
-2.76
-3.11
-3.51
-3.84
-4.05
-4.13
-4.09
-3.96
-3.72
-3.36
-2.88
-2.29
-1.62
-0.89
-0.08
0.81
1.78
2.75
3.61
4.19
4.41
4.32
4.05
3.78
3.63
3.59
3.58
3.46
3.19
2.79
2.36
2.02
1.84
1.84
1.89
1.90
1.79
1.56
1.30
1.11
1.03
1.06
1.11
1.08
0.88
0.52
0.02
-0.52
-1.03
-1.48
-1.85
-2.13
-2.33
-2.40
-2.29
-1.96
-1.38
-0.62
0.20
0.96
1.53
1.86
1.99
1.95
1.83
1.67
1.49
1.27
1.02
0.73
0.46
0.25
0.15
0.16
0.23
0.33
0.41
0.49
0.58
0.70
0.83
0.95
1.00
0.98
0.90
0.78
0.65
0.51
0.35
0.16
-0.06
-0.30
-0.60
-0.97
-1.41
-1.86
-2.19
-2.29
-2.09
-1.65
-1.08
-0.53
-0.06
0.35
0.81
1.34
1.92
2.39
2.58
2.39
1.88
1.26
0.74
0.50
0.53
0.71
0.83
0.74
0.42
-0.04
-0.45
-0.71
-0.74
-0.61
-0.41
-0.24
-0.12
-0.02
0.11
0.27
0.42
0.47
0.35
0.09
-0.24
-0.50
-0.61
-0.57
-0.44
-0.33
-0.33
-0.43
-0.56
-0.63
-0.54
-0.30
0.03
0.36
0.62
0.78
0.86
0.89
0.90
0.85
0.72
0.50
0.19
-0.13
-0.36
-0.42
-0.25
0.12
0.62
1.13
1.53
1.70
1.61
1.28
0.82
0.39
0.14
0.13
0.32
0.57
0.70
0.61
0.29
-0.18
-0.66
-1.02
-1.24
-1.35
-1.42
-1.53
-1.69
-1.83
-1.87
-1.71
-1.30
-0.66
0.14
0.94
1.61
2.04
2.21
2.17
2.00
1.75
1.42
1.02
0.58
0.18
-0.09
-0.17
-0.08
0.07
0.15
0.07
-0.14
-0.41
-0.65
-0.79
-0.86
-0.90
-0.95
-1.05
-1.20
-1.35
-1.49
-1.60
-1.66
-1.68
-1.69
-1.70
-1.73
-1.76
-1.79
-1.80
-1.77
-1.65
-1.40
-0.99
-0.41
0.25
0.91
1.44
1.78
1.92
1.90
1.76
1.59
1.44
1.35
1.36
1.44
1.51
1.49
1.34
1.09
0.83
0.66
0.64
0.76
0.94
1.09
1.14
1.05
0.81
0.44
0.00
-0.42
-0.75
-0.92
-0.93
-0.81
-0.62
-0.42
-0.25
-0.15
-0.14
-0.25
-0.50
-0.84
-1.17
-1.37
-1.33
-1.02
-0.51
0.07
0.58
0.95
1.17
1.26
1.23
1.07
0.76
0.29
-0.23
-0.65
-0.86
-0.80
-0.52
-0.17
0.11
0.27
0.32
0.33
0.38
0.50
0.66
0.84
0.95
0.97
0.86
0.62
0.27
-0.16
-0.66
-1.18
-1.65
-2.00
-2.18
-2.20
-2.11
-2.02
-2.03
-2.16
-2.40
-2.65
-2.86
-2.97
-2.98
-2.87
-2.64
-2.31
-1.93
-1.60
-1.47
-1.60
-1.96
-2.38
-2.66
-2.61
-2.22
-1.57
-0.82
-0.08
0.64
1.41
2.27
3.24
4.20
4.96
5.38
5.37
4.93
4.17
3.20
2.12
1.03
0.02
-0.79
-1.28
-1.38
-1.08
-0.46
0.33
1.10
1.66
1.85
1.63
1.02
0.15
-0.81
-1.66
-2.24
-2.47
-2.33
-1.88
-1.24
-0.50
0.22
0.84
1.28
1.50
1.50
1.34
1.09
0.88
0.80
0.87
1.07
1.33
1.57
1.75
1.83
1.82
1.72
1.58
1.39
1.15
0.84
0.45
-0.03
-0.54
-1.03
-1.45
-1.76
-2.00
-2.21
-2.41
-2.59
-2.74
-2.82
-2.87
-2.90
-2.94
-2.95
-2.85
-2.55
-2.03
-1.30
-0.50
0.28
0.91
1.35
1.59
1.65
1.57
1.42
1.28
1.20
1.23
1.35
1.51
1.67
1.76
1.76
1.71
1.62
1.54
1.46
1.36
1.18
0.89
0.53
0.18
-0.06
-0.16
-0.12
-0.05
-0.04
-0.15
-0.33
-0.50
-0.57
-0.54
-0.49
-0.52
-0.66
-0.87
-1.05
-1.12
-1.01
-0.79
-0.52
-0.30
-0.16
-0.09
-0.04
0.01
0.09
0.20
0.34
0.50
0.67
0.80
0.84
0.79
0.66
0.55
0.57
0.80
1.26
1.84
2.36
2.62
2.51
2.02
1.27
0.46
-0.20
-0.58
-0.63
-0.43
-0.13
0.10
0.15
-0.01
-0.32
-0.68
-1.02
-1.28
-1.50
-1.70
-1.87
-1.99
-2.00
-1.86
-1.59
-1.25
-0.89
-0.58
-0.32
-0.06
0.21
0.52
0.85
1.16
1.37
1.43
1.31
1.01
0.62
0.25
0.04
0.08
0.32
0.67
0.99
1.17
1.19
1.12
1.01
0.93
0.83
0.66
0.39
0.03
-0.32
-0.57
-0.66
-0.66
-0.63
-0.70
-0.88
-1.14
-1.40
-1.56
-1.60
-1.58
-1.54
-1.50
-1.45
-1.31
-1.04
-0.65
-0.18
0.29
0.69
1.00
1.23
1.41
1.55
1.61
1.53
1.29
0.89
0.42
0.02
-0.18
-0.13
0.14
0.53
0.93
1.22
1.36
1.36
1.22
0.92
0.47
-0.08
-0.64
-1.10
-1.37
-1.43
-1.35
-1.23
-1.16
-1.16
-1.22
-1.27
-1.28
-1.25
-1.23
-1.24
-1.27
-1.23
-1.05
-0.69
-0.22
0.26
0.63
0.89
1.06
1.24
1.51
1.84
2.15
2.31
2.26
2.03
1.71
1.43
1.28
1.29
1.39
1.51
1.55
1.48
1.29
1.06
0.84
0.70
0.63
0.59
0.52
0.36
0.09
-0.27
-0.65
-0.97
-1.17
-1.22
-1.14
-0.99
-0.82
-0.67
-0.54
-0.43
-0.37
-0.37
-0.46
-0.64
-0.85
-0.96
-0.87
-0.52
0.05
0.71
1.29
1.65
1.71
1.51
1.16
0.77
0.43
0.17
-0.01
-0.10
-0.09
0.07
0.35
0.72
1.07
1.30
1.31
1.11
0.74
0.27
-0.21
-0.64
-0.98
-1.19
-1.27
-1.22
-1.09
-0.94
-0.87
-0.91
-1.09
-1.33
-1.57
-1.73
-1.73
-1.59
-1.32
-1.00
-0.70
-0.48
-0.35
-0.29
-0.22
-0.09
0.12
0.37
0.57
0.64
0.55
0.33
0.10
-0.03
-0.00
0.16
0.38
0.57
0.68
0.74
0.77
0.84
0.96
1.07
1.10
0.99
0.72
0.31
-0.16
-0.62
-1.01
-1.28
-1.41
-1.43
-1.37
-1.33
-1.37
-1.53
-1.80
-2.13
-2.41
-2.58
-2.61
-2.53
-2.33
-2.01
-1.53
-0.89
-0.11
0.70
1.39
1.85
1.99
1.82
1.42
0.92
0.42
0.01
-0.23
-0.27
-0.08
0.31
0.84
1.36
1.73
1.81
1.58
1.11
0.59
0.19
0.00
-0.01
0.02
-0.05
-0.32
-0.76
-1.24
-1.61
-1.77
-1.72
-1.56
-1.44
-1.45
-1.61
-1.80
-1.89
-1.77
-1.43
-0.98
-0.54
-0.19
0.10
0.42
0.83
1.31
1.74
1.95
1.86
1.51
1.06
0.66
0.43
0.39
0.51
0.70
0.91
1.08
1.19
1.21
1.12
0.94
0.67
0.37
0.11
-0.04
-0.04
0.14
0.41
0.66
0.77
0.67
0.35
-0.11
-0.61
-1.06
-1.40
-1.65
-1.82
-1.92
-1.98
-1.99
-1.92
-1.72
-1.33
-0.72
0.04
0.84
1.51
1.93
2.07
2.00
1.84
1.70
1.56
1.37
1.06
0.64
0.20
-0.14
-0.26
-0.16
0.08
0.34
0.53
0.66
0.76
0.89
1.02
1.07
0.91
0.46
-0.22
-0.98
-1.61
-1.95
-1.98
-1.82
-1.66
-1.64
-1.80
-2.06
-2.25
-2.21
-1.87
-1.22
-0.36
0.60
1.52
2.27
2.71
2.74
2.35
1.62
0.72
-0.14
-0.76
-1.03
-0.92
-0.53
0.02
0.58
1.03
1.31
1.39
1.29
1.03
0.67
0.25
-0.17
-0.52
-0.77
-0.88
-0.88
-0.83
-0.81
-0.85
-0.96
-1.08
-1.18
-1.23
-1.24
-1.25
-1.30
-1.42
-1.55
-1.63
-1.60
-1.42
-1.09
-0.62
-0.05
0.56
1.14
1.59
1.81
1.75
1.43
0.94
0.46
0.15
0.14
0.46
1.04
1.69
2.20
2.38
2.18
1.61
0.84
0.03
-0.68
-1.24
-1.67
-2.01
-2.28
-2.50
-2.65
-2.72
-2.75
-2.77
-2.81
-2.87
-2.94
-2.99
-3.02
-3.00
-2.93
-2.81
-2.61
-2.35
-2.06
-1.77
-1.50
-1.23
-0.90
-0.46
0.05
0.57
0.99
1.26
1.43
1.62
1.98
2.59
3.36
4.11
4.62
4.76
4.55
4.09
3.51
2.91
2.30
1.72
1.20
0.83
0.66
0.70
0.88
1.06
1.16
1.15
1.05
0.92
0.75
0.53
0.23
-0.11
-0.40
-0.48
-0.26
0.24
0.92
1.58
2.01
2.12
1.92
1.52
1.09
0.73
0.48
0.32
0.20
0.12
0.09
0.17
0.37
0.67
0.93
1.04
0.93
0.61
0.21
-0.13
-0.32
-0.37
-0.36
-0.41
-0.58
-0.81
-0.98
-0.97
-0.76
-0.46
-0.26
-0.30
-0.63
-1.13
-1.58
-1.79
-1.67
-1.25
-0.67
-0.10
0.39
0.80
1.17
1.48
1.68
1.63
1.27
0.65
-0.05
-0.55
-0.64
-0.27
0.41
1.09
1.53
1.58
1.31
0.87
0.42
0.03
-0.37
-0.83
-1.38
-1.93
-2.35
-2.49
-2.29
-1.78
-1.08
-0.32
0.36
0.86
1.11
1.12
0.92
0.56
0.11
-0.39
-0.90
-1.35
-1.67
-1.78
-1.64
-1.29
-0.82
-0.34
0.08
0.40
0.64
0.82
0.95
1.02
1.02
0.94
0.81
0.66
0.56
0.54
0.65
0.86
1.10
1.25
1.21
0.93
0.44
-0.15
-0.68
-1.09
-1.35
-1.49
-1.59
-1.65
-1.67
-1.61
-1.45
-1.16
-0.72
-0.15
0.52
1.21
1.79
2.13
2.20
2.03
1.72
1.42
1.17
0.98
0.79
0.58
0.40
0.33
0.45
0.70
0.99
1.16
1.12
0.90
0.59
0.34
0.25
0.31
0.44
0.52
0.45
0.18
-0.20
-0.54
-0.71
-0.68
-0.53
-0.42
-0.45
-0.63
-0.83
-0.93
-0.85
-0.63
-0.40
-0.23
-0.11
0.08
0.42
0.89
1.38
1.73
1.85
1.74
1.53
1.32
1.15
1.02
0.88
0.71
0.54
0.42
0.38
0.43
0.50
0.52
0.44
0.26
0.01
-0.22
-0.34
-0.33
-0.22
-0.12
-0.12
-0.30
-0.66
-1.09
-1.49
-1.75
-1.81
-1.66
-1.37
-1.05
-0.80
-0.68
-0.71
-0.83
-0.95
-0.98
-0.86
-0.57
-0.13
0.38
0.89
1.29
1.50
1.49
1.26
0.93
0.59
0.33
0.16
0.04
-0.07
-0.19
-0.30
-0.35
-0.33
-0.24
-0.13
-0.05
-0.04
-0.13
-0.32
-0.58
-0.86
-1.14
-1.33
-1.38
-1.25
-0.95
-0.52
-0.09
0.20
0.22
-0.07
-0.60
-1.20
-1.67
-1.88
-1.83
-1.63
-1.43
-1.28
-1.15
-0.92
-0.52
0.04
0.61
1.05
1.27
1.29
1.21
1.14
1.10
1.01
0.82
0.51
0.23
0.15
0.40
0.96
1.58
1.98
1.94
1.45
0.70
-0.03
-0.51
-0.69
-0.68
-0.67
-0.77
-0.98
-1.23
-1.41
-1.49
-1.54
-1.65
-1.88
-2.20
-2.52
-2.71
-2.69
-2.46
-2.06
-1.59
-1.12
-0.71
-0.33
0.04
0.45
0.91
1.35
1.71
1.92
1.98
1.95
1.92
1.93
1.94
1.87
1.62
1.23
0.81
0.57
0.60
0.85
1.10
1.11
0.75
0.09
-0.63
-1.17
-1.40
-1.34
-1.09
-0.78
-0.48
-0.23
-0.03
0.07
0.04
-0.17
-0.49
-0.83
-1.11
-1.29
-1.38
-1.41
-1.37
-1.27
-1.09
-0.88
-0.70
-0.59
-0.55
-0.51
-0.42
-0.21
0.09
0.45
0.83
1.17
1.44
1.58
1.56
1.35
1.01
0.64
0.38
0.35
0.54
0.88
1.22
1.45
1.47
1.29
0.95
0.53
0.11
-0.26
-0.54
-0.68
-0.65
-0.47
-0.20
0.06
0.19
0.14
-0.07
-0.35
-0.58
-0.69
-0.64
-0.48
-0.32
-0.24
-0.31
-0.57
-0.95
-1.32
-1.54
-1.49
-1.16
-0.62
-0.06
0.37
0.60
0.69
0.75
0.85
1.00
1.09
1.04
0.79
0.41
-0.01
-0.34
-0.51
-0.49
-0.30
0.01
0.36
0.67
0.87
0.91
0.79
0.58
0.37
0.23
0.14
0.03
-0.15
-0.43
-0.76
-1.05
-1.23
-1.28
-1.27
-1.26
-1.29
-1.36
-1.41
-1.37
-1.22
-0.97
-0.73
-0.58
-0.61
-0.80
-1.07
-1.31
-1.44
-1.43
-1.30
-1.08
-0.77
-0.34
0.19
0.80
1.37
1.81
2.05
2.10
2.02
1.84
1.59
1.28
0.94
0.66
0.53
0.59
0.78
0.99
1.11
1.11
0.99
0.80
0.58
0.34
0.05
-0.24
-0.51
-0.68
-0.76
-0.77
-0.77
-0.82
-0.95
-1.14
-1.38
-1.62
-1.82
-1.93
-1.95
-1.89
-1.80
-1.70
-1.60
-1.47
-1.23
-0.86
-0.38
0.15
0.63
1.04
1.34
1.57
1.68
1.65
1.44
1.10
0.72
0.41
0.29
0.41
0.70
1.03
1.28
1.36
1.26
1.11
1.01
1.05
1.22
1.41
1.45
1.25
0.82
0.29
-0.14
-0.33
-0.29
-0.15
-0.06
-0.14
-0.36
-0.63
-0.81
-0.82
-0.67
-0.46
-0.27
-0.20
-0.27
-0.49
-0.80
-1.12
-1.34
-1.37
-1.14
-0.68
-0.08
0.51
0.98
1.24
1.27
1.14
0.93
0.78
0.75
0.87
1.08
1.28
1.33
1.18
0.86
0.46
0.13
-0.02
0.02
0.20
0.40
0.52
0.51
0.35
0.09
-0.23
-0.56
-0.83
-1.02
-1.11
-1.11
-1.08
-1.08
-1.15
-1.29
-1.46
-1.62
-1.75
-1.84
-1.91
-1.97
-1.99
-1.89
-1.62
-1.15
-0.53
0.11
0.64
0.96
1.06
1.01
0.93
0.91
0.95
1.04
1.10
1.12
1.09
1.05
1.03
1.03
1.00
0.91
0.76
0.56
0.34
0.12
-0.13
-0.39
-0.64
-0.83
-0.92
-0.88
-0.74
-0.57
-0.41
-0.31
-0.26
-0.26
-0.29
-0.38
-0.55
-0.81
-1.17
-1.58
-1.99
-2.31
-2.49
-2.42
-2.06
-1.45
-0.67
0.10
0.70
1.00
0.99
0.77
0.48
0.28
0.29
0.49
0.83
1.16
1.37
1.37
1.20
0.98
0.85
0.87
1.04
1.23
1.30
1.16
0.83
0.45
0.14
-0.01
-0.02
0.00
-0.03
-0.18
-0.41
-0.69
-0.95
-1.13
-1.20
-1.11
-0.87
-0.55
-0.26
-0.11
-0.19
-0.45
-0.75
-0.96
-0.97
-0.80
-0.47
-0.05
0.44
0.98
1.49
1.87
1.97
1.74
1.24
0.64
0.14
-0.09
-0.00
0.33
0.78
1.18
1.43
1.48
1.34
1.07
0.75
0.44
0.17
-0.04
-0.17
-0.22
-0.18
-0.06
0.08
0.19
0.20
0.11
-0.06
-0.28
-0.52
-0.80
-1.14
-1.54
-1.90
-2.10
-2.03
-1.62
-0.96
-0.22
0.39
0.72
0.73
0.48
0.08
-0.35
-0.79
-1.22
-1.62
-1.92
-2.05
-1.96
-1.69
-1.35
-1.08
-1.03
-1.22
-1.57
-2.00
-2.40
-2.74
-3.02
-3.25
-3.40
-3.43
-3.31
-3.06
-2.72
-2.33
-1.92
-1.47
-0.96
-0.38
0.22
0.79
1.29
1.74
2.21
2.78
3.48
4.23
4.87
5.25
5.30
5.03
4.55
3.99
3.44
2.95
2.52
2.12
1.78
1.53
1.42
1.46
1.59
1.69
1.68
1.47
1.08
0.56
0.02
-0.50
-0.95
-1.28
-1.46
-1.42
-1.15
-0.70
-0.21
0.11
0.12
-0.22
-0.78
-1.32
-1.66
-1.69
-1.46
-1.07
-0.63
-0.17
0.31
0.81
1.30
1.68
1.86
1.80
1.55
1.20
0.84
0.54
0.32
0.18
0.13
0.15
0.21
0.27
0.28
0.20
0.06
-0.10
-0.20
-0.21
-0.12
0.01
0.13
0.20
0.20
0.13
0.02
-0.13
-0.30
-0.49
-0.70
-0.94
-1.21
-1.46
-1.66
-1.79
-1.83
-1.77
-1.59
-1.25
-0.74
-0.09
0.62
1.28
1.75
1.92
1.78
1.40
0.88
0.38
0.00
-0.20
-0.22
-0.07
0.21
0.55
0.86
1.10
1.21
1.23
1.18
1.13
1.07
0.97
0.73
0.31
-0.28
-0.93
-1.49
-1.84
-1.93
-1.79
-1.50
-1.15
-0.83
-0.59
-0.47
-0.51
-0.66
-0.82
-0.88
-0.72
-0.33
0.22
0.78
1.21
1.44
1.50
1.48
1.46
1.46
1.44
1.31
1.05
0.68
0.30
0.03
-0.08
-0.05
0.03
0.07
0.03
-0.08
-0.20
-0.30
-0.36
-0.40
-0.41
-0.40
-0.35
-0.27
-0.22
-0.24
-0.37
-0.58
-0.79
-0.93
-0.96
-0.89
-0.80
-0.74
-0.74
-0.77
-0.80
-0.73
-0.49
-0.04
0.60
1.30
1.87
2.15
2.02
1.54
0.89
0.29
-0.09
-0.17
-0.04
0.19
0.41
0.60
0.76
0.91
1.04
1.08
0.96
0.69
0.30
-0.10
-0.42
-0.62
-0.70
-0.72
-0.75
-0.83
-0.96
-1.12
-1.26
-1.37
-1.46
-1.53
-1.58
-1.61
-1.59
-1.48
-1.26
-0.94
-0.53
-0.06
0.45
0.96
1.43
1.79
1.95
1.84
1.46
0.88
0.27
-0.20
-0.41
-0.33
-0.08
0.16
0.25
0.11
-0.17
-0.46
-0.61
-0.61
-0.51
-0.42
-0.43
-0.55
-0.72
-0.88
-1.02
-1.15
-1.32
-1.53
-1.74
-1.88
-1.91
-1.83
-1.71
-1.59
-1.51
-1.43
-1.28
-0.98
-0.51
0.11
0.81
1.49
2.04
2.33
2.32
2.01
1.49
0.93
0.46
0.20
0.16
0.28
0.46
0.61
0.70
0.75
0.78
0.79
0.76
0.66
0.50
0.27
0.05
-0.13
-0.22
-0.25
-0.27
-0.35
-0.50
-0.67
-0.80
-0.80
-0.69
-0.56
-0.56
-0.77
-1.14
-1.53
-1.74
-1.57
-0.99
-0.10
0.93
1.83
2.42
2.58
2.34
1.78
1.10
0.48
0.04
-0.15
-0.09
0.15
0.48
0.84
1.16
1.37
1.39
1.18
0.74
0.13
-0.55
-1.17
-1.64
-1.92
-2.03
-2.05
-2.02
-1.97
-1.93
-1.87
-1.84
-1.88
-2.01
-2.25
-2.55
-2.88
-3.19
-3.46
-3.61
-3.56
-3.24
-2.63
-1.84
-1.05
-0.46
-0.22
-0.32
-0.65
-1.03
-1.34
-1.54
-1.64
-1.62
-1.39
-0.88
-0.05
0.99
2.06
2.92
3.43
3.58
3.48
3.26
3.04
2.89
2.77
2.65
2.50
2.28
1.97
1.57
1.09
0.62
0.28
0.16
0.28
0.55
0.81
0.88
0.71
0.37
0.03
-0.13
0.05
0.57
1.30
2.06
2.66
2.97
2.94
2.59
2.00
1.27
0.55
-0.04
-0.38
-0.41
-0.15
0.28
0.71
0.99
1.07
0.98
0.83
0.71
0.65
0.61
0.52
0.36
0.15
-0.06
-0.23
-0.35
-0.48
-0.65
-0.85
-1.05
-1.21
-1.36
-1.56
-1.90
-2.35
-2.81
-3.09
-3.01
-2.51
-1.67
-0.67
0.29
1.09
1.70
2.12
2.34
2.29
1.94
1.30
0.51
-0.19
-0.57
-0.51
-0.05
0.62
1.28
1.72
1.89
1.80
1.55
1.23
0.90
0.58
0.28
0.01
-0.20
-0.33
-0.36
-0.32
-0.28
-0.26
-0.30
-0.35
-0.36
-0.34
-0.35
-0.49
-0.84
-1.40
-2.02
-2.50
-2.60
-2.20
-1.37
-0.28
0.80
1.64
2.10
2.19
1.99
1.66
1.37
1.19
1.15
1.19
1.22
1.18
1.07
0.90
0.72
0.57
0.45
0.38
0.37
0.43
0.56
0.73
0.89
0.96
0.91
0.72
0.44
0.11
-0.19
-0.42
-0.56
-0.64
-0.70
-0.80
-0.95
-1.16
-1.39
-1.60
-1.75
-1.83
-1.83
-1.74
-1.54
-1.21
-0.74
-0.20
0.35
0.81
1.12
1.27
1.30
1.23
1.12
1.00
0.89
0.83
0.82
0.84
0.85
0.83
0.74
0.63
0.53
0.51
0.55
0.58
0.52
0.30
-0.09
-0.57
-1.02
-1.35
-1.48
-1.45
-1.30
-1.13
-1.01
-0.98
-1.05
-1.21
-1.42
-1.65
-1.86
-2.02
-2.10
-2.08
-1.93
-1.60
-1.08
-0.40
0.35
1.05
1.58
1.87
1.93
1.81
1.60
1.36
1.15
0.99
0.88
0.84
0.83
0.82
0.78
0.71
0.59
0.44
0.26
0.07
-0.10
-0.22
-0.24
-0.17
-0.04
0.04
0.00
-0.22
-0.61
-1.06
-1.48
-1.75
-1.87
-1.90
-1.91
-1.96
-2.05
-2.11
-2.11
-2.03
-1.92
-1.83
-1.77
-1.69
-1.46
-1.00
-0.29
0.58
1.43
2.05
2.37
2.38
2.23
2.04
1.89
1.78
1.66
1.46
1.20
0.94
0.76
0.70
0.73
0.80
0.83
0.83
0.84
0.90
1.02
1.11
1.07
0.81
0.35
-0.22
-0.70
-0.94
-0.92
-0.73
-0.56
-0.58
-0.87
-1.34
-1.82
-2.13
-2.20
-2.08
-1.86
-1.59
-1.27
-0.83
-0.21
0.53
1.27
1.80
2.01
1.91
1.60
1.24
0.99
0.86
0.82
0.73
0.53
0.20
-0.15
-0.34
-0.26
0.15
0.78
1.43
1.88
2.00
1.75
1.24
0.61
0.05
-0.32
-0.50
-0.54
-0.56
-0.66
-0.88
-1.17
-1.44
-1.59
-1.60
-1.51
-1.42
-1.38
-1.38
-1.35
-1.23
-1.02
-0.75
-0.46
-0.18
0.13
0.49
0.92
1.34
1.64
1.70
1.50
1.13
0.71
0.41
0.29
0.37
0.57
0.79
0.96
1.00
0.89
0.65
0.32
-0.04
-0.36
-0.62
-0.77
-0.84
-0.89
-0.98
-1.14
-1.38
-1.66
-1.89
-2.00
-1.96
-1.80
-1.60
-1.47
-1.51
-1.72
-2.00
-2.19
-2.12
-1.68
-0.88
0.13
1.14
1.93
2.36
2.40
2.15
1.74
1.33
0.99
0.75
0.56
0.41
0.32
0.32
0.45
0.67
0.89
0.98
0.88
0.60
0.25
-0.01
-0.09
0.01
0.16
0.20
0.02
-0.36
-0.83
-1.24
-1.53
-1.70
-1.83
-1.97
-2.11
-2.19
-2.16
-1.99
-1.73
-1.47
-1.25
-1.07
-0.86
-0.55
-0.13
0.38
0.89
1.32
1.61
1.76
1.79
1.74
1.66
1.58
1.54
1.56
1.61
1.69
1.78
1.83
1.81
1.69
1.43
1.06
0.62
0.18
-0.19
-0.49
-0.69
-0.83
-0.91
-0.92
-0.84
-0.69
-0.51
-0.38
-0.39
-0.59
-0.95
-1.36
-1.69
-1.82
-1.73
-1.46
-1.13
-0.77
-0.38
0.10
0.72
1.46
2.21
2.81
3.11
3.08
2.79
2.35
1.90
1.51
1.21
1.02
0.94
0.98
1.10
1.22
1.20
0.97
0.52
-0.07
-0.60
-0.92
-0.94
-0.74
-0.43
-0.20
-0.12
-0.19
-0.34
-0.49
-0.58
-0.62
-0.64
-0.67
-0.73
-0.85
-1.05
-1.36
-1.75
-2.09
-2.22
-1.98
-1.29
-0.27
0.82
1.73
2.26
2.39
2.26
2.04
1.82
1.62
1.37
1.04
0.66
0.34
0.18
0.19
0.31
0.39
0.36
0.19
-0.01
-0.15
-0.15
-0.01
0.19
0.35
0.35
0.15
-0.21
-0.64
-1.02
-1.26
-1.32
-1.27
-1.20
-1.18
-1.26
-1.38
-1.47
-1.48
-1.38
-1.21
-0.99
-0.77
-0.56
-0.34
-0.08
0.26
0.66
1.08
1.44
1.63
1.61
1.41
1.12
0.80
0.52
0.28
0.10
0.02
0.11
0.44
0.98
1.54
1.88
1.78
1.17
0.21
-0.81
-1.60
-1.98
-1.97
-1.71
-1.38
-1.11
-0.99
-1.00
-1.13
-1.32
-1.53
-1.72
-1.84
-1.84
-1.72
-1.49
-1.18
-0.79
-0.32
0.21
0.78
1.31
1.73
1.94
1.95
1.80
1.56
1.30
1.05
0.81
0.56
0.31
0.09
-0.04
-0.01
0.20
0.52
0.88
1.18
1.34
1.35
1.24
1.05
0.85
0.64
0.44
0.25
0.05
-0.17
-0.42
-0.69
-1.01
-1.37
-1.70
-1.96
-2.04
-1.90
-1.50
-0.87
-0.10
0.68
1.33
1.72
1.84
1.70
1.43
1.12
0.87
0.70
0.64
0.67
0.75
0.89
1.04
1.19
1.30
1.32
1.22
0.99
0.62
0.18
-0.25
-0.58
-0.76
-0.83
-0.84
-0.86
-0.92
-0.96
-0.93
-0.84
-0.73
-0.70
-0.82
-1.07
-1.35
-1.53
-1.52
-1.33
-1.05
-0.79
-0.61
-0.50
-0.43
-0.35
-0.21
-0.01
0.26
0.54
0.77
0.91
0.94
0.88
0.78
0.66
0.54
0.45
0.39
0.40
0.50
0.65
0.75
0.67
0.30
-0.33
-1.05
-1.63
-1.88
-1.75
-1.33
-0.85
-0.51
-0.42
-0.56
-0.83
-1.11
-1.33
-1.49
-1.61
-1.70
-1.74
-1.67
-1.46
-1.12
-0.72
-0.38
-0.19
-0.14
-0.20
-0.28
-0.31
-0.28
-0.21
-0.12
0.02
0.23
0.52
0.83
1.07
1.12
0.96
0.64
0.29
0.06
-0.00
0.05
0.09
0.02
-0.16
-0.36
-0.43
-0.29
-0.01
0.27
0.34
0.14
-0.28
-0.74
-1.04
-1.11
-0.97
-0.76
-0.62
-0.62
-0.72
-0.82
-0.84
-0.72
-0.47
-0.15
0.16
0.42
0.60
0.70
0.75
0.76
0.76
0.76
0.77
0.81
0.91
1.09
1.36
1.66
1.89
1.96
1.80
1.44
0.99
0.60
0.37
0.33
0.44
0.60
0.75
0.87
0.98
1.09
1.18
1.17
1.00
0.68
0.24
-0.21
-0.63
-0.97
-1.25
-1.48
-1.66
-1.77
-1.79
-1.70
-1.51
-1.25
-0.92
-0.54
-0.12
0.33
0.77
1.14
1.37
1.41
1.26
0.98
0.66
0.42
0.36
0.48
0.72
0.97
1.11
1.11
0.97
0.78
0.58
0.35
0.07
-0.29
-0.68
-1.02
-1.20
-1.17
-0.97
-0.68
-0.41
-0.20
-0.06
0.02
0.04
-0.03
-0.22
-0.50
-0.84
-1.14
-1.36
-1.44
-1.40
-1.27
-1.10
-0.91
-0.73
-0.54
-0.31
-0.03
0.26
0.52
0.68
0.71
0.64
0.54
0.45
0.37
0.27
0.11
-0.05
-0.13
-0.02
0.33
0.84
1.36
1.71
1.76
1.49
0.98
0.39
-0.13
-0.45
-0.53
-0.42
-0.23
-0.09
-0.08
-0.22
-0.45
-0.69
-0.90
-1.09
-1.28
-1.47
-1.60
-1.62
-1.49
-1.26
-1.03
-0.88
-0.83
-0.81
-0.73
-0.51
-0.18
0.16
0.43
0.58
0.67
0.76
0.91
1.11
1.28
1.35
1.33
1.23
1.14
1.07
1.01
0.92
0.76
0.57
0.42
0.36
0.41
0.49
0.52
0.45
0.29
0.11
-0.03
-0.13
-0.20
-0.29
-0.41
-0.52
-0.53
-0.38
-0.07
0.29
0.58
0.68
0.54
0.21
-0.23
-0.67
-1.05
-1.35
-1.59
-1.76
-1.82
-1.71
-1.35
-0.77
-0.06
0.63
1.14
1.42
1.46
1.35
1.16
0.95
0.73
0.49
0.23
-0.02
-0.18
-0.22
-0.10
0.16
0.51
0.85
1.09
1.20
1.14
0.96
0.73
0.50
0.30
0.11
-0.10
-0.32
-0.52
-0.66
-0.70
-0.64
-0.53
-0.46
-0.51
-0.70
-1.03
-1.42
-1.76
-2.00
-2.09
-2.07
-2.00
-1.91
-1.79
-1.60
-1.29
-0.85
-0.30
0.29
0.84
1.30
1.61
1.72
1.62
1.31
0.86
0.39
0.01
-0.19
-0.18
0.02
0.36
0.75
1.10
1.29
1.26
0.97
0.51
0.02
-0.31
-0.38
-0.19
0.14
0.43
0.54
0.44
0.18
-0.11
-0.32
-0.39
-0.35
-0.28
-0.25
-0.31
-0.45
-0.65
-0.89
-1.18
-1.51
-1.89
-2.26
-2.53
-2.58
-2.34
-1.83
-1.17
-0.50
0.06
0.45
0.69
0.82
0.89
0.90
0.88
0.86
0.88
0.97
1.12
1.26
1.31
1.25
1.08
0.88
0.73
0.64
0.59
0.53
0.41
0.25
0.10
0.03
0.04
0.10
0.14
0.10
-0.04
-0.22
-0.37
-0.44
-0.42
-0.36
-0.35
-0.43
-0.59
-0.79
-0.94
-1.02
-1.03
-1.04
-1.11
-1.28
-1.50
-1.70
-1.77
-1.64
-1.31
-0.84
-0.34
0.12
0.51
0.84
1.14
1.39
1.58
1.65
1.61
1.50
1.39
1.33
1.29
1.21
1.03
0.75
0.43
0.17
0.06
0.13
0.33
0.59
0.86
1.09
1.24
1.31
1.28
1.15
0.92
0.66
0.37
0.08
-0.20
-0.46
-0.66
-0.73
-0.65
-0.46
-0.26
-0.17
-0.25
-0.44
-0.65
-0.76
-0.75
-0.67
-0.62
-0.68
-0.84
-1.04
-1.15
-1.09
-0.84
-0.46
-0.03
0.33
0.58
0.68
0.66
0.59
0.51
0.44
0.37
0.26
0.09
-0.10
-0.23
-0.23
-0.03
0.34
0.74
1.03
1.05
0.78
0.32
-0.13
-0.40
-0.37
-0.09
0.32
0.70
0.95
1.01
0.87
0.57
0.17
-0.26
-0.66
-0.97
-1.13
-1.17
-1.14
-1.10
-1.12
-1.20
-1.35
-1.52
-1.72
-1.91
-2.06
-2.10
-1.92
-1.47
-0.78
0.03
0.79
1.30
1.49
1.40
1.15
0.93
0.84
0.85
0.91
0.91
0.83
0.71
0.65
0.70
0.87
1.07
1.18
1.11
0.85
0.44
0.00
-0.37
-0.62
-0.77
-0.83
-0.84
-0.79
-0.69
-0.58
-0.54
-0.65
-0.90
-1.27
-1.62
-1.86
-1.92
-1.83
-1.71
-1.63
-1.65
-1.72
-1.76
-1.69
-1.49
-1.18
-0.81
-0.43
-0.07
0.25
0.57
0.89
1.26
1.66
2.08
2.47
2.77
2.91
2.84
2.59
2.22
1.84
1.53
1.32
1.23
1.20
1.23
1.28
1.33
1.33
1.23
0.97
0.54
0.00
-0.52
-0.89
-1.03
-0.95
-0.71
-0.41
-0.14
0.01
-0.01
-0.20
-0.50
-0.83
-1.08
-1.19
-1.16
-1.08
-1.06
-1.16
-1.37
-1.59
-1.72
-1.66
-1.40
-1.01
-0.53
-0.03
0.46
0.89
1.21
1.34
1.25
1.00
0.71
0.53
0.58
0.84
1.21
1.51
1.62
1.53
1.31
1.09
0.95
0.92
0.97
1.01
0.98
0.84
0.59
0.30
0.03
-0.14
-0.19
-0.13
-0.02
0.09
0.14
0.12
0.03
-0.13
-0.35
-0.65
-1.04
-1.47
-1.87
-2.12
-2.17
-2.02
-1.72
-1.38
-1.09
-0.88
-0.75
-0.61
-0.40
-0.07
0.35
0.78
1.13
1.29
1.26
1.08
0.83
0.60
0.42
0.32
0.29
0.35
0.51
0.76
1.05
1.27
1.33
1.20
0.91
0.59
0.31
0.13
0.02
-0.11
-0.31
-0.63
-1.03
-1.42
-1.71
-1.80
-1.69
-1.43
-1.15
-0.98
-1.01
-1.22
-1.52
-1.80
-1.98
-2.07
-2.07
-2.00
-1.80
-1.42
-0.84
-0.09
0.71
1.41
1.88
2.02
1.83
1.40
0.87
0.42
0.18
0.19
0.38
0.65
0.85
0.95
0.94
0.90
0.88
0.84
0.72
0.44
0.00
-0.48
-0.86
-1.05
-1.03
-0.91
-0.84
-0.89
-1.06
-1.22
-1.25
-1.10
-0.86
-0.69
-0.73
-1.00
-1.40
-1.79
-2.00
-2.00
-1.80
-1.49
-1.14
-0.78
-0.41
0.00
0.45
0.90
1.27
1.50
1.57
1.49
1.31
1.13
1.04
1.08
1.24
1.48
1.72
1.90
2.00
2.02
1.95
1.79
1.52
1.17
0.78
0.41
0.11
-0.11
-0.29
-0.47
-0.68
-0.90
-1.07
-1.14
-1.10
-1.01
-0.96
-0.99
-1.11
-1.24
-1.34
-1.37
-1.41
-1.52
-1.73
-1.96
-2.05
-1.85
-1.29
-0.48
0.41
1.19
1.75
2.11
2.28
2.30
2.15
1.82
1.34
0.83
0.41
0.17
0.13
0.22
0.37
0.53
0.68
0.80
0.85
0.75
0.50
0.14
-0.19
-0.39
-0.40
-0.27
-0.15
-0.14
-0.28
-0.50
-0.70
-0.79
-0.78
-0.75
-0.81
-0.99
-1.26
-1.49
-1.55
-1.39
-1.06
-0.70
-0.45
-0.34
-0.31
-0.21
0.05
0.47
0.93
1.29
1.48
1.54
1.55
1.62
1.70
1.68
1.44
0.96
0.38
-0.11
-0.32
-0.19
0.17
0.60
0.92
1.02
0.88
0.54
0.12
-0.27
-0.51
-0.51
-0.26
0.14
0.55
0.79
0.77
0.48
0.03
-0.46
-0.91
-1.31
-1.66
-1.99
-2.28
-2.46
-2.48
-2.32
-1.95
-1.38
-0.65
0.20
1.07
1.81
2.32
2.54
2.48
2.26
1.97
1.71
1.53
1.45
1.48
1.59
1.76
1.92
1.99
1.93
1.72
1.43
1.12
0.85
0.65
0.53
0.45
0.38
0.31
0.21
0.08
-0.05
-0.15
-0.20
-0.22
-0.23
-0.27
-0.38
-0.54
-0.75
-0.98
-1.23
-1.47
-1.68
-1.80
-1.79
-1.63
-1.36
-1.09
-0.85
-0.65
-0.43
-0.10
0.34
0.83
1.25
1.49
1.53
1.43
1.31
1.28
1.36
1.48
1.55
1.50
1.33
1.09
0.90
0.80
0.80
0.86
0.87
0.78
0.55
0.24
-0.05
-0.22
-0.23
-0.12
0.03
0.10
0.05
-0.12
-0.31
-0.47
-0.55
-0.61
-0.73
-0.97
-1.33
-1.73
-2.03
-2.14
-2.02
-1.69
-1.23
-0.74
-0.29
0.06
0.31
0.51
0.67
0.83
0.96
1.04
1.02
0.87
0.66
0.45
0.35
0.42
0.64
0.89
1.06
1.07
0.92
0.70
0.53
0.47
0.49
0.49
0.37
0.07
-0.38
-0.87
-1.29
-1.56
-1.71
-1.79
-1.84
-1.88
-1.88
-1.86
-1.84
-1.85
-1.91
-1.97
-1.99
-1.88
-1.63
-1.24
-0.77
-0.26
0.27
0.80
1.30
1.74
2.07
2.27
2.33
2.27
2.04
1.64
1.09
0.49
-0.02
-0.30
-0.32
-0.15
0.06
0.19
0.20
0.17
0.19
0.33
0.57
0.79
0.91
0.87
0.72
0.52
0.36
0.25
0.17
0.06
-0.14
-0.43
-0.77
-1.09
-1.30
-1.40
-1.37
-1.30
-1.22
-1.18
-1.15
-1.11
-1.02
-0.85
-0.60
-0.29
0.09
0.52
1.01
1.51
1.95
2.20
2.17
1.82
1.20
0.49
-0.13
-0.51
-0.60
-0.42
-0.08
0.32
0.68
0.92
0.99
0.87
0.60
0.24
-0.09
-0.33
-0.43
-0.41
-0.34
-0.27
-0.22
-0.18
-0.13
-0.06
0.02
0.07
0.07
-0.00
-0.13
-0.30
-0.46
-0.59
-0.67
-0.72
-0.77
-0.78
-0.71
-0.51
-0.15
0.30
0.75
1.09
1.28
1.32
1.27
1.16
1.00
0.76
0.41
0.00
-0.39
-0.64
-0.68
-0.48
-0.11
0.31
0.65
0.80
0.73
0.49
0.18
-0.11
-0.30
-0.39
-0.46
-0.56
-0.76
-1.04
-1.34
-1.58
-1.68
-1.66
-1.57
-1.51
-1.55
-1.70
-1.89
-2.06
-2.17
-2.23
-2.30
-2.40
-2.46
-2.32
-1.84
-1.00
0.05
1.05
1.75
2.07
2.08
2.00
1.99
2.09
2.21
2.21
2.06
1.81
1.56
1.40
1.30
1.16
0.90
0.54
0.16
-0.11
-0.23
-0.23
-0.22
-0.25
-0.32
-0.34
-0.23
0.02
0.35
0.63
0.75
0.66
0.38
0.01
-0.34
-0.59
-0.70
-0.72
-0.69
-0.71
-0.83
-1.05
-1.31
-1.52
-1.57
-1.39
-0.95
-0.30
0.45
1.15
1.69
2.00
2.06
1.92
1.63
1.24
0.80
0.38
0.05
-0.12
-0.10
0.07
0.30
0.52
0.68
0.80
0.89
0.94
0.87
0.61
0.17
-0.37
-0.85
-1.10
-1.08
-0.83
-0.50
-0.23
-0.10
-0.14
-0.33
-0.61
-0.90
-1.12
-1.21
-1.13
-0.95
-0.74
-0.62
-0.64
-0.75
-0.85
-0.86
-0.73
-0.50
-0.23
0.04
0.31
0.57
0.82
1.01
1.09
1.02
0.82
0.57
0.35
0.25
0.27
0.39
0.54
0.64
0.65
0.58
0.46
0.32
0.21
0.11
0.02
-0.08
-0.17
-0.25
-0.27
-0.27
-0.28
-0.38
-0.59
-0.88
-1.15
-1.31
-1.32
-1.20
-1.07
-1.01
-1.06
-1.22
-1.44
-1.68
-1.90
-2.05
-2.08
-1.90
-1.49
-0.89
-0.20
0.44
0.94
1.30
1.55
1.74
1.88
1.90
1.72
1.31
0.78
0.27
-0.05
-0.10
0.09
0.39
0.69
0.89
0.97
0.97
0.90
0.78
0.64
0.48
0.34
0.25
0.21
0.19
0.15
0.09
0.01
-0.03
-0.01
0.05
0.04
-0.10
-0.39
-0.76
-1.06
-1.17
-1.07
-0.84
-0.60
-0.47
-0.45
-0.51
-0.58
-0.62
-0.63
-0.62
-0.57
-0.44
-0.21
0.16
0.62
1.08
1.42
1.55
1.43
1.07
0.59
0.17
-0.05
0.04
0.39
0.88
1.30
1.51
1.43
1.16
0.84
0.61
0.55
0.64
0.82
0.95
0.97
0.82
0.54
0.20
-0.11
-0.32
-0.38
-0.33
-0.19
-0.02
0.11
0.15
0.07
-0.17
-0.54
-1.00
-1.45
-1.81
-1.96
-1.91
-1.67
-1.36
-1.09
-0.94
-0.90
-0.91
-0.84
-0.59
-0.19
0.28
0.68
0.91
0.93
0.82
0.65
0.50
0.38
0.30
0.24
0.20
0.23
0.32
0.45
0.58
0.63
0.59
0.47
0.30
0.14
-0.00
-0.10
-0.14
-0.13
-0.05
0.06
0.16
0.22
0.16
-0.01
-0.26
-0.53
-0.76
-0.90
-0.98
-1.06
-1.20
-1.43
-1.72
-1.99
-2.16
-2.14
-1.95
-1.61
-1.20
-0.78
-0.43
-0.16
-0.01
0.03
0.00
-0.03
0.00
0.16
0.44
0.80
1.14
1.38
1.48
1.44
1.31
1.11
0.88
0.65
0.43
0.25
0.14
0.15
0.29
0.50
0.72
0.84
0.79
0.54
0.13
-0.31
-0.64
-0.77
-0.68
-0.43
-0.15
0.06
0.14
0.08
-0.07
-0.28
-0.58
-0.99
-1.52
-2.11
-2.64
-2.96
-3.01
-2.80
-2.45
-2.06
-1.70
-1.36
-0.99
-0.54
-0.01
0.55
1.06
1.45
1.70
1.80
1.77
1.62
1.39
1.15
0.93
0.79
0.76
0.82
0.98
1.21
1.48
1.76
1.99
2.14
2.19
2.15
2.05
1.90
1.70
1.44
1.15
0.86
0.64
0.52
0.44
0.33
0.13
-0.18
-0.51
-0.74
-0.78
-0.67
-0.52
-0.49
-0.67
-1.04
-1.47
-1.82
-1.98
-1.95
-1.79
-1.57
-1.34
-1.07
-0.75
-0.34
0.14
0.61
1.00
1.23
1.26
1.11
0.84
0.58
0.44
0.47
0.65
0.89
1.10
1.21
1.19
1.09
0.98
0.92
0.95
1.01
1.04
0.96
0.72
0.31
-0.19
-0.68
-1.05
-1.21
-1.14
-0.91
-0.61
-0.34
-0.19
-0.19
-0.32
-0.51
-0.68
-0.77
-0.76
-0.71
-0.71
-0.81
-1.01
-1.27
-1.50
-1.61
-1.52
-1.22
-0.71
-0.05
0.63
1.18
1.47
1.41
1.04
0.48
-0.08
-0.48
-0.64
-0.54
-0.24
0.15
0.53
0.77
0.79
0.57
0.17
-0.30
-0.65
-0.79
-0.70
-0.45
-0.15
0.09
0.26
0.35
0.38
0.34
0.23
0.04
-0.20
-0.46
-0.70
-0.93
-1.16
-1.39
-1.61
-1.77
-1.80
-1.66
-1.40
-1.09
-0.83
-0.69
-0.66
-0.64
-0.54
-0.26
0.19
0.72
1.20
1.48
1.52
1.34
1.05
0.79
0.64
0.62
0.68
0.76
0.80
0.79
0.77
0.81
0.91
1.04
1.11
1.05
0.82
0.48
0.14
-0.09
-0.13
0.00
0.21
0.38
0.43
0.34
0.15
-0.07
-0.25
-0.38
-0.46
-0.54
-0.64
-0.76
-0.89
-1.00
-1.04
-1.02
-0.92
-0.76
-0.55
-0.32
-0.08
0.12
0.27
0.34
0.36
0.36
0.39
0.49
0.64
0.81
0.92
0.92
0.83
0.72
0.68
0.78
0.98
1.20
1.32
1.29
1.13
0.89
0.65
0.42
0.21
0.00
-0.20
-0.37
-0.49
-0.57
-0.66
-0.85
-1.16
-1.55
-1.89
-2.04
-1.92
-1.53
-1.00
-0.49
-0.12
0.04
0.00
-0.18
