1533174806.00
64.000000
-0.00
-0.00
-0.00
-0.00
-0.00
-0.00
-0.00
-0.00
-0.00
-0.00
0.00
0.01
0.01
-0.00
-0.03
-0.05
-0.05
0.00
0.13
0.36
0.66
1.01
1.37
1.72
2.06
2.40
2.79
3.24
3.80
4.42
5.06
5.66
6.20
6.68
7.15
7.68
8.31
9.14
10.09
11.04
11.89
12.57
13.14
13.76
14.65
15.95
17.91
20.33
22.94
25.44
27.64
29.58
31.57
34.04
37.35
41.90
47.39
53.28
59.00
64.12
68.69
73.14
78.18
84.37
92.27
101.44
111.07
120.23
128.28
135.17
141.46
148.52
155.11
163.63
174.76
188.62
203.91
217.51
224.89
221.28
203.37
170.50
125.38
72.10
15.04
-42.80
-100.27
-157.57
-215.07
-272.36
-328.17
-380.40
-427.64
-469.06
-504.45
-533.64
-555.97
-570.11
-574.12
-566.23
-545.32
-511.91
-467.92
-416.36
-360.61
-303.70
-248.01
-195.29
-146.80
-102.97
-63.32
-26.05
11.45
51.55
95.04
140.40
184.08
221.88
250.67
269.37
278.93
281.39
278.71
272.11
262.24
249.72
235.61
221.29
207.91
195.93
184.92
173.88
161.82
148.36
133.95
119.70
106.90
96.42
88.35
81.93
75.88
68.87
60.09
49.51
37.85
26.28
15.70
6.49
-1.45
-8.50
-14.84
-20.22
-23.93
-25.28
-24.02
-20.72
-16.54
-12.83
-10.52
-9.81
-10.22
-10.91
-10.94
-9.50
-6.02
-0.31
7.04
14.53
19.80
20.36
14.69
3.13
-11.83
-26.37
-36.79
-40.92
-38.84
-32.49
-24.58
-17.43
-12.23
-9.01
-7.08
-5.64
-4.08
-2.21
-0.20
1.59
2.72
2.82
1.74
-0.44
-3.43
-6.84
-10.17
-12.61
-12.86
-9.41
-1.28
10.97
24.76
35.99
40.78
37.33
27.09
14.41
4.67
1.60
5.82
14.78
24.17
30.18
31.13
27.87
22.90
18.78
16.82
16.45
15.59
11.75
3.39
-9.21
-23.79
-37.05
-45.98
-49.06
-46.66
-40.64
-33.19
-25.88
-19.22
-12.94
-6.70
-0.71
4.23
7.18
7.63
5.95
3.44
1.55
1.40
3.25
6.42
9.74
12.03
12.65
11.66
9.73
7.67
6.16
5.46
5.39
5.55
5.44
4.76
3.48
1.80
0.04
-1.49
-2.62
-3.32
-3.73
-4.01
-4.29
-4.60
-4.89
-5.07
-5.06
-4.84
-4.46
-4.00
-3.57
-3.23
-3.03
-2.95
-2.96
-2.97
-2.89
-2.70
-2.43
-2.20
-2.12
-2.20
-2.36
-2.46
-2.38
-2.08
-1.64
-1.18
-0.82
-0.63
-0.58
-0.63
-0.80
-1.11
-1.64
-2.39
-3.29
-4.16
-4.77
-4.92
-4.53
-3.66
-2.52
-1.34
-0.34
0.40
0.88
1.15
1.30
1.37
1.34
1.15
0.77
0.19
-0.53
-1.19
-1.64
-1.76
-1.55
-1.18
-0.86
-0.82
-1.18
-1.90
-2.84
-3.77
-4.42
-4.59
-4.31
-3.79
-3.36
-3.29
-3.77
-4.72
-5.81
-6.50
-6.35
-5.36
-3.98
-2.91
-2.76
-3.86
-6.08
-8.80
-11.15
-12.45
-12.59
-12.07
-11.61
-11.77
-12.82
-14.71
-16.97
-18.81
-19.31
-17.69
-13.33
-5.79
4.85
17.64
29.58
36.35
34.81
25.34
11.48
-2.47
-13.51
-20.72
-24.86
-27.33
-29.03
-29.88
-29.37
-27.41
-24.60
-21.97
-20.40
-20.17
-21.18
-22.52
-22.95
-21.59
-18.45
-14.38
-10.54
-7.90
-6.89
-7.37
-8.65
-9.88
-10.38
-9.92
-8.66
-6.96
-5.18
-3.52
-2.09
-0.78
0.57
2.11
3.91
5.90
8.00
10.11
12.17
14.16
16.05
17.79
19.24
20.20
20.55
20.29
19.58
18.72
17.98
17.45
17.05
16.56
15.77
14.61
13.24
11.89
10.78
9.99
9.48
9.09
8.67
8.18
7.65
7.19
6.84
6.59
6.32
5.92
5.31
4.51
3.57
2.57
1.54
0.44
-0.71
-1.88
-2.86
-3.43
-3.35
-2.53
-1.05
0.84
2.83
4.66
6.16
7.30
8.11
8.65
8.98
9.14
9.16
9.10
9.01
8.95
8.98
9.11
9.24
9.22
8.85
7.97
6.61
5.03
3.62
2.85
2.99
4.05
5.71
7.54
9.10
10.13
10.60
10.59
10.26
9.71
8.97
8.04
6.88
5.48
3.85
2.01
0.03
-1.98
-3.82
-5.29
-6.19
-6.41
-5.93
-4.87
-3.37
-1.62
0.21
1.99
3.58
4.82
5.62
5.94
5.84
5.47
4.97
4.45
3.97
3.58
3.32
3.26
3.42
3.77
4.18
4.49
4.61
4.53
4.35
4.16
4.01
3.81
3.48
2.95
2.28
1.63
1.14
0.84
0.70
0.60
0.46
0.27
0.07
-0.12
-0.33
-0.65
-1.17
-1.88
-2.60
-3.08
-3.12
-2.66
-1.80
-0.76
0.21
0.93
1.35
1.60
1.86
2.30
2.92
3.63
4.23
4.60
4.71
4.68
4.77
5.22
6.01
6.91
7.58
7.74
7.32
6.42
5.31
4.52
4.48
5.22
6.41
7.59
8.44
8.89
9.09
9.30
10.22
12.27
15.22
18.27
20.57
21.72
21.85
21.45
21.01
21.72
24.25
28.32
32.87
36.78
39.53
41.29
42.55
43.87
46.79
52.43
60.94
71.39
82.34
92.39
100.29
105.09
99.08
78.72
46.68
11.09
-19.95
-42.70
-57.79
-67.75
-74.85
-80.21
-82.85
-81.95
-77.96
-72.71
-68.12
-65.07
-63.12
-61.20
-58.42
-53.72
-47.02
-39.28
-32.23
-27.07
-24.22
-23.31
-23.59
-24.39
-24.71
-23.97
-22.29
-20.50
-19.55
-20.03
-21.83
-24.06
-25.26
-23.60
-17.97
-8.28
3.10
12.79
18.05
17.98
13.77
7.81
2.50
-0.90
-2.61
-3.58
-4.33
-4.66
-3.88
-1.45
2.53
7.21
11.39
14.06
14.85
14.16
12.79
11.47
10.52
9.69
8.62
6.85
4.22
0.91
-2.53
-5.48
-7.48
-8.37
-8.34
-7.77
-7.12
-6.68
-6.57
-6.68
-6.86
-7.01
-7.11
-7.23
-7.43
-7.74
-8.15
-8.56
-8.89
-9.11
-9.24
-9.33
-9.41
-9.47
-9.50
-9.47
-9.41
-9.32
-9.24
-9.16
-9.10
-9.05
-9.06
-9.15
-9.33
-9.57
-9.81
-9.99
-10.08
-10.10
-10.09
-10.09
-10.12
-10.15
-10.14
-10.07
-9.86
-9.48
-8.89
-8.03
-6.92
-5.58
-4.09
-2.51
-0.94
0.58
2.02
3.38
4.65
5.83
6.94
7.99
8.99
9.95
10.84
11.64
12.33
12.94
13.54
14.24
15.09
16.06
17.02
17.76
18.08
17.84
16.95
15.40
13.26
10.69
7.85
4.97
2.18
-0.44
-2.92
-5.35
-7.78
-10.18
-12.42
-14.36
-15.83
-16.74
-17.06
-16.78
-15.94
-14.66
-13.14
-11.60
-10.28
-9.30
-8.65
-8.23
-7.91
-7.58
-7.21
-6.79
-6.31
-5.75
-5.10
-4.37
-3.62
-2.93
-2.37
-1.95
-1.63
-1.34
-1.04
-0.75
-0.56
-0.54
-0.75
-1.15
-1.60
-1.94
-1.98
-1.69
-1.13
-0.48
0.08
0.42
0.53
0.47
0.35
0.26
0.23
0.26
0.36
0.53
0.79
1.15
1.54
1.88
2.06
1.96
1.55
0.86
0.02
-0.75
-1.26
-1.42
-1.26
-0.89
-0.45
-0.04
0.34
0.69
0.98
1.18
1.22
1.06
0.73
0.35
0.05
-0.10
-0.09
0.04
0.20
0.34
0.47
0.63
0.84
1.11
1.42
1.75
2.06
2.37
2.74
3.24
3.89
4.65
5.44
6.16
6.70
6.99
7.00
6.74
6.23
5.53
4.76
4.05
3.51
3.23
3.18
3.23
3.28
3.19
2.96
2.63
2.24
1.85
1.46
1.04
0.57
0.04
-0.51
-1.01
-1.42
-1.73
-1.94
-2.09
-2.17
-2.13
-1.94
-1.57
-1.12
-0.70
-0.49
-0.59
-0.99
-1.57
-2.13
-2.47
-2.47
-2.12
-1.53
-0.83
-0.14
0.45
0.94
1.35
1.66
1.85
1.85
1.61
1.15
0.57
-0.03
-0.53
-0.93
-1.25
-1.56
-1.88
-2.18
-2.37
-2.39
-2.27
-2.07
-1.93
-1.94
-2.08
-2.31
-2.51
-2.62
-2.64
-2.66
-2.80
-3.11
-3.60
-4.20
-4.86
-5.57
-6.39
-7.37
-8.49
-9.51
-10.13
-9.99
-8.93
-7.03
-4.61
-2.14
-0.02
1.49
2.41
2.91
3.26
3.71
4.39
5.31
6.37
7.42
8.36
9.11
9.70
10.16
10.52
10.77
10.86
10.74
10.43
9.98
9.45
8.90
8.31
7.63
6.79
5.80
4.72
3.69
2.85
2.31
2.07
2.03
2.04
1.95
1.67
1.20
0.65
0.13
-0.25
-0.45
-0.46
-0.32
-0.06
0.29
0.66
0.94
1.01
0.79
0.28
-0.34
-0.78
-0.77
-0.15
1.01
2.45
3.77
4.66
4.97
4.76
4.21
3.56
2.96
2.51
2.25
2.21
2.41
2.81
3.29
3.61
3.53
2.90
1.80
0.48
-0.69
-1.44
-1.70
-1.57
-1.31
-1.14
-1.18
-1.46
-1.89
-2.39
-2.90
-3.36
-3.73
-3.96
-3.99
-3.80
-3.39
-2.81
-2.12
-1.33
-0.47
0.44
1.37
2.22
2.92
3.41
3.68
3.77
3.78
3.73
3.63
3.43
3.11
2.70
2.28
1.94
1.69
1.50
1.27
0.97
0.58
0.19
-0.10
-0.22
-0.19
-0.07
0.03
0.06
0.01
-0.05
-0.07
-0.01
0.13
0.30
0.43
0.47
0.39
0.17
-0.16
-0.57
-1.01
-1.38
-1.63
-1.66
-1.47
-1.08
-0.60
-0.17
0.10
0.13
-0.11
-0.56
-1.14
-1.70
-2.12
-2.33
-2.27
-1.98
-1.51
-0.98
-0.47
-0.03
0.33
0.60
0.78
0.86
0.81
0.64
0.38
0.14
0.03
0.09
0.28
0.49
0.56
0.40
0.04
-0.37
-0.68
-0.79
-0.76
-0.79
-1.10
-1.76
-2.73
-3.76
-4.61
-5.08
-5.13
-4.82
-4.26
-3.56
-2.79
-2.03
-1.34
-0.77
-0.34
-0.00
0.33
0.73
1.26
1.90
2.60
3.28
3.86
4.27
4.44
4.35
3.99
3.44
2.82
2.26
1.87
1.66
1.58
1.53
1.46
1.33
1.19
1.08
1.06
1.10
1.15
1.10
0.87
0.41
-0.23
-0.91
-1.47
-1.74
-1.65
-1.22
-0.56
0.16
0.79
1.20
1.36
1.30
1.11
0.87
0.64
0.44
0.26
0.11
0.01
-0.03
-0.02
-0.04
-0.20
-0.56
-1.11
-1.74
-2.27
-2.58
-2.62
-2.46
-2.24
-2.07
-2.06
-2.19
-2.45
-2.80
-3.20
-3.60
-3.92
-4.09
-4.06
-3.81
-3.39
-2.90
-2.41
-2.02
-1.73
-1.55
-1.41
-1.22
-0.90
-0.35
0.43
1.34
2.25
2.97
3.39
3.52
3.46
3.33
3.23
3.16
3.12
3.06
2.97
2.88
2.77
2.64
2.43
2.16
1.86
1.62
1.56
1.71
2.03
2.38
2.60
2.57
2.28
1.84
1.41
1.10
0.93
0.83
0.68
0.44
0.09
-0.27
-0.56
-0.75
-0.88
-1.00
-1.18
-1.42
-1.65
-1.82
-1.89
-1.86
-1.76
-1.67
-1.63
-1.68
-1.83
-2.04
-2.25
-2.36
-2.33
-2.14
-1.84
-1.52
-1.28
-1.18
-1.19
-1.22
-1.13
-0.82
-0.33
0.22
0.67
0.90
0.89
0.73
0.53
0.37
0.26
0.15
0.01
-0.13
-0.22
-0.19
-0.05
0.14
0.26
0.23
0.02
-0.33
-0.75
-1.13
-1.39
-1.49
-1.38
-1.10
-0.70
-0.25
0.18
0.56
0.88
1.15
1.40
1.63
1.79
1.88
1.85
1.73
1.54
1.38
1.33
1.42
1.61
1.81
1.89
1.78
1.50
1.12
0.75
0.44
0.19
-0.02
-0.20
-0.32
-0.35
-0.28
-0.18
-0.10
-0.08
-0.15
-0.25
-0.39
-0.57
-0.84
-1.21
-1.68
-2.17
-2.63
-2.97
-3.13
-3.09
-2.82
-2.35
-1.79
-1.25
-0.85
-0.63
-0.55
-0.50
-0.39
-0.18
0.08
0.33
0.48
0.55
0.56
0.58
0.65
0.79
0.99
1.19
1.37
1.47
1.49
1.43
1.32
1.20
1.11
1.07
1.03
0.96
0.80
0.55
0.25
-0.04
-0.26
-0.40
-0.47
-0.54
-0.65
-0.83
-1.04
-1.25
-1.40
-1.44
-1.35
-1.13
-0.79
-0.34
0.13
0.56
0.82
0.85
0.64
0.29
-0.03
-0.17
-0.03
0.35
0.85
1.30
1.56
1.61
1.48
1.26
1.03
0.83
0.63
0.40
0.15
-0.09
-0.24
-0.27
-0.18
-0.04
0.06
0.08
0.06
0.09
0.20
0.38
0.54
0.52
0.26
-0.23
-0.83
-1.37
-1.70
-1.78
-1.62
-1.30
-0.92
-0.57
-0.29
-0.10
0.05
0.18
0.30
0.37
0.36
0.24
0.06
-0.06
-0.03
0.21
0.58
0.94
1.14
1.10
0.88
0.61
0.44
0.45
0.62
0.87
1.09
1.22
1.23
1.11
0.91
0.66
0.42
0.23
0.09
0.00
-0.06
-0.13
-0.20
-0.23
-0.18
-0.05
0.11
0.23
0.23
0.14
0.02
0.00
0.14
0.41
0.72
0.94
1.01
0.95
0.85
0.79
0.79
0.78
0.68
0.43
0.11
-0.15
-0.23
-0.08
0.20
0.47
0.60
0.55
0.36
0.10
-0.19
-0.54
-0.99
-1.51
-2.01
-2.37
-2.52
-2.51
-2.47
-2.55
-2.80
-3.16
-3.50
-3.67
-3.62
-3.40
-3.08
-2.72
-2.32
-1.83
-1.19
-0.40
0.45
1.25
1.89
2.34
2.65
2.91
3.15
3.34
3.42
3.33
3.11
2.88
2.80
2.93
3.20
3.42
3.40
3.07
2.46
1.75
1.08
0.58
0.25
0.06
-0.04
-0.07
-0.05
0.03
0.13
0.23
0.27
0.25
0.16
0.00
-0.22
-0.52
-0.87
-1.25
-1.63
-1.99
-2.33
-2.67
-3.02
-3.34
-3.62
-3.80
-3.90
-3.93
-3.92
-3.89
-3.80
-3.57
-3.13
-2.45
-1.56
-0.56
0.41
1.26
1.91
2.35
2.60
2.71
2.71
2.65
2.51
2.31
2.06
1.81
1.63
1.53
1.47
1.34
1.07
0.67
0.22
-0.12
-0.23
-0.10
0.18
0.47
0.72
0.96
1.26
1.64
2.02
2.27
2.25
2.00
1.66
1.39
1.29
1.30
1.26
1.03
0.61
0.12
-0.24
-0.38
-0.30
-0.13
-0.02
-0.05
-0.17
-0.30
-0.35
-0.29
-0.20
-0.16
-0.26
-0.51
-0.89
-1.32
-1.76
-2.14
-2.41
-2.54
-2.48
-2.19
-1.73
-1.19
-0.72
-0.46
-0.44
-0.62
-0.83
-0.94
-0.84
-0.55
-0.18
0.15
0.33
0.33
0.21
0.04
-0.10
-0.15
-0.09
0.05
0.24
0.43
0.61
0.74
0.81
0.80
0.68
0.46
0.17
-0.13
-0.38
-0.54
-0.64
-0.73
-0.86
-1.00
-1.07
-1.01
-0.82
-0.58
-0.45
-0.54
-0.88
-1.38
-1.86
-2.15
-2.15
-1.86
-1.38
-0.87
-0.51
-0.39
-0.51
-0.78
-1.05
-1.18
-1.11
-0.87
-0.55
-0.25
-0.01
0.22
0.49
0.86
1.26
1.58
1.67
1.47
1.05
0.57
0.20
0.03
0.03
0.09
0.09
-0.01
-0.20
-0.41
-0.57
-0.65
-0.66
-0.62
-0.52
-0.38
-0.20
0.00
0.23
0.49
0.83
1.23
1.66
2.02
2.22
2.22
2.02
1.72
1.43
1.23
1.19
1.30
1.48
1.66
1.74
1.68
1.50
1.26
1.04
0.89
0.82
0.75
0.64
0.46
0.25
0.08
-0.01
-0.06
-0.16
-0.39
-0.79
-1.25
-1.63
-1.76
-1.58
-1.13
-0.60
-0.17
-0.00
-0.16
-0.56
-1.07
-1.50
-1.70
-1.61
-1.25
-0.73
-0.18
0.28
0.58
0.72
0.73
0.66
0.56
0.48
0.49
0.58
0.75
0.94
1.08
1.14
1.09
0.99
0.90
0.90
0.99
1.14
1.29
1.39
1.40
1.33
1.21
1.04
0.83
0.57
0.28
0.02
-0.12
-0.10
0.07
0.28
0.38
0.26
-0.05
-0.40
-0.61
-0.54
-0.27
-0.00
0.03
-0.27
-0.84
-1.40
-1.69
-1.54
-1.00
-0.28
0.40
0.84
1.00
0.91
0.69
0.43
0.17
-0.07
-0.33
-0.61
-0.87
-1.02
-1.00
-0.76
-0.37
0.04
0.31
0.33
0.11
-0.26
-0.60
-0.80
-0.79
-0.61
-0.34
-0.08
0.06
0.05
-0.12
-0.41
-0.75
-1.05
-1.24
-1.30
-1.26
-1.19
-1.21
-1.38
-1.74
-2.24
-2.76
-3.17
-3.34
-3.21
-2.82
-2.31
-1.82
-1.45
-1.23
-1.10
-0.96
-0.78
-0.53
-0.27
-0.03
0.15
0.30
0.45
0.61
0.76
0.81
0.70
0.38
-0.12
-0.68
-1.18
-1.52
-1.66
-1.64
-1.53
-1.40
-1.30
-1.24
-1.24
-1.30
-1.40
-1.52
-1.57
-1.51
-1.28
-0.94
-0.60
-0.38
-0.37
-0.55
-0.82
-1.03
-1.08
-0.92
-0.59
-0.16
0.31
0.75
1.21
1.77
2.58
3.81
5.52
7.62
9.91
12.05
13.78
14.92
15.43
15.32
14.63
13.38
11.62
9.47
7.20
5.10
3.42
2.31
1.74
1.64
1.93
2.54
3.36
4.19
4.75
4.70
3.85
2.19
-0.02
-2.37
-4.39
-5.73
-6.24
-5.96
-5.08
-3.88
-2.59
-1.37
-0.32
0.52
1.12
1.41
1.33
0.81
-0.08
-1.20
-2.30
-3.14
-3.56
-3.58
-3.33
-3.06
-2.95
-3.09
-3.42
-3.76
-3.95
-3.85
-3.48
-2.93
-2.36
-1.90
-1.62
-1.50
-1.44
-1.35
-1.13
-0.74
-0.23
0.29
0.69
0.80
0.57
0.01
-0.72
-1.42
-1.89
-2.03
-1.87
-1.54
-1.20
-1.05
-1.16
-1.55
-2.12
-2.74
-3.23
-3.44
-3.32
-2.93
-2.41
-1.92
-1.58
-1.40
-1.34
-1.34
-1.38
-1.49
-1.72
-2.03
-2.29
-2.35
-2.05
-1.35
-0.29
0.98
2.27
3.36
4.06
4.20
3.66
2.48
0.83
-0.92
-2.42
-3.37
-3.64
-3.28
-2.43
-1.24
0.15
1.52
2.61
3.10
2.74
1.49
-0.41
-2.49
-4.20
-5.14
-5.17
-4.43
-3.20
-1.85
-0.66
0.16
0.51
0.37
-0.13
-0.78
-1.32
-1.53
-1.38
-0.98
-0.56
-0.34
-0.42
-0.77
-1.28
-1.79
-2.23
-2.54
-2.71
-2.75
-2.71
-2.69
-2.81
-3.13
-3.60
-4.00
-4.04
-3.38
-1.86
0.48
3.39
6.44
9.13
11.04
11.90
11.60
10.24
8.05
5.39
2.65
0.24
-1.46
-2.17
-1.80
-0.43
1.66
4.07
6.30
7.93
8.64
8.29
6.97
4.98
2.69
0.51
-1.29
-2.61
-3.48
-4.06
-4.46
-4.71
-4.75
-4.44
-3.65
-2.33
-0.62
1.20
2.79
3.85
4.25
4.15
3.91
3.97
4.63
5.89
7.39
8.55
8.75
7.60
5.10
1.67
-1.99
-5.12
-7.18
-7.99
-7.74
-6.84
-5.66
-4.40
-3.02
-1.30
0.90
3.51
6.16
8.25
9.18
8.56
6.40
3.13
-0.48
-3.62
-5.66
-6.29
-5.55
-3.74
-1.27
1.41
3.82
5.45
5.83
4.66
1.97
-1.75
-5.70
-9.01
-11.01
-11.53
-10.79
-9.31
-7.64
-6.14
-4.99
-4.19
-3.72
-3.55
-3.61
-3.80
-4.00
-4.07
-3.96
-3.70
-3.37
-3.07
-2.83
-2.62
-2.40
-2.15
-1.91
-1.69
-1.46
-1.15
-0.65
0.08
1.01
1.94
2.62
2.82
2.47
1.67
0.66
-0.27
-0.89
-1.15
-1.15
-1.11
-1.21
-1.55
-2.03
-2.50
-2.78
-2.87
-2.87
-2.94
-3.20
-3.61
-3.97
-4.09
-3.82
-3.21
-2.43
-1.70
-1.19
-0.95
-0.90
-0.91
-0.83
-0.65
-0.42
-0.26
-0.28
-0.48
-0.74
-0.90
-0.81
-0.44
0.11
0.63
0.99
1.09
0.96
0.72
0.48
0.36
0.50
0.99
1.96
3.43
5.34
7.53
9.67
11.39
12.31
12.20
11.02
9.02
6.63
4.39
2.69
1.76
1.54
1.84
2.40
3.02
3.56
3.98
4.23
4.31
4.20
3.89
3.37
2.62
1.64
0.51
-0.64
-1.64
-2.31
-2.58
-2.48
-2.19
-1.93
-1.86
-2.02
-2.33
-2.63
-2.79
-2.82
-2.77
-2.75
-2.83
-2.98
-3.14
-3.26
-3.36
-3.51
-3.76
-4.06
-4.32
-4.43
-4.38
-4.24
-4.14
-4.16
-4.29
-4.42
-4.43
-4.25
-3.94
-3.65
-3.52
-3.62
-3.91
-4.23
-4.39
-4.21
-3.60
-2.63
-1.44
-0.30
0.55
0.95
0.90
0.57
0.25
0.30
1.10
2.91
5.83
9.62
13.71
17.20
19.14
18.82
16.11
11.55
6.23
1.39
-1.98
-3.47
-3.24
-1.86
-0.00
1.78
3.17
4.00
4.22
3.84
2.91
1.60
0.15
-1.16
-2.12
-2.61
-2.71
-2.61
-2.52
-2.62
-2.98
-3.50
-4.01
-4.32
-4.32
-4.03
-3.61
-3.28
-3.21
-3.48
-4.01
-4.61
-5.10
-5.35
-5.32
-5.08
-4.72
-4.34
-4.01
-3.74
-3.53
-3.35
-3.19
-3.01
-2.83
-2.67
-2.51
-2.34
-2.08
-1.68
-1.09
-0.40
0.25
0.69
0.80
0.59
0.21
-0.14
-0.29
-0.17
0.17
0.57
0.91
1.11
1.17
1.17
1.18
1.22
1.25
1.22
1.10
0.96
0.89
1.03
1.41
1.97
2.56
3.01
3.22
3.13
2.80
2.29
1.63
0.90
0.17
-0.48
-0.98
-1.31
-1.50
-1.61
-1.70
-1.83
-2.00
-2.22
-2.46
-2.70
-2.87
-2.91
-2.72
-2.25
-1.58
-0.84
-0.23
0.11
0.14
-0.04
-0.28
-0.44
-0.46
-0.40
-0.33
-0.31
-0.28
-0.18
0.05
0.36
0.64
0.75
0.64
0.34
-0.00
-0.28
-0.43
-0.47
-0.44
-0.42
-0.40
-0.41
-0.44
-0.53
-0.72
-0.99
-1.32
-1.66
-1.93
-2.09
-2.15
-2.10
-2.00
-1.93
-1.95
-2.10
-2.36
-2.63
-2.81
-2.83
-2.70
-2.51
-2.33
-2.20
-2.09
-1.94
-1.75
-1.58
-1.48
-1.49
-1.58
-1.70
-1.80
-1.85
-1.88
-1.89
-1.88
-1.86
-1.84
-1.87
-1.98
-2.14
-2.28
-2.29
-2.12
-1.78
-1.42
-1.19
-1.26
-1.69
-2.45
-3.43
-4.46
-5.35
-5.95
-6.22
-6.22
-6.11
-6.08
-6.25
-6.63
-7.12
-7.55
-7.76
-7.65
-7.22
-6.51
-5.62
-4.53
-3.21
-1.52
0.64
3.22
6.02
8.72
10.98
12.66
13.84
14.78
15.74
16.83
17.98
19.04
19.85
20.38
20.71
20.93
21.05
21.04
20.92
20.87
21.21
22.21
23.81
25.43
26.06
24.67
20.66
14.26
6.51
-1.04
-6.91
-10.18
-10.62
-8.65
-5.02
-0.50
4.15
8.17
10.74
11.02
8.30
2.31
-6.57
-17.18
-27.73
-36.27
-41.12
-41.42
-37.32
-29.83
-20.45
-10.76
-2.09
4.55
8.51
9.46
7.54
3.40
-1.84
-6.87
-10.56
-12.35
-12.35
-11.10
-9.27
-7.31
-5.34
-3.23
-0.87
1.76
4.41
6.75
8.45
9.33
9.35
8.70
7.65
6.54
5.63
5.08
4.89
4.97
5.16
5.30
5.27
5.01
4.52
3.85
3.12
2.47
2.03
1.92
2.20
2.82
3.66
4.49
5.10
5.27
4.93
4.08
2.88
1.54
0.26
-0.84
-1.71
-2.36
-2.84
-3.18
-3.42
-3.60
-3.77
-4.02
-4.38
-4.83
-5.32
-5.76
-6.11
-6.36
-6.54
-6.66
-6.71
-6.63
-6.40
-6.07
-5.74
-5.54
-5.53
-5.65
-5.75
-5.67
-5.30
-4.65
-3.84
-3.04
-2.36
-1.86
-1.52
-1.25
-0.96
-0.55
0.08
1.00
2.20
3.56
4.88
5.90
6.41
6.36
5.86
5.15
4.52
4.17
4.17
4.41
4.68
4.75
4.44
3.66
2.45
0.94
-0.68
-2.21
-3.52
-4.53
-5.24
-5.71
-6.02
-6.25
-6.43
-6.53
-6.49
-6.26
-5.80
-5.13
-4.28
-3.31
-2.28
-1.30
-0.48
0.05
0.20
0.00
-0.40
-0.79
-0.99
-0.90
-0.58
-0.10
0.42
0.95
1.48
1.99
2.44
2.72
2.75
2.50
2.04
1.49
0.96
0.57
0.33
0.23
0.19
0.13
-0.00
-0.24
-0.56
-0.91
-1.23
-1.43
-1.49
-1.43
-1.30
-1.19
-1.17
-1.25
-1.42
-1.60
-1.68
-1.59
-1.25
-0.69
-0.00
0.65
1.13
1.34
1.29
1.07
0.83
0.69
0.68
0.76
0.86
0.90
0.84
0.69
0.52
0.35
0.24
0.17
0.14
0.13
0.09
-0.04
-0.27
-0.60
-0.97
-1.29
-1.46
-1.40
-1.10
-0.62
-0.06
0.47
0.88
1.08
1.02
0.69
0.15
-0.44
-0.91
-1.08
-0.92
-0.53
-0.12
0.09
0.03
-0.23
-0.46
-0.47
-0.15
0.40
0.98
1.42
1.65
1.76
1.86
2.04
2.22
2.26
1.99
1.41
0.64
-0.07
-0.54
-0.71
-0.68
-0.61
-0.62
-0.70
-0.76
-0.73
-0.57
-0.36
-0.19
-0.12
-0.17
-0.33
-0.58
-0.89
-1.25
-1.60
-1.85
-1.90
-1.72
-1.39
-1.03
-0.77
-0.67
-0.69
-0.78
-0.84
-0.82
-0.72
-0.52
-0.22
0.16
0.60
1.04
1.38
1.52
1.37
0.93
0.28
-0.44
-1.07
-1.51
-1.75
-1.87
-1.95
-2.06
-2.17
-2.25
-2.27
-2.25
-2.29
-2.44
-2.70
-3.01
-3.25
-3.34
-3.24
-2.98
-2.57
-2.02
-1.30
-0.42
0.59
1.67
2.75
3.84
4.98
6.25
7.71
9.29
10.84
12.13
12.92
13.07
12.58
11.59
10.28
8.88
7.57
6.49
5.75
5.37
5.29
5.35
5.31
4.95
4.16
3.03
1.78
0.65
-0.25
-0.92
-1.49
-2.03
-2.52
-2.86
-2.94
-2.76
-2.42
-2.07
-1.80
-1.62
-1.43
-1.18
-0.85
-0.51
-0.23
-0.02
0.16
0.35
0.57
0.79
0.95
1.03
1.04
1.02
1.01
1.03
1.06
1.05
0.96
0.76
0.42
-0.04
-0.58
-1.11
-1.56
-1.87
-2.02
-2.06
-2.07
-2.16
-2.41
-2.84
-3.40
-3.97
-4.43
-4.66
-4.62
-4.33
-3.86
-3.29
-2.74
-2.30
-2.03
-1.92
-1.93
-1.97
-1.97
-1.90
-1.86
-1.96
-2.31
-2.93
-3.72
-4.46
-4.92
-4.97
-4.59
-3.93
-3.20
-2.62
-2.32
-2.36
-2.67
-3.18
-3.78
-4.38
-4.88
-5.14
-5.09
-4.70
-4.10
-3.47
-3.09
-3.10
-3.50
-4.11
-4.68
-5.00
-5.01
-4.83
-4.65
-4.63
-4.81
-5.06
-5.21
-5.11
-4.75
-4.25
-3.76
-3.43
-3.28
-3.29
-3.38
-3.45
-3.42
-3.19
-2.63
-1.64
-0.20
1.62
3.59
5.39
6.77
7.59
7.92
7.97
8.05
8.34
8.92
9.70
10.52
11.22
11.71
11.95
11.92
11.59
10.99
10.21
9.42
8.86
8.67
8.86
9.21
9.34
8.88
7.58
5.49
2.90
0.32
-1.76
-3.00
-3.35
-3.02
-2.41
-1.94
-1.91
-2.38
-3.17
-3.92
-4.28
-3.99
-3.04
-1.58
0.01
1.30
1.83
1.24
-0.58
-3.40
-6.63
-9.48
-11.19
-11.34
-10.03
-7.83
-5.51
-3.73
-2.77
-2.56
-2.83
-3.38
-4.20
-5.31
-6.72
-8.22
-9.44
-10.01
-9.74
-8.72
-7.22
-5.62
-4.22
-3.20
-2.59
-2.36
-2.45
-2.77
-3.21
-3.64
-3.98
-4.18
-4.21
-4.12
-3.90
-3.56
-3.14
-2.65
-2.15
-1.68
-1.26
-0.85
-0.41
0.10
0.71
1.42
2.24
3.18
4.20
5.24
6.16
6.80
7.00
6.74
6.10
5.31
4.57
4.06
3.77
3.58
3.29
2.81
2.14
1.45
0.91
0.64
0.56
0.49
0.21
-0.35
-1.07
-1.72
-2.05
-1.92
-1.40
-0.71
-0.09
0.25
0.26
0.00
-0.37
-0.76
-1.12
-1.49
-1.92
-2.44
-2.96
-3.37
-3.56
-3.46
-3.08
-2.51
-1.78
-0.97
-0.07
0.86
1.78
2.63
3.38
4.07
4.77
5.55
6.37
7.12
7.63
7.73
7.42
6.76
5.92
5.02
4.15
3.31
2.51
1.79
1.27
1.12
1.41
2.10
2.95
3.67
3.99
3.79
3.13
2.20
1.20
0.26
-0.59
-1.41
-2.25
-3.12
-3.93
-4.55
-4.84
-4.71
-4.16
-3.25
-2.12
-0.91
0.27
1.38
2.41
3.36
4.18
4.76
5.00
4.87
4.43
3.83
3.25
2.74
2.26
1.71
1.03
0.27
-0.40
-0.79
-0.81
-0.51
-0.13
0.11
0.06
-0.29
-0.79
-1.24
-1.49
-1.50
-1.33
-1.10
-0.93
-0.91
-1.01
-1.19
-1.37
-1.48
-1.50
-1.44
-1.30
-1.08
-0.76
-0.31
0.26
0.91
1.56
2.17
2.69
3.14
3.52
3.82
4.00
4.03
3.90
3.61
3.22
2.79
2.37
2.01
1.76
1.65
1.73
1.98
2.36
2.77
3.12
3.32
3.31
3.12
2.78
2.35
1.87
1.36
0.80
0.18
-0.48
-1.12
-1.65
-1.97
-2.01
-1.77
-1.32
-0.81
-0.38
-0.17
-0.26
-0.60
-1.07
-1.44
-1.50
-1.12
-0.27
0.90
2.11
3.11
3.70
3.82
3.56
3.13
2.71
2.45
2.43
2.63
2.96
3.25
3.34
3.10
2.49
1.60
0.58
-0.34
-0.99
-1.25
-1.12
-0.66
-0.05
0.54
0.90
0.87
0.44
-0.31
-1.11
-1.66
-1.72
-1.22
-0.29
0.83
1.84
2.57
2.94
3.00
2.87
2.68
2.52
2.40
2.34
2.30
2.26
2.22
2.18
2.14
2.10
2.06
2.03
2.04
2.10
2.24
2.45
2.68
2.85
2.89
2.77
2.50
2.12
1.69
1.25
0.88
0.62
0.51
0.53
0.63
0.72
0.71
0.57
0.35
0.11
-0.06
-0.14
-0.18
-0.24
-0.40
-0.67
-1.02
-1.38
-1.68
-1.89
-1.98
-2.00
-1.98
-1.92
-1.83
-1.69
-1.46
-1.18
-0.89
-0.68
-0.59
-0.66
-0.83
-0.99
-1.04
-0.95
-0.75
-0.54
-0.37
-0.30
-0.30
-0.36
-0.45
-0.55
-0.68
-0.80
-0.92
-0.99
-0.99
-0.87
-0.62
-0.26
0.16
0.54
0.74
0.66
0.31
-0.21
-0.71
-1.00
-1.05
-0.91
-0.73
-0.63
-0.66
-0.74
-0.78
-0.75
-0.67
-0.66
-0.79
-1.07
-1.40
-1.67
-1.78
-1.73
-1.57
-1.36
-1.17
-1.02
-0.90
-0.83
-0.82
-0.89
-0.99
-1.06
-1.02
-0.84
-0.52
-0.15
0.18
0.40
0.49
0.45
0.34
0.18
-0.02
-0.25
-0.48
-0.65
-0.70
-0.60
-0.36
-0.05
0.21
0.35
0.29
0.08
-0.21
-0.47
-0.62
-0.67
-0.65
-0.65
-0.70
-0.81
-0.94
-1.05
-1.13
-1.21
-1.34
-1.51
-1.66
-1.68
-1.48
-1.07
-0.58
-0.21
-0.12
-0.35
-0.78
-1.21
-1.44
-1.38
-1.07
-0.66
-0.28
-0.05
-0.01
-0.15
-0.43
-0.78
-1.10
-1.33
-1.41
-1.34
-1.18
-1.02
-0.93
-0.95
-1.06
-1.24
-1.50
-1.84
-2.23
-2.59
-2.80
-2.78
-2.53
-2.13
-1.71
-1.37
-1.12
-0.87
-0.55
-0.13
0.32
0.72
0.96
1.04
1.03
1.02
1.06
1.14
1.20
1.16
1.02
0.86
0.81
0.95
1.26
1.61
1.78
1.63
1.17
0.56
0.04
-0.21
-0.15
0.09
0.33
0.42
0.33
0.14
-0.01
-0.03
0.07
0.27
0.46
0.59
0.61
0.51
0.30
0.00
-0.33
-0.64
-0.87
-0.99
-1.03
-1.02
-1.05
-1.14
-1.27
-1.33
-1.22
-0.91
-0.44
0.03
0.33
0.35
0.13
-0.21
-0.50
-0.63
-0.63
-0.62
-0.71
-0.92
-1.18
-1.33
-1.29
-1.04
-0.70
-0.44
-0.35
-0.48
-0.73
-1.03
-1.28
-1.44
-1.52
-1.54
-1.48
-1.33
-1.10
-0.85
-0.65
-0.60
-0.69
-0.81
-0.82
-0.53
0.12
1.08
2.17
3.14
3.84
4.20
4.28
4.19
4.03
3.86
3.70
3.53
3.40
3.35
3.38
3.47
3.53
3.44
3.12
2.56
1.82
0.99
0.20
-0.46
-0.92
-1.19
-1.28
-1.27
-1.25
-1.29
-1.38
-1.48
-1.49
-1.37
-1.14
-0.94
-0.97
-1.36
-2.12
-3.04
-3.78
-3.97
-3.37
-2.00
-0.13
1.84
3.50
4.59
5.06
5.00
4.59
4.00
3.35
2.73
2.22
1.88
1.79
1.94
2.26
2.58
2.74
2.63
2.30
1.85
1.42
1.12
0.94
0.82
0.70
0.53
0.36
0.25
0.24
0.29
0.32
0.25
0.05
-0.21
-0.43
-0.55
-0.55
-0.53
-0.62
-0.94
-1.50
-2.20
-2.85
-3.26
-3.27
-2.86
-2.13
-1.27
-0.49
0.06
0.34
0.44
0.52
0.68
0.96
1.30
1.55
1.59
1.36
0.93
0.44
0.03
-0.21
-0.27
-0.19
-0.06
0.06
0.14
0.17
0.18
0.19
0.21
0.23
0.23
0.19
0.10
-0.02
-0.15
-0.25
-0.32
-0.41
-0.59
-0.95
-1.54
-2.27
-3.01
-3.58
-3.91
-3.97
-3.82
-3.56
-3.23
-2.81
-2.25
-1.52
-0.62
0.35
1.28
2.04
2.55
2.77
2.69
2.36
1.87
1.37
0.99
0.85
0.94
1.19
1.44
1.55
1.49
1.30
1.10
1.04
1.16
1.41
1.66
1.75
1.61
1.23
0.70
0.11
-0.41
-0.79
-1.01
-1.07
-1.04
-1.00
-1.05
-1.26
-1.63
-2.08
-2.48
-2.66
-2.46
-1.83
-0.82
0.39
1.55
2.37
2.69
2.52
2.00
1.39
0.90
0.62
0.49
0.39
0.22
-0.05
-0.36
-0.65
-0.90
-1.11
-1.30
-1.44
-1.43
-1.12
-0.46
0.52
1.65
2.67
3.36
3.60
3.39
2.85
2.13
1.39
0.73
0.20
-0.26
-0.72
-1.17
-1.65
-2.13
-2.58
-2.99
-3.37
-3.75
-4.18
-4.69
-5.14
-5.57
-6.07
-6.90
-8.35
-10.60
-13.52
-16.66
-19.32
-20.57
-19.98
-17.55
-13.85
-9.75
-6.06
-3.21
-1.26
-0.45
0.67
2.79
6.35
11.25
16.91
22.45
27.00
29.91
30.98
30.97
30.83
31.57
33.66
37.02
41.25
45.74
49.74
50.21
44.72
32.45
15.17
-3.63
-20.43
-32.70
-39.36
-40.86
-38.76
-34.66
-29.88
-25.10
-20.62
-16.57
-13.19
-10.78
-9.58
-9.65
-10.22
-10.46
-9.85
-8.38
-6.55
-4.90
-3.77
-3.21
-3.11
-3.10
-3.16
-3.33
-3.62
-3.97
-4.34
-4.90
-6.02
-8.01
-10.87
-13.83
-15.79
-15.84
-13.75
-10.11
-6.03
-2.65
-0.65
0.02
-0.15
-0.52
-0.73
-0.71
-0.61
-0.56
-0.58
-0.51
-0.28
0.03
0.23
0.05
-0.70
-2.05
-3.85
-5.85
-7.77
-9.36
-10.44
-10.90
-10.73
-10.07
-9.20
-8.44
-8.03
-7.99
-8.01
-7.59
-6.25
-3.84
-0.59
2.95
6.18
8.72
10.53
11.80
12.78
13.55
14.02
13.99
13.35
12.15
10.61
9.03
7.64
6.57
5.85
5.46
5.32
5.34
5.36
5.17
4.50
3.18
1.22
-1.18
-3.64
-5.76
-7.23
-7.95
-7.98
-7.54
-6.84
-6.02
-5.09
-4.00
-2.76
-1.45
-0.38
0.10
-0.33
-1.74
-3.85
-6.11
-7.87
-8.66
-8.33
-7.10
-5.41
-3.71
-2.35
-1.50
-1.16
-1.23
-1.56
-1.97
-2.29
-2.35
-2.03
-1.29
-0.13
1.36
3.00
4.49
5.50
5.80
5.32
4.27
3.08
2.22
2.00
2.46
3.39
4.49
5.53
6.43
7.24
8.01
8.73
9.23
9.27
8.68
7.48
5.93
4.41
3.31
2.84
2.96
3.43
3.93
4.27
4.40
4.43
4.53
4.73
4.90
4.78
4.16
3.00
1.50
0.01
-1.13
-1.72
-1.77
-1.43
-0.90
-0.30
0.27
0.75
0.99
0.84
0.24
-0.73
-1.81
-2.65
-2.99
-2.71
-1.90
-0.74
0.58
1.97
3.33
4.58
5.57
6.11
6.11
5.59
4.72
3.71
2.78
2.09
1.70
1.61
1.80
2.20
2.79
3.48
4.19
4.86
5.38
5.69
5.75
5.58
5.24
4.86
4.60
4.55
4.78
5.25
5.83
6.40
6.83
7.04
6.99
6.64
5.99
5.03
3.79
2.40
1.04
-0.07
-0.76
-1.03
-1.00
-0.89
-0.91
-1.13
-1.49
-1.84
-2.08
-2.20
-2.32
-2.54
-2.90
-3.32
-3.63
-3.66
-3.33
-2.68
-1.88
-1.09
-0.48
-0.14
-0.09
-0.30
-0.68
-1.16
-1.63
-1.98
-2.14
-2.10
-1.86
-1.49
-1.05
-0.59
-0.15
0.22
0.47
0.54
0.38
-0.02
-0.58
-1.17
-1.65
-1.89
-1.86
-1.61
-1.26
-0.95
-0.76
-0.74
-0.85
-0.99
-1.09
-1.13
-1.15
-1.22
-1.39
-1.66
-1.93
-2.05
-1.92
-1.47
-0.78
-0.02
0.64
1.05
1.15
0.98
0.57
-0.03
-0.77
-1.55
-2.23
-2.65
-2.67
-2.31
-1.70
-1.09
-0.68
-0.52
-0.53
-0.55
-0.46
-0.33
-0.33
-0.62
-1.24
-2.03
-2.73
-3.11
-3.11
-2.85
-2.55
-2.37
-2.32
-2.30
-2.18
-1.93
-1.64
-1.51
-1.67
-2.12
-2.72
-3.27
-3.64
-3.83
-3.93
-4.07
-4.26
-4.43
-4.44
-4.19
-3.70
-3.09
-2.54
-2.15
-1.91
-1.71
-1.40
-0.91
-0.31
0.23
0.52
0.45
0.04
-0.53
-1.04
-1.30
-1.27
-0.98
-0.57
-0.11
0.36
0.89
1.49
2.08
2.53
2.69
2.52
2.10
1.60
1.21
1.02
1.04
1.21
1.47
1.80
2.17
2.51
2.68
2.57
2.10
1.37
0.57
-0.03
-0.24
0.03
0.75
1.79
2.97
4.06
4.80
5.01
4.61
3.69
2.50
1.40
0.64
0.37
0.53
0.95
1.40
1.67
1.64
1.27
0.56
-0.39
-1.43
-2.37
-3.02
-3.28
-3.17
-2.83
-2.43
-2.14
-2.02
-2.05
-2.20
-2.44
-2.77
-3.22
-3.76
-4.31
-4.74
-4.92
-4.78
-4.36
-3.76
-3.08
-2.40
-1.75
-1.17
-0.68
-0.33
-0.18
-0.24
-0.48
-0.81
-1.12
-1.33
-1.38
-1.29
-1.07
-0.72
-0.23
0.38
1.05
1.65
2.03
2.03
1.63
0.91
0.11
-0.52
-0.78
-0.59
-0.04
0.68
1.34
1.76
1.88
1.73
1.38
0.91
0.33
-0.34
-1.04
-1.70
-2.14
-2.25
-1.95
-1.31
-0.47
0.36
1.00
1.35
1.43
1.32
1.17
1.04
0.98
0.96
0.95
0.93
0.91
0.95
1.07
1.27
1.51
1.74
1.88
1.90
1.79
1.58
1.30
1.02
0.82
0.73
0.76
0.85
0.90
0.82
0.57
0.20
-0.17
-0.43
-0.53
-0.49
-0.44
-0.50
-0.75
-1.17
-1.67
-2.14
-2.49
-2.72
-2.79
-2.70
-2.41
-1.90
-1.20
-0.41
0.35
0.95
1.33
1.52
1.59
1.57
1.48
1.29
1.03
0.77
0.62
0.66
0.90
1.23
1.52
1.60
1.40
0.90
0.21
-0.52
-1.16
-1.58
-1.77
-1.76
-1.62
-1.42
-1.20
-0.98
-0.84
-0.82
-0.97
-1.27
-1.60
-1.81
-1.84
-1.67
-1.44
-1.26
-1.19
-1.12
-0.91
-0.43
0.34
1.26
2.12
2.76
3.09
3.14
2.98
2.70
2.35
1.97
1.56
1.18
0.87
0.70
0.68
0.74
0.80
0.75
0.56
0.28
0.04
-0.07
-0.01
0.15
0.28
0.28
0.17
0.04
0.00
0.09
0.22
0.25
0.06
-0.34
-0.82
-1.21
-1.36
-1.24
-0.90
-0.47
-0.04
0.32
0.61
0.83
1.00
1.16
1.35
1.60
1.86
2.08
2.15
2.03
1.75
1.45
1.25
1.27
1.55
2.05
2.69
3.35
3.89
4.20
4.20
3.87
3.30
2.67
2.12
1.74
1.47
1.16
0.67
-0.06
-0.98
-1.93
-2.76
-3.36
-3.70
-3.81
-3.72
-3.47
-3.09
-2.64
-2.22
-1.94
-1.85
-1.91
-2.00
-1.96
-1.68
-1.16
-0.52
0.13
0.67
1.05
1.29
1.42
1.44
1.37
1.27
1.21
1.30
1.53
1.83
2.04
2.00
1.61
0.92
0.06
-0.78
-1.43
-1.79
-1.90
-1.87
-1.86
-2.01
-2.35
-2.77
-3.08
-3.12
-2.84
-2.34
-1.85
-1.57
-1.62
-1.95
-2.42
-2.87
-3.20
-3.35
-3.28
-3.01
-2.54
-1.90
-1.19
-0.54
-0.08
0.09
-0.05
-0.44
-0.96
-1.47
-1.84
-2.03
-2.02
-1.88
-1.70
-1.58
-1.58
-1.75
-2.03
-2.31
-2.42
-2.19
-1.53
-0.51
0.67
1.69
2.29
2.35
1.97
1.37
0.81
0.51
0.53
0.87
1.44
2.13
2.78
3.23
3.32
2.98
2.23
1.23
0.21
-0.58
-0.98
-0.95
-0.58
-0.10
0.20
0.10
-0.52
-1.54
-2.67
-3.60
-4.08
-4.08
-3.72
-3.22
-2.75
-2.34
-1.95
-1.54
-1.14
-0.82
-0.65
-0.63
-0.65
-0.57
-0.35
-0.05
0.20
0.31
0.26
0.20
0.24
0.42
0.67
0.84
0.79
0.56
0.30
0.17
0.31
0.69
1.15
1.53
1.71
1.64
1.38
1.02
0.59
0.17
-0.23
-0.60
-0.92
-1.20
-1.45
-1.69
-1.91
-2.13
-2.38
-2.69
-3.08
-3.54
-4.02
-4.41
-4.58
-4.48
-4.12
-3.57
-2.97
-2.46
-2.16
-2.12
-2.32
-2.65
-2.97
-3.16
-3.12
-2.86
-2.46
-2.00
-1.55
-1.11
-0.65
-0.10
0.57
1.35
2.22
3.15
4.08
4.95
5.65
6.06
6.09
5.70
4.91
3.83
2.58
1.32
0.18
-0.68
-1.10
-0.97
-0.28
0.86
2.20
3.43
4.27
4.55
4.27
3.62
2.89
2.37
2.28
2.67
3.40
4.20
4.79
4.94
4.59
3.85
2.93
2.06
1.45
1.23
1.40
1.91
2.60
3.28
3.76
3.90
3.65
3.05
2.17
1.11
-0.02
-1.12
-2.07
-2.77
-3.09
-3.02
-2.59
-1.94
-1.22
-0.59
-0.14
0.09
0.12
0.04
-0.07
-0.14
-0.16
-0.13
-0.12
-0.17
-0.31
-0.49
-0.63
-0.65
-0.49
-0.17
0.23
0.60
0.83
0.90
0.84
0.72
0.62
0.57
0.58
0.62
0.67
0.77
0.94
1.23
1.61
2.05
2.45
2.74
2.89
2.88
2.74
2.49
2.20
1.92
1.72
1.62
1.62
1.71
1.82
1.92
1.99
2.03
2.04
2.03
1.98
1.88
1.75
1.60
1.47
1.35
1.24
1.10
0.91
0.66
0.34
-0.01
-0.39
-0.77
-1.12
-1.44
-1.69
-1.82
-1.81
-1.65
-1.38
-1.09
-0.83
-0.67
-0.59
-0.57
-0.57
-0.60
-0.65
-0.76
-0.90
-1.04
-1.13
-1.13
-1.08
-1.03
-1.04
-1.12
-1.23
-1.31
-1.33
-1.28
-1.20
-1.11
-0.98
-0.79
-0.51
-0.14
0.21
0.46
0.54
0.48
0.41
0.45
0.67
1.03
1.42
1.70
1.82
1.80
1.67
1.49
1.26
0.98
0.63
0.24
-0.08
-0.27
-0.24
-0.02
0.34
0.75
1.11
1.37
1.50
1.50
1.37
1.14
0.84
0.54
0.30
0.17
0.19
0.32
0.47
0.54
0.48
0.29
0.09
0.00
0.13
0.47
0.96
1.44
1.77
1.87
1.76
1.52
1.25
1.04
0.89
0.77
0.60
0.33
-0.01
-0.33
-0.50
-0.44
-0.16
0.24
0.60
0.78
0.74
0.50
0.17
-0.15
-0.39
-0.55
-0.65
-0.71
-0.75
-0.75
-0.67
-0.53
-0.37
-0.29
-0.39
-0.68
-1.10
-1.48
-1.63
-1.47
-1.06
-0.60
-0.29
-0.26
-0.46
-0.73
-0.90
-0.90
-0.74
-0.52
-0.31
-0.12
0.07
0.29
0.53
0.73
0.81
0.77
0.64
0.52
0.43
0.41
0.40
0.37
0.28
0.16
0.04
-0.02
-0.01
0.08
0.20
0.27
0.22
0.05
-0.17
-0.35
-0.38
-0.23
0.01
0.21
0.26
0.13
-0.12
-0.32
-0.37
-0.21
0.09
0.42
0.68
0.80
0.76
0.58
0.25
-0.18
-0.61
-0.96
-1.15
-1.16
-1.03
-0.83
-0.61
-0.38
-0.15
0.01
-0.01
-0.33
-0.96
-1.78
-2.54
-3.01
-3.06
-2.72
-2.16
-1.56
-1.03
-0.61
-0.31
-0.15
-0.13
-0.21
-0.31
-0.28
-0.04
0.36
0.81
1.14
1.25
1.17
1.01
0.91
0.92
0.99
1.04
0.98
0.82
0.61
0.46
0.45
0.57
0.74
0.84
0.81
0.64
0.43
0.28
0.27
0.39
0.54
0.63
0.58
0.42
0.25
0.12
0.05
0.01
-0.07
-0.22
-0.40
-0.56
-0.65
-0.69
-0.75
-0.89
-1.13
-1.44
-1.73
-1.94
-2.03
-2.03
-2.01
-2.04
-2.13
-2.25
-2.31
-2.19
-1.86
-1.33
-0.73
-0.22
0.11
0.25
0.32
0.44
0.70
1.04
1.37
1.57
1.60
1.50
1.35
1.20
1.08
0.94
0.78
0.62
0.55
0.64
0.93
1.37
1.84
2.18
2.26
2.02
1.52
0.90
0.34
-0.05
-0.22
-0.24
-0.24
-0.29
-0.44
-0.66
-0.87
-1.00
-1.02
-0.93
-0.77
-0.57
-0.39
-0.22
-0.07
0.08
0.25
0.40
0.47
0.40
0.16
-0.21
-0.60
-0.92
-1.14
-1.28
-1.42
-1.60
-1.84
-2.10
-2.27
-2.28
-2.09
-1.71
-1.21
-0.68
-0.21
0.14
0.33
0.36
0.23
-0.02
-0.37
-0.73
-1.00
-1.08
-0.94
-0.63
-0.28
-0.05
-0.03
-0.19
-0.40
-0.48
-0.32
0.02
0.40
0.64
0.66
0.51
0.32
0.26
0.39
0.66
0.94
1.09
1.06
0.92
0.78
0.77
0.92
1.13
1.28
1.24
0.97
0.50
-0.07
-0.66
-1.21
-1.71
-2.14
-2.45
-2.59
-2.56
-2.40
-2.20
-2.07
-2.05
-2.07
-2.06
-1.91
-1.59
-1.12
-0.54
0.10
0.77
1.40
1.92
2.23
2.27
2.07
1.72
1.39
1.16
1.07
1.10
1.17
1.23
1.27
1.27
1.23
1.15
1.01
0.80
0.58
0.38
0.29
0.32
0.45
0.62
0.72
0.72
0.60
0.42
0.27
0.18
0.16
0.12
-0.01
-0.29
-0.72
-1.23
-1.75
-2.20
-2.55
-2.75
-2.80
-2.66
-2.35
-1.92
-1.48
-1.14
-0.96
-0.89
-0.83
-0.64
-0.29
0.15
0.57
0.83
0.90
0.81
0.69
0.62
0.65
0.74
0.81
0.84
0.82
0.76
0.69
0.65
0.61
0.59
0.58
0.58
0.60
0.63
0.66
0.67
0.65
0.63
0.61
0.64
0.72
0.80
0.81
0.69
0.43
0.07
-0.29
-0.55
-0.66
-0.65
-0.61
-0.65
-0.80
-1.03
-1.27
-1.42
-1.45
-1.42
-1.40
-1.47
-1.63
-1.80
-1.90
-1.87
-1.74
-1.61
-1.59
-1.68
-1.81
-1.81
-1.52
-0.91
-0.08
0.76
1.40
1.71
1.70
1.46
1.14
0.82
0.56
0.39
0.32
0.36
0.48
0.63
0.75
0.79
0.77
0.71
0.67
0.64
0.60
0.52
0.38
0.23
0.14
0.12
0.13
0.09
-0.09
-0.44
-0.90
-1.34
-1.62
-1.67
-1.49
-1.17
-0.83
-0.61
-0.53
-0.59
-0.69
-0.78
-0.81
-0.79
-0.75
-0.70
-0.64
-0.54
-0.40
-0.21
0.03
0.30
0.56
0.78
0.89
0.90
0.82
0.75
0.77
0.92
1.13
1.27
1.24
1.04
0.77
0.58
0.56
0.69
0.89
1.04
1.10
1.10
1.08
1.08
1.06
0.96
0.73
0.39
0.03
-0.27
-0.44
-0.45
-0.30
-0.03
0.30
0.60
0.78
0.78
0.59
0.28
-0.03
-0.25
-0.35
-0.40
-0.47
-0.62
-0.84
-1.05
-1.17
-1.14
-0.97
-0.73
-0.52
-0.44
-0.53
-0.79
-1.17
-1.55
-1.81
-1.84
-1.57
-1.05
-0.38
0.29
0.84
1.21
1.40
1.41
1.29
1.07
0.78
0.46
0.19
0.04
0.05
0.20
0.41
0.59
0.67
0.66
0.57
0.44
0.29
0.12
-0.05
-0.21
-0.33
-0.37
-0.38
-0.41
-0.50
-0.67
-0.85
-0.99
-1.06
-1.07
-1.07
-1.09
-1.15
-1.25
-1.36
-1.47
-1.58
-1.65
-1.64
-1.52
-1.30
-1.03
-0.77
-0.55
-0.37
-0.19
0.04
0.31
0.57
0.75
0.81
0.78
0.72
0.69
0.76
0.92
1.14
1.34
1.44
1.39
1.19
0.89
0.62
0.43
0.36
0.31
0.21
0.00
-0.27
-0.55
-0.75
-0.89
-1.02
-1.21
-1.45
-1.67
-1.80
-1.78
-1.67
-1.57
-1.56
-1.66
-1.78
-1.82
-1.72
-1.46
-1.09
-0.70
-0.36
-0.12
0.03
0.13
0.28
0.50
0.81
1.14
1.42
1.59
1.64
1.66
1.72
1.87
2.03
2.10
1.96
1.58
1.03
0.44
-0.04
-0.31
-0.35
-0.24
-0.06
0.10
0.20
0.24
0.22
0.16
0.08
0.01
-0.06
-0.12
-0.19
-0.30
-0.47
-0.70
-0.93
-1.14
-1.30
-1.42
-1.55
-1.69
-1.80
-1.80
-1.61
-1.24
-0.80
-0.46
-0.34
-0.43
-0.59
-0.60
-0.30
0.29
1.01
1.62
1.93
1.88
1.58
1.20
0.85
0.60
0.40
0.21
0.01
-0.19
-0.33
-0.41
-0.45
-0.50
-0.60
-0.75
-0.88
-0.93
-0.81
-0.56
-0.30
-0.16
-0.28
-0.64
-1.09
-1.41
-1.43
-1.11
-0.62
-0.20
-0.05
-0.25
-0.70
-1.20
-1.55
-1.62
-1.42
-1.06
-0.65
-0.31
-0.07
0.09
0.23
0.41
0.63
0.82
0.94
0.94
0.85
0.75
0.69
0.68
0.67
0.62
0.53
0.45
0.46
0.60
0.84
1.08
1.20
1.15
0.93
0.60
0.27
0.01
-0.15
-0.19
-0.13
0.04
0.27
0.53
0.73
0.78
0.66
0.38
0.03
-0.31
-0.56
-0.71
-0.81
-0.92
-1.08
-1.24
-1.34
-1.33
-1.16
-0.88
-0.58
-0.37
-0.32
-0.47
-0.75
-1.02
-1.13
-0.95
-0.46
0.24
0.93
1.42
1.61
1.54
1.36
1.21
1.14
1.13
1.12
1.12
1.21
1.47
1.89
2.33
2.53
2.34
1.76
1.00
0.39
0.16
0.36
0.81
1.24
1.39
1.20
0.77
0.28
-0.13
-0.41
-0.61
-0.80
-0.96
-1.02
-0.90
-0.60
-0.25
-0.03
-0.09
-0.45
-0.98
-1.47
-1.71
-1.62
-1.23
-0.68
-0.13
0.26
0.43
0.39
0.22
0.02
-0.13
-0.19
-0.18
-0.09
0.06
0.29
0.58
0.88
1.11
1.20
1.11
0.84
0.41
-0.11
-0.65
-1.11
-1.41
-1.48
-1.35
-1.10
-0.86
-0.72
-0.71
-0.79
-0.91
-1.05
-1.23
-1.49
-1.81
-2.10
-2.24
-2.20
-2.01
-1.85
-1.87
-2.19
-2.76
-3.43
-3.99
-4.28
-4.20
-3.76
-3.07
-2.26
-1.43
-0.66
0.07
0.75
1.41
2.02
2.53
2.90
3.12
3.20
3.17
3.09
2.95
2.77
2.59
2.48
2.51
2.72
3.01
3.24
3.24
2.95
2.46
1.98
1.68
1.63
1.77
1.95
2.02
1.91
1.63
1.26
0.88
0.56
0.32
0.13
-0.01
-0.14
-0.25
-0.34
-0.37
-0.33
-0.28
-0.30
-0.51
-0.96
-1.58
-2.14
-2.41
-2.22
-1.58
-0.67
0.23
0.87
1.17
1.19
1.11
1.06
1.10
1.19
1.25
1.24
1.17
1.12
1.11
1.12
1.08
0.92
0.66
0.38
0.20
0.21
0.41
0.72
1.04
1.26
1.36
1.34
1.25
1.12
0.98
0.83
0.72
0.66
0.67
0.73
0.77
0.73
0.53
0.17
-0.31
-0.82
-1.23
-1.48
-1.55
-1.50
-1.43
-1.43
-1.55
-1.78
-2.05
-2.31
-2.50
-2.60
-2.59
-2.45
-2.19
-1.79
-1.31
-0.79
-0.36
-0.08
0.03
-0.01
-0.13
-0.27
-0.38
-0.46
-0.49
-0.48
-0.41
-0.30
-0.19
-0.15
-0.24
-0.53
-0.98
-1.51
-2.00
-2.36
-2.54
-2.55
-2.47
-2.34
-2.22
-2.09
-1.91
-1.62
-1.17
-0.53
0.24
1.03
1.71
2.13
2.21
1.98
1.54
1.09
0.79
0.77
0.99
1.32
1.56
1.59
1.39
1.09
0.87
0.89
1.16
1.58
1.98
2.23
2.29
2.22
2.09
1.94
1.77
1.57
1.36
1.22
1.19
1.29
1.41
1.47
1.37
1.13
0.87
0.72
0.73
0.89
1.07
1.13
0.95
0.52
-0.10
-0.75
-1.31
-1.68
-1.82
-1.78
-1.66
-1.51
-1.40
-1.31
-1.23
-1.13
-1.00
-0.88
-0.81
-0.82
-0.96
-1.24
-1.60
-1.96
-2.19
-2.20
-1.94
-1.46
-0.89
-0.35
0.07
0.33
0.44
0.44
0.37
0.23
0.06
-0.10
-0.20
-0.17
0.00
0.33
0.77
1.30
1.91
2.61
3.43
4.36
5.39
6.44
7.42
8.21
8.76
9.04
9.07
8.93
8.70
8.43
8.12
7.72
7.16
6.40
5.51
4.62
3.99
3.87
4.38
5.48
6.89
8.23
9.13
9.38
9.03
8.26
7.37
6.60
6.09
5.88
5.95
6.32
6.97
7.85
8.83
9.68
10.15
10.01
9.13
7.50
5.17
2.28
-1.06
-4.64
-8.22
-11.47
-14.00
-15.50
-15.80
-14.95
-13.22
-11.01
-8.73
-6.72
-5.19
-4.25
-3.96
-4.29
-5.16
-6.32
-7.43
-8.05
-7.81
-6.55
-4.31
-1.34
1.95
5.18
8.00
10.18
11.57
12.13
11.87
10.85
9.17
6.99
4.54
2.11
0.02
-1.50
-2.42
-2.86
-3.01
-3.08
-3.11
-3.05
-2.83
-2.45
-2.04
-1.80
-1.84
-2.14
-2.54
-2.90
-3.18
-3.49
-3.99
-4.74
-5.64
-6.42
-6.83
-6.70
-6.04
-4.98
-3.63
-2.03
-0.15
2.01
4.34
6.63
8.60
10.10
11.17
12.01
12.87
13.86
14.89
15.68
15.96
15.54
14.47
12.94
11.17
9.30
7.36
5.31
3.16
0.97
-1.14
-3.03
-4.64
-6.01
-7.28
-8.60
-10.12
-11.86
-13.73
-15.53
-16.99
-17.85
-17.98
-17.36
-16.09
-14.35
-12.34
-10.28
-8.36
-6.75
-5.58
-4.92
-4.77
-5.01
-5.48
-5.97
-6.30
-6.32
-6.00
-5.46
-4.87
-4.42
-4.18
-4.08
-3.94
-3.62
-3.09
-2.54
-2.26
-2.54
-3.59
-5.43
-7.97
-10.99
-14.22
-17.23
-19.58
-20.86
-20.85
-19.69
-17.82
-15.82
-14.20
-13.20
-12.74
-12.56
-12.34
-11.84
-10.98
-9.81
-8.41
-6.93
-5.47
-4.17
-3.11
-2.30
-1.74
-1.37
-1.14
-1.00
-0.90
-0.80
-0.65
-0.41
-0.13
0.12
0.19
-0.01
-0.55
-1.39
-2.41
-3.42
-4.27
-4.82
-5.03
-4.91
-4.51
-3.84
-2.90
-1.73
-0.45
0.78
1.78
2.48
2.97
3.42
4.03
4.86
5.80
6.63
7.12
7.23
7.03
6.71
6.46
6.33
6.30
6.28
6.18
6.00
5.79
5.59
5.42
5.25
5.04
4.71
4.24
3.63
2.95
2.31
1.81
1.54
1.47
1.45
1.30
0.83
0.01
-1.02
-1.99
-2.61
-2.70
-2.23
-1.39
-0.43
0.43
1.07
1.45
1.63
1.66
1.60
1.46
1.28
1.06
0.85
0.64
0.43
0.21
-0.02
-0.23
-0.42
-0.60
-0.80
-1.04
-1.28
-1.43
-1.36
-1.05
-0.56
-0.05
0.32
0.46
0.37
0.08
-0.34
-0.81
-1.28
-1.64
-1.79
-1.64
-1.25
-0.81
-0.55
-0.62
-1.02
-1.53
-1.88
-1.80
-1.19
-0.09
1.35
2.95
4.56
6.01
7.12
7.74
7.78
7.25
6.33
5.30
4.40
3.79
3.48
3.38
3.36
3.32
3.26
3.15
3.00
2.80
2.57
2.40
2.36
2.50
2.74
2.94
2.90
2.55
1.98
1.38
0.98
0.88
1.04
1.27
1.45
1.50
1.48
1.49
1.59
1.78
1.98
2.16
2.30
2.42
2.52
2.56
2.45
2.11
1.56
0.92
0.37
0.09
0.14
0.43
0.80
1.05
1.08
0.89
0.55
0.18
-0.17
-0.47
-0.74
-1.00
-1.26
-1.48
-1.65
-1.76
-1.83
-1.87
-1.91
-1.98
-2.08
-2.19
-2.26
-2.23
-2.02
-1.57
-0.90
-0.07
0.83
1.73
2.58
3.38
4.08
4.64
4.96
5.00
4.76
4.37
3.96
3.66
3.48
3.38
3.26
3.10
2.88
2.70
2.62
2.67
2.81
2.96
3.00
2.87
2.55
2.08
1.53
1.00
0.51
0.11
-0.24
-0.56
-0.85
-1.14
-1.48
-1.89
-2.39
-2.94
-3.42
-3.67
-3.57
-3.11
-2.36
-1.49
-0.61
0.24
1.10
2.03
3.01
3.94
4.67
5.10
5.26
5.31
5.42
5.74
6.24
6.79
7.19
7.30
7.12
6.79
6.55
6.56
6.85
7.27
7.54
7.34
6.49
4.97
2.98
0.89
-0.90
-2.09
-2.59
-2.53
-2.24
-2.09
-2.37
-3.20
-4.51
-6.03
-7.32
-7.86
-7.18
-5.03
-1.60
2.46
6.18
8.62
9.30
8.38
6.63
5.02
4.28
4.65
5.83
7.27
8.45
9.06
9.06
8.55
7.62
6.30
4.53
2.32
-0.22
-2.81
-5.00
-6.37
-6.59
-5.63
-3.76
-1.42
0.98
3.19
5.20
6.98
8.35
8.80
7.75
4.78
-0.02
-5.91
-11.78
-16.50
-19.31
-20.09
-19.23
-17.43
-15.42
-13.79
-12.87
-12.70
-13.09
-13.67
-14.12
-14.19
-13.80
-13.10
-12.41
-12.01
-12.01
-12.30
-12.64
-12.84
-12.79
-12.32
-11.47
-10.41
-9.35
-8.44
-7.74
-7.23
-6.97
-7.06
-7.34
-7.71
-8.12
-8.40
-8.23
-7.33
-5.46
-2.72
0.64
4.54
8.71
12.60
15.66
17.40
17.50
16.87
16.35
15.10
12.98
10.82
9.01
7.73
6.97
6.61
6.48
6.19
5.41
4.10
2.23
-0.31
-3.48
-7.14
-11.01
-14.78
-18.31
-21.56
-24.41
-26.89
-29.14
-31.16
-32.76
-33.61
-33.38
-31.94
-29.36
-25.79
-21.54
-16.97
-12.26
-7.46
-2.57
2.36
7.17
11.61
15.51
18.71
21.29
23.67
26.42
29.98
34.44
39.50
44.66
49.29
52.78
54.93
56.00
56.45
56.52
56.02
54.50
51.65
47.31
41.66
35.43
29.83
26.02
24.52
25.23
27.74
31.58
35.82
38.75
38.31
32.74
21.17
3.77
-18.22
-43.05
-67.10
-85.94
-97.51
-103.57
-107.15
-109.52
-109.73
-106.21
-98.23
-86.39
-72.42
-58.27
-45.01
-32.44
-19.67
-6.32
6.96
18.68
27.23
31.43
31.12
27.46
22.67
18.95
17.42
17.84
19.15
20.00
19.47
17.22
13.61
9.59
6.37
5.03
6.43
10.89
18.05
26.52
33.95
37.70
35.82
27.98
15.86
2.71
-7.66
-12.41
-10.83
-4.52
3.52
10.40
14.63
16.45
17.16
17.97
19.03
19.43
17.98
14.23
8.92
3.70
0.22
-1.14
-1.06
-0.90
-1.91
-4.46
-7.85
-10.79
-12.15
-11.54
-9.51
-7.16
-5.59
-5.42
-6.51
-8.12
-9.41
-9.75
-9.04
-7.60
-5.96
-4.59
-3.77
-3.52
-3.69
-4.03
-4.26
-4.17
-3.64
-2.66
-1.40
-0.18
0.72
1.13
1.09
0.81
0.53
0.44
0.55
0.78
1.01
1.17
1.14
0.86
0.27
-0.64
-1.83
-3.18
-4.49
-5.56
-6.25
-6.55
-6.56
-6.46
-6.42
-6.58
-7.01
-7.66
-8.41
-9.14
-9.76
-10.21
-10.50
-10.71
-10.86
-10.91
-10.82
-10.52
-10.03
-9.47
-8.94
-8.57
-8.41
-8.45
-8.63
-8.82
-8.87
-8.60
-7.82
-6.38
-4.21
-1.37
1.90
5.27
8.40
11.02
13.05
14.57
15.72
16.67
17.48
18.14
18.63
18.97
19.20
19.29
19.15
18.59
17.39
15.48
13.02
10.33
7.82
5.77
4.28
3.25
2.50
1.91
1.40
0.95
0.50
-0.02
-0.74
-1.69
-2.82
-4.00
-5.09
-6.01
-6.77
-7.46
-8.14
-8.76
-9.23
-9.41
-9.26
-8.78
-8.01
-7.03
-5.93
-4.78
-3.67
-2.67
-1.85
-1.33
-1.14
-1.20
-1.41
-1.57
-1.53
-1.14
-0.41
0.54
1.43
2.06
2.39
2.49
2.47
2.48
2.77
3.52
4.66
5.82
6.72
7.21
7.24
6.84
6.05
5.34
5.02
5.10
4.97
4.38
3.35
2.18
1.12
0.32
0.33
1.39
3.21
4.57
4.97
4.46
3.60
3.02
3.34
5.76
11.04
19.07
28.17
37.13
45.13
51.79
56.89
56.22
47.65
32.39
18.74
8.69
2.23
-2.47
-5.79
-7.77
-8.33
-6.86
-3.31
1.50
5.32
6.80
5.59
2.36
-1.72
-5.36
-7.13
-6.52
-4.26
-2.45
-2.41
-4.37
-7.39
-10.15
-11.56
-10.96
-8.65
-5.71
-3.67
-3.01
-3.20
-3.09
-1.71
1.20
5.26
9.45
12.53
13.39
11.81
8.29
3.76
-0.88
-4.97
-8.09
-9.95
-10.37
-9.27
-6.60
-2.51
2.52
7.76
12.36
15.62
17.13
16.90
15.25
12.76
10.04
7.63
5.88
4.83
4.33
4.07
3.73
3.10
2.13
0.88
-0.54
-2.07
-3.67
-5.36
-7.12
-8.88
-10.53
-11.95
-13.06
-13.87
-14.39
-14.68
-14.79
-14.74
-14.56
-14.32
-14.10
-13.99
-14.08
-14.44
-15.12
-16.09
-17.23
-18.29
-18.99
-19.12
-18.64
-17.74
-16.75
-15.96
-15.49
-15.27
-15.11
-14.83
-14.39
-13.82
-13.21
-12.55
-11.78
-10.79
-9.57
-8.20
-6.88
-5.79
-5.01
-4.54
-4.27
-4.11
-3.97
-3.81
-3.62
-3.37
-3.05
-2.63
-2.12
-1.56
-1.03
-0.56
-0.18
0.08
0.19
0.11
-0.19
-0.64
-1.07
-1.25
-0.95
-0.03
1.40
3.05
4.47
5.22
5.02
3.84
1.90
-0.34
-2.39
-3.84
-4.46
-4.28
-3.55
-2.56
-1.61
-0.84
-0.29
0.11
0.47
0.90
1.51
2.35
3.42
4.59
5.65
6.30
6.29
5.52
4.06
2.15
0.11
-1.77
-3.29
-4.36
-5.00
-5.27
-5.25
-5.04
-4.69
-4.25
-3.77
-3.34
-3.09
-3.19
-3.75
-4.75
-6.04
-7.29
-8.18
-8.47
-8.10
-7.21
-6.07
-4.95
-4.01
-3.26
-2.59
-1.88
-1.10
-0.31
0.35
0.82
1.11
1.38
1.80
2.46
3.36
4.42
5.52
6.59
7.60
8.51
9.27
9.79
9.94
9.69
9.02
7.98
6.64
5.07
3.37
1.64
0.01
-1.42
-2.61
-3.58
-4.40
-5.12
-5.77
-6.33
-6.76
-7.00
-7.01
-6.76
-6.18
-5.31
-4.19
-2.98
-1.83
-0.88
-0.17
0.37
0.87
1.42
2.02
2.56
2.89
2.91
2.68
2.32
2.02
1.86
1.87
1.99
2.20
2.50
2.91
3.41
3.89
4.16
4.06
3.58
2.85
2.10
1.51
1.14
0.88
0.54
0.00
-0.73
-1.52
-2.15
-2.48
-2.47
-2.23
-1.95
-1.86
-2.10
-2.74
-3.70
-4.81
-5.85
-6.58
-6.87
-6.67
-6.00
-4.95
-3.66
-2.25
-0.85
0.37
1.31
1.89
2.21
2.43
2.74
3.24
3.86
4.41
4.66
4.55
4.19
3.82
3.71
3.98
4.55
5.19
5.64
5.74
5.49
5.02
4.50
4.06
3.72
3.44
3.10
2.64
2.09
1.56
1.15
0.90
0.74
0.50
0.02
-0.77
-1.81
-2.90
-3.83
-4.43
-4.69
-4.71
-4.66
-4.69
-4.82
-4.99
-5.01
-4.72
-3.98
-2.78
-1.18
0.63
2.45
4.08
5.40
6.39
7.16
8.00
9.25
11.19
13.94
17.36
21.11
24.71
27.76
30.01
31.42
32.15
32.39
32.31
31.96
31.25
30.00
28.00
25.09
21.25
16.59
11.35
5.83
0.35
-4.80
-9.38
-13.21
-16.21
-18.39
-19.93
-21.06
-22.07
-23.14
-24.32
-25.48
-26.41
-26.88
-26.76
-26.02
-24.70
-22.92
-20.79
-18.42
-15.95
-13.53
-11.30
-9.34
-7.70
-6.34
-5.16
-4.10
-3.12
-2.21
-1.39
-0.65
-0.00
0.59
1.14
1.66
2.13
2.54
2.87
3.13
3.31
3.40
3.37
3.18
2.84
2.38
1.89
1.43
1.03
0.69
0.35
-0.03
-0.42
-0.80
-1.07
-1.22
-1.28
-1.33
-1.46
-1.74
-2.14
-2.61
-3.05
-3.36
-3.43
-3.21
-2.67
-1.85
-0.85
0.21
1.17
1.92
2.42
2.70
2.86
3.00
3.16
3.35
3.51
3.58
3.57
3.51
3.46
3.49
3.60
3.72
3.78
3.73
3.55
3.30
3.02
2.76
2.53
2.31
2.11
1.93
1.83
1.84
1.94
2.07
2.17
2.16
2.00
1.70
1.34
0.99
0.73
0.62
0.62
0.70
0.74
0.66
0.45
0.17
-0.06
-0.13
0.05
0.41
0.83
1.16
1.34
1.45
1.60
1.95
2.49
3.09
3.57
3.78
3.68
3.39
3.02
2.64
2.22
1.66
0.95
0.17
-0.47
-0.80
-0.77
-0.49
-0.17
0.00
-0.04
-0.25
-0.50
-0.69
-0.80
-0.89
-0.99
-1.10
-1.16
-1.11
-0.91
-0.57
-0.14
0.31
0.69
0.93
1.00
0.89
0.66
0.39
0.16
0.03
-0.03
-0.09
-0.22
-0.42
-0.62
-0.68
-0.50
-0.09
0.40
0.80
0.97
0.92
0.76
0.63
0.63
0.72
0.82
0.82
0.70
0.53
0.36
0.23
0.12
-0.03
-0.24
-0.48
-0.69
-0.80
-0.81
-0.74
-0.64
-0.54
-0.46
-0.43
-0.48
-0.65
-0.95
-1.33
-1.70
-1.95
-2.05
-2.01
-1.91
-1.82
-1.78
-1.83
-1.97
-2.23
-2.64
-3.21
-3.92
-4.69
-5.37
-5.89
-6.19
-6.33
-6.35
-6.37
-6.43
-6.55
-6.68
-6.74
-6.76
-6.84
-7.13
-7.70
-8.52
-9.44
-10.23
-10.64
-10.50
-9.91
-9.05
-8.06
-6.96
-5.61
-3.87
-1.70
1.11
4.62
8.69
13.03
17.27
21.04
24.07
26.16
27.24
27.80
28.37
29.29
30.55
31.91
33.13
34.10
34.82
35.38
36.44
38.50
41.62
45.43
49.30
52.76
55.51
57.28
54.62
45.48
30.06
11.00
-8.48
-26.24
-41.40
-53.63
-62.71
-68.32
-69.74
-66.85
-60.44
-52.10
-43.55
-35.88
-29.37
-23.73
-18.66
-13.54
-8.38
-3.70
-0.18
1.83
2.53
2.49
2.30
2.22
2.46
2.95
3.48
3.92
4.32
4.92
5.96
7.48
9.08
10.38
10.96
10.55
9.10
6.85
4.20
1.56
-0.71
-2.43
-3.44
-3.81
-3.76
-3.76
-4.32
-5.87
-8.45
-11.69
-14.82
-16.90
-17.21
-15.42
-11.68
-6.58
-0.91
4.48
8.89
11.83
13.15
13.07
12.11
10.97
10.25
10.31
11.15
12.49
13.90
15.01
15.50
15.20
14.00
11.87
8.95
5.59
2.31
-0.33
-1.89
-2.25
-1.61
-0.43
0.73
1.36
1.09
-0.29
-2.76
-6.11
-9.91
-13.63
-16.78
-19.05
-20.43
-21.15
-21.60
-22.09
-22.70
-23.34
-23.87
-24.22
-24.49
-24.81
-25.22
-25.51
-25.30
-24.21
-22.08
-19.14
-15.97
-13.27
-11.56
-10.95
-11.17
-11.72
-12.13
-12.18
-11.88
-11.35
-10.70
-9.82
-8.53
-6.61
-4.02
-0.86
2.60
6.11
9.48
12.63
15.51
18.07
20.18
21.69
22.45
22.34
21.30
19.38
16.68
13.41
9.84
6.21
2.71
-0.62
-3.79
-6.84
-9.73
-12.34
-14.47
-15.95
-16.76
-17.03
-16.99
-16.92
-16.97
-17.15
-17.31
-17.28
-16.91
-16.21
-15.29
-14.38
-13.62
-13.09
-12.74
-12.44
-12.10
-11.63
-11.05
-10.38
-9.63
-8.81
-7.89
-6.87
-5.77
-4.64
-3.49
-2.30
-0.97
0.65
2.68
5.16
7.97
10.83
13.42
15.40
16.58
17.02
16.96
16.79
16.91
17.57
18.83
20.55
22.48
24.28
25.69
26.49
26.57
25.88
24.48
22.52
20.25
17.95
15.82
13.98
12.46
11.29
10.66
10.90
12.40
15.44
19.96
25.55
31.54
37.26
42.18
46.12
49.10
51.26
52.73
53.54
53.69
53.23
52.30
51.10
49.82
48.52
47.05
45.15
42.52
38.98
34.52
29.23
23.15
16.28
8.56
0.03
-9.03
-18.06
-26.39
-33.44
-38.88
-42.68
-45.03
-46.17
-46.29
-45.56
-44.22
-42.60
-41.11
-40.15
-39.94
-40.43
-41.36
-42.31
-42.86
-42.76
-41.93
-40.45
-38.48
-36.17
-33.64
-31.01
-28.40
-26.00
-23.99
-22.49
-21.53
-20.98
-20.56
-19.90
-18.65
-16.54
-13.54
-9.87
-5.99
-2.51
0.02
1.29
1.32
0.47
-0.69
-1.61
-1.95
-1.67
-0.98
-0.22
0.32
0.54
0.53
0.48
0.52
0.64
0.72
0.62
0.39
0.39
1.16
3.24
6.81
11.53
16.57
20.91
23.62
24.13
22.22
17.99
11.83
4.51
-2.84
-8.76
-11.81
-11.14
-6.83
0.06
7.83
14.81
19.88
22.72
23.57
22.85
20.82
17.51
12.92
7.30
1.27
-4.35
-8.82
-11.84
-13.61
-14.74
-15.83
-17.24
-18.86
-20.29
-21.06
-20.88
-19.83
-18.25
-16.58
-15.19
-14.22
-13.57
-13.01
-12.29
-11.24
-9.82
-8.09
-6.14
-4.05
-1.83
0.53
3.11
5.90
8.89
11.92
14.76
17.03
18.32
18.28
16.79
14.00
10.38
6.64
3.45
1.34
0.50
0.76
1.64
2.53
2.82
2.12
0.33
-2.27
-5.20
-7.83
-9.69
-10.49
-10.27
-9.25
-7.75
-6.04
-4.31
-2.67
-1.23
-0.07
0.71
1.09
1.16
1.07
0.97
0.99
1.11
1.23
1.18
0.88
0.34
-0.30
-0.86
-1.23
-1.40
-1.52
-1.77
-2.32
-3.25
-4.48
-5.86
-7.21
-8.42
-9.42
-10.21
-10.85
-11.42
-12.02
-12.72
-13.53
-14.37
-15.14
-15.69
-15.93
-15.84
-15.41
-14.66
-13.55
-12.01
-9.94
-7.27
-4.01
-0.21
4.01
8.53
13.20
17.93
22.64
27.25
31.75
36.05
40.08
43.70
46.77
49.18
50.88
51.88
52.25
52.07
51.38
50.20
48.44
46.01
42.81
38.86
34.37
29.73
25.46
21.97
19.48
17.88
16.83
15.86
14.56
12.71
10.33
7.58
4.71
1.92
-0.76
-3.44
-6.41
-9.99
-14.46
-19.88
-26.01
-32.35
-38.26
-43.10
-46.48
-48.29
-48.68
-48.00
-46.56
-44.61
-42.26
-39.64
-36.88
-34.24
-31.92
-30.01
-28.37
-26.67
-24.63
-22.13
-19.32
-16.55
-14.18
-12.36
-10.94
-9.63
-8.17
-6.43
-4.56
-2.79
-1.37
-0.37
0.24
0.65
1.00
1.42
1.90
2.37
2.64
2.52
1.83
0.48
-1.46
-3.73
-5.93
-7.66
-8.66
-8.91
-8.66
-8.29
-8.18
-8.52
-9.26
-10.21
-11.09
-11.74
-12.10
-12.22
-12.12
-11.80
-11.13
-10.00
-8.33
-6.16
-3.69
-1.16
1.21
3.25
4.93
6.32
7.52
8.65
9.75
10.83
11.83
12.73
13.54
14.32
15.15
16.06
16.98
17.79
18.29
18.35
17.86
16.81
15.23
13.16
10.67
7.89
5.01
2.25
-0.15
-2.03
-3.32
-4.02
-4.13
-3.62
-2.43
-0.51
2.07
5.14
8.42
11.55
14.20
16.10
17.11
17.25
16.68
15.70
14.64
13.76
13.22
13.00
13.02
13.14
13.24
13.22
13.03
12.61
11.93
10.96
9.75
8.36
6.91
5.51
4.23
3.13
2.17
1.29
0.37
-0.69
-1.90
-3.20
-4.42
-5.39
-6.00
-6.26
-6.29
-6.28
-6.38
-6.65
-7.01
-7.31
-7.39
-7.10
-6.33
-5.00
-3.15
-0.86
1.73
4.55
7.55
10.66
13.70
16.37
18.31
19.17
18.78
17.20
14.90
12.45
10.36
8.85
8.02
7.81
8.01
8.34
8.48
8.36
7.87
6.79
4.66
1.38
-2.95
-8.13
-13.92
-20.04
-25.76
-30.49
-34.09
-37.09
-39.50
-41.11
-41.61
-40.90
-39.01
-35.27
-29.31
-21.26
-12.17
-2.17
8.97
21.46
34.95
48.70
62.71
76.67
89.70
99.95
107.02
111.20
113.01
112.63
104.12
85.21
58.65
35.25
16.96
3.08
-8.59
-18.81
-27.99
-36.23
-42.34
-45.45
-45.58
-44.39
-42.70
-41.00
-39.53
-38.61
-38.36
-37.96
-36.72
-34.61
-32.80
-31.71
-31.43
-31.84
-32.91
-34.56
-36.16
-37.23
-37.61
-37.86
-38.00
-37.90
-37.34
-36.28
-34.73
-32.51
-29.58
-26.07
-22.50
-19.08
-15.87
-12.80
-9.82
-6.94
-4.16
-1.61
0.52
1.93
2.50
2.15
0.98
-0.78
-2.79
-4.63
-5.96
-6.39
-5.73
-4.15
-2.14
-0.27
1.03
1.60
1.61
1.32
1.29
1.96
3.40
5.22
6.81
7.69
7.60
6.70
5.43
4.84
6.06
9.84
16.18
24.39
33.40
41.90
48.73
50.86
46.17
35.15
21.07
7.84
-2.01
-7.52
-9.66
-9.41
-7.64
-4.74
-0.92
3.18
6.61
8.45
8.24
6.01
2.25
-2.47
-7.41
-11.94
-15.73
-18.67
-20.66
-21.40
-20.56
-17.94
-13.73
-8.30
-2.28
3.58
8.57
12.28
14.77
16.47
17.99
19.78
22.04
24.52
26.59
27.52
26.74
24.16
20.15
15.31
10.38
6.04
2.69
0.36
-1.21
-2.48
-3.93
-5.81
-8.20
-10.86
-13.35
-15.30
-16.50
-16.97
-17.01
-17.05
-16.94
-16.78
-16.81
-17.08
-17.53
-17.81
-17.45
-16.02
-13.22
-9.00
-3.71
1.81
7.12
11.59
14.54
15.52
14.45
11.59
7.48
2.79
-1.76
-5.43
-7.37
-7.10
-4.68
-0.75
3.58
7.16
9.21
9.63
8.88
7.74
6.83
6.58
6.94
7.44
7.34
6.00
3.05
-1.47
-7.07
-12.89
-17.65
-20.18
-19.70
-16.19
-10.50
-4.42
-0.45
-0.77
-7.10
-18.64
-31.88
-42.37
-47.09
-45.30
-38.21
-28.07
-16.97
-6.06
4.48
14.71
24.51
33.28
40.36
45.46
48.78
50.91
52.50
54.47
56.10
56.35
54.10
48.88
41.24
32.50
24.50
19.13
17.22
18.04
19.92
20.87
19.65
16.20
11.06
5.09
-0.66
-6.16
-12.46
-19.38
-26.52
-32.89
-37.32
-39.64
-40.32
-39.29
-36.94
-33.83
-29.93
-25.14
-19.66
-14.36
-11.33
-12.35
-17.05
-24.44
-33.40
-42.34
-50.01
-55.86
-55.82
-48.26
-40.78
-36.08
-32.12
-28.03
-23.21
-17.51
-11.02
-3.97
2.80
8.72
14.76
21.31
27.89
34.04
39.33
43.42
46.14
46.95
45.48
42.54
38.62
33.81
28.62
23.85
20.35
18.83
19.32
21.31
24.30
27.08
28.01
26.06
21.11
13.85
5.76
-1.47
-6.53
-8.73
-8.63
-7.59
-6.96
-7.60
-10.08
-14.31
-19.72
-25.57
-31.20
-36.32
-40.54
-43.28
-43.88
-42.38
-39.18
-35.00
-30.86
-28.06
-27.93
-30.83
-36.42
-40.91
-42.49
-41.79
-40.47
-38.57
-34.06
-24.81
-9.95
8.80
27.47
41.31
47.57
46.68
41.34
34.57
26.52
16.43
3.70
-10.86
-24.83
-34.38
-35.96
-28.14
-11.01
9.54
26.83
36.79
39.27
36.84
32.92
29.93
28.31
26.95
24.48
20.14
14.66
9.43
5.52
3.31
2.40
2.00
1.31
-0.35
-2.68
-4.79
-5.78
-5.23
-3.24
-0.60
1.97
3.91
4.88
5.07
4.96
4.85
4.78
4.61
4.21
3.65
3.14
2.88
3.12
3.98
5.25
6.59
7.66
8.35
8.84
9.28
9.76
10.33
10.87
11.05
10.61
9.54
8.23
7.28
6.93
7.27
8.26
9.60
10.73
11.08
10.34
8.72
6.90
5.47
5.55
8.65
15.89
27.01
39.92
50.98
56.00
51.69
36.33
11.48
-18.27
-47.12
-70.29
-85.24
-91.77
-91.23
-81.45
-63.56
-42.09
-22.30
-7.22
2.48
7.33
8.34
6.77
4.11
0.83
-2.50
-5.11
-6.49
-6.78
-6.64
-6.72
-7.33
-8.16
-9.32
-10.64
-11.63
-11.85
-11.23
-10.00
-8.52
-6.97
-5.43
-4.19
-3.32
-2.53
-1.52
-0.18
1.35
2.87
4.21
5.32
6.05
6.44
6.65
6.87
7.16
7.48
7.72
7.82
7.79
7.57
7.20
6.80
6.46
6.27
6.24
6.38
6.64
6.93
7.16
7.23
7.12
6.82
6.42
6.01
5.68
5.39
5.00
4.35
3.37
2.11
0.74
-0.53
-1.46
-1.93
-2.07
-2.18
-2.49
-2.99
-3.50
-3.73
-3.43
-2.27
-0.22
2.39
4.91
6.73
7.57
7.52
7.01
6.54
6.93
8.62
11.31
14.09
16.00
16.56
15.98
14.91
14.21
15.03
18.07
23.16
29.44
35.94
41.82
46.53
49.55
47.00
36.73
20.19
2.01
-13.34
-23.97
-30.52
-34.89
-38.91
-43.15
-46.48
-47.26
-44.43
-38.22
-29.39
-19.63
-10.79
-4.18
-0.14
2.24
4.18
6.31
8.26
9.11
8.12
5.27
1.31
-2.63
-5.34
-6.18
-5.32
-3.54
-1.76
-0.67
-0.63
-1.66
-3.60
-6.06
-8.59
-10.80
-12.40
-13.08
-12.64
-10.95
-8.06
-4.22
0.17
4.64
8.64
11.63
13.19
13.12
11.57
9.09
6.44
4.39
3.42
3.49
4.14
4.70
4.59
3.59
1.80
-0.45
-2.83
-5.05
-6.78
-7.68
-7.34
-5.48
-2.12
2.34
7.22
11.78
15.40
17.76
18.79
18.64
17.48
15.49
12.84
9.77
6.59
3.65
1.30
-0.23
-0.87
-0.68
0.12
1.27
2.48
3.51
4.12
4.17
3.56
2.34
0.66
-1.25
-3.09
-4.59
-5.56
-5.92
-5.70
-5.05
-4.13
-3.10
-2.13
-1.31
-0.79
-0.68
-1.10
-2.10
-3.63
-5.53
-7.57
-9.51
-11.17
-12.40
-13.16
-13.46
-13.36
-12.96
-12.28
-11.24
-9.63
-7.22
-3.84
0.38
5.08
9.69
13.72
16.88
19.19
20.84
22.09
23.15
24.12
25.06
25.99
26.91
27.78
28.43
28.68
28.38
27.45
25.96
24.09
22.05
20.08
18.36
16.94
15.74
14.48
12.82
10.47
7.30
3.37
-1.12
-5.92
-10.83
-15.75
-20.57
-25.21
-29.56
-33.48
-36.86
-39.62
-41.68
-42.95
-43.38
-43.00
-41.93
-40.38
-38.63
-36.95
-35.55
-34.59
-34.10
-33.98
-34.06
-34.08
-33.83
-33.22
-32.29
-31.15
-29.91
-28.61
-27.19
-25.56
-23.57
-21.14
-18.22
-14.83
-11.12
-7.30
-3.71
-0.67
1.59
3.10
4.11
5.06
6.43
8.59
11.74
15.80
20.52
25.49
30.20
34.16
36.97
38.53
39.01
38.89
38.74
39.01
39.80
40.80
41.32
40.53
37.76
32.75
25.73
17.44
8.82
0.76
-6.16
-11.79
-16.33
-20.13
-23.38
-26.00
-27.70
-28.13
-27.13
-24.90
-21.88
-18.54
-15.12
-11.62
-7.87
-3.78
0.41
4.16
6.82
7.91
7.47
6.01
4.41
3.50
3.76
5.17
7.24
9.33
10.94
11.88
12.31
12.57
12.97
13.61
14.39
15.05
15.36
15.23
14.71
13.95
13.08
12.13
11.03
9.65
7.87
5.65
2.95
-0.32
-4.35
-9.37
-15.45
-22.28
-29.15
-35.05
-39.06
-40.65
-39.88
-37.24
-33.40
-28.90
-23.96
-18.60
-12.81
-6.74
-0.76
4.68
9.21
12.62
14.94
16.37
17.14
17.47
17.47
17.24
16.83
16.31
15.78
15.35
15.05
14.79
14.40
13.64
12.31
10.36
7.87
5.09
2.34
-0.09
-2.10
-3.73
-5.27
-7.06
-9.39
-12.38
-15.88
-19.52
-22.79
-25.29
-26.83
-27.51
-27.64
-27.56
-27.44
-27.22
-26.59
-25.20
-22.80
-19.33
-14.97
-10.05
-5.03
-0.47
3.05
5.00
5.15
3.74
1.53
-0.42
-1.06
0.26
3.52
8.15
13.33
18.29
22.62
26.23
29.20
31.54
33.13
33.63
32.74
30.33
26.59
22.02
17.29
13.02
9.65
7.34
6.08
5.76
6.25
7.43
9.14
11.07
12.88
14.17
14.64
14.22
13.03
11.35
9.51
7.80
6.40
5.34
4.59
4.03
3.51
2.93
2.21
1.31
0.22
-1.02
-2.37
-3.78
-5.28
-6.93
-8.81
-10.99
-13.43
-15.96
-18.34
-20.41
-22.11
-23.51
-24.74
-25.81
-26.60
-26.87
-26.42
-25.14
-23.13
-20.60
-17.84
-15.13
-12.69
-10.68
-9.15
-8.07
-7.29
-6.57
-5.71
-4.59
-3.28
-1.95
-0.81
0.02
0.53
0.78
0.88
0.89
0.85
0.74
0.54
0.23
-0.22
-0.83
-1.56
-2.34
-3.04
-3.52
-3.61
-3.23
-2.35
-1.06
0.48
2.03
3.33
4.25
4.82
5.27
5.93
7.10
8.85
11.01
13.22
15.10
16.44
17.31
17.89
18.43
19.03
19.60
19.96
19.96
19.57
18.89
18.07
17.23
16.32
15.21
13.78
11.98
9.88
7.65
5.49
3.50
1.73
0.09
-1.50
-3.10
-4.64
-5.96
-6.84
-7.12
-6.79
-6.01
-5.04
-4.15
-3.46
-2.93
-2.43
-1.83
-1.08
-0.26
0.56
1.35
2.22
3.25
4.50
5.83
6.99
7.64
7.51
6.51
4.73
2.39
-0.16
-2.60
-4.66
-6.16
-7.05
-7.39
-7.34
-7.12
-7.08
-7.60
-8.99
-11.40
-14.61
-18.05
-20.94
-22.56
-22.59
-21.17
-18.87
-16.33
-14.02
-12.09
-10.41
-8.80
-7.18
-5.67
-4.44
-3.59
-3.11
-2.82
-2.57
-2.28
-2.02
-1.91
-2.02
-2.28
-2.45
-2.23
-1.41
0.01
1.82
3.64
5.09
5.90
6.05
5.69
5.08
4.45
3.93
3.57
3.31
3.07
2.78
2.47
2.18
1.96
1.88
2.00
2.33
2.84
3.40
3.87
4.19
4.35
4.46
4.68
5.16
5.98
7.10
8.33
9.40
9.99
9.85
8.71
6.42
3.07
-0.99
-5.29
-9.24
-12.35
-14.09
-14.14
-12.46
-9.33
-5.06
-0.11
4.93
9.37
12.52
14.23
14.76
14.68
14.78
16.08
19.35
24.70
31.37
37.80
42.64
44.74
43.40
38.62
31.52
23.86
17.42
13.45
12.23
13.91
18.06
23.78
27.55
26.45
19.77
9.44
-0.08
-8.23
-15.16
-21.07
-26.26
-30.64
-33.78
-35.32
-35.27
-34.09
-32.66
-31.31
-30.01
-28.68
-27.17
-25.16
-22.48
-19.30
-16.18
-13.85
-12.52
-12.06
-12.31
-13.15
-14.29
-15.44
-16.34
-16.81
-16.89
-16.49
-15.60
-14.45
-13.30
-12.29
-11.40
-10.51
-9.44
-8.14
-6.50
-4.51
-2.31
-0.16
1.66
2.95
3.71
4.11
4.52
5.34
6.83
8.89
11.04
12.62
13.04
12.07
9.99
7.40
4.97
3.18
2.14
1.62
1.22
0.51
-0.93
-3.50
-7.45
-12.60
-18.11
-22.52
-24.14
-21.71
-15.06
-5.22
6.00
16.75
25.86
33.06
38.71
43.24
46.85
49.42
50.90
51.57
52.09
53.19
55.19
57.79
60.08
60.97
59.66
56.02
50.58
44.28
38.03
32.29
26.86
21.05
14.02
5.28
-4.95
-15.74
-25.75
-33.76
-39.15
-42.10
-43.36
-43.91
-44.38
-44.96
-45.35
-45.15
-44.11
-42.29
-39.94
-37.33
-34.62
-31.79
-28.74
-25.41
-21.81
-18.03
-14.20
-10.41
-6.73
-3.22
0.09
3.17
6.06
8.86
11.65
14.42
17.04
19.30
20.99
22.09
22.74
23.21
23.79
24.68
25.94
27.48
29.11
30.48
30.99
29.82
26.13
19.36
9.59
-2.39
-15.18
-27.27
-37.46
-45.12
-50.30
-53.40
-55.02
-55.72
-55.94
-55.91
-55.55
-54.39
-51.66
-46.57
-38.79
-28.71
-17.56
-6.95
1.71
7.73
11.35
13.41
14.84
16.17
17.32
17.83
17.28
15.56
13.02
10.21
7.65
5.58
3.93
2.51
1.20
0.05
-0.76
-1.07
-0.88
-0.44
-0.14
-0.33
-1.12
-2.38
-3.75
-4.83
-5.38
-5.34
-4.87
-4.24
-3.66
-3.29
-3.20
-3.36
-3.68
-4.04
-4.24
-4.16
-3.73
-2.99
-2.09
-1.20
-0.44
0.17
0.69
1.18
1.68
2.17
2.59
2.93
3.22
3.55
4.01
4.60
5.23
5.76
6.05
6.06
5.82
5.45
5.07
4.77
4.57
4.44
4.30
4.07
3.69
3.18
2.60
2.03
1.52
1.08
0.68
0.29
-0.11
-0.47
-0.76
-0.92
-0.97
-0.96
-0.98
-1.13
-1.51
-2.12
-2.90
-3.71
-4.34
-4.62
-4.45
-3.87
-3.06
-2.25
-1.61
-1.20
-0.96
-0.76
-0.49
-0.14
0.26
0.61
0.82
0.90
0.91
0.94
1.11
1.43
1.88
2.40
2.93
3.43
3.89
4.31
4.65
4.86
4.91
4.81
4.58
4.29
3.98
3.65
3.30
2.99
2.79
2.83
3.18
3.82
4.58
5.27
5.70
5.75
5.38
4.58
3.34
1.69
-0.27
-2.31
-4.14
-5.54
-6.42
-6.88
-7.09
-7.11
-6.89
-6.20
-4.90
-3.00
-0.77
1.39
3.08
4.06
4.33
4.09
3.61
3.13
2.83
2.74
2.84
3.04
3.21
3.26
3.19
3.03
2.86
2.74
2.64
2.48
2.18
1.73
1.21
0.75
0.52
0.59
0.92
1.41
1.93
2.36
2.67
2.86
2.96
2.96
2.88
2.69
2.41
2.06
1.67
1.28
0.89
0.46
-0.03
-0.59
-1.17
-1.62
-1.77
-1.47
-0.67
0.51
1.86
3.09
3.95
4.28
4.02
3.26
2.15
0.93
-0.19
-1.04
-1.54
-1.70
-1.55
-1.14
-0.52
0.26
1.11
1.92
2.54
2.92
3.12
3.26
3.48
3.86
4.33
4.71
4.78
4.41
3.60
2.50
1.30
0.17
-0.80
-1.62
-2.32
-2.99
-3.64
-4.26
-4.85
-5.37
-5.81
-6.21
-6.56
-6.89
-7.24
-7.62
-8.00
-8.37
-8.71
-9.02
-9.32
-9.62
-9.86
-9.95
-9.79
-9.36
-8.75
-8.18
-7.85
-7.87
-8.19
-8.67
-9.09
-9.35
-9.46
-9.53
-9.70
-10.12
-10.81
-11.72
-12.68
-13.43
-13.69
-13.31
-12.33
-10.99
-9.63
-8.52
-7.67
-6.89
-5.98
-4.96
-4.20
-4.37
-6.17
-10.09
-16.20
-24.10
-33.00
-41.68
-48.56
-51.82
-49.72
-41.25
-26.56
-7.29
13.78
33.50
49.28
59.83
65.23
66.62
65.45
62.92
59.64
55.73
51.13
45.88
40.23
34.55
29.15
24.14
19.43
14.90
10.56
6.60
3.35
1.03
-0.35
-1.10
-1.68
-2.53
-3.87
-5.66
-7.60
-9.29
-10.34
-10.56
-9.96
-8.71
-7.13
-5.50
-4.04
-2.87
-1.97
-1.30
-0.79
-0.41
-0.15
-0.02
-0.00
-0.03
-0.05
0.04
0.30
0.73
1.32
1.99
2.65
3.20
3.60
3.79
3.76
3.47
2.96
2.27
1.51
0.85
0.46
0.43
0.75
1.31
1.90
2.33
2.49
2.43
2.31
2.32
2.64
3.30
4.26
5.41
6.63
7.85
9.03
10.11
11.08
11.90
12.53
13.00
13.34
13.62
13.90
14.24
14.62
15.04
15.47
15.81
15.93
15.61
14.64
12.85
10.25
7.01
3.48
0.11
-2.74
-4.77
-5.88
-6.06
-5.46
-4.33
-3.05
-2.03
-1.67
-2.20
-3.57
-5.50
-7.59
-9.47
-10.93
-11.98
-12.70
-13.11
-13.19
-12.82
-11.93
-10.62
-9.14
-7.78
-6.80
-6.25
-6.03
-5.94
-5.82
-5.64
-5.49
-5.50
-5.72
-6.14
-6.64
-7.09
-7.40
-7.57
-7.63
-7.62
-7.53
-7.36
-7.12
-6.85
-6.59
-6.35
-6.08
-5.69
-5.14
-4.45
-3.72
-3.04
-2.48
-2.01
-1.57
-1.14
-0.74
-0.44
-0.30
-0.33
-0.43
-0.50
-0.46
-0.31
-0.11
0.03
0.00
-0.20
-0.50
-0.76
-0.87
-0.75
-0.43
-0.00
0.42
0.79
1.11
1.45
1.89
2.41
2.92
3.28
3.41
3.29
3.03
2.80
2.70
2.74
2.82
2.77
2.48
2.00
1.46
1.04
0.86
0.88
0.96
0.94
0.78
0.55
0.35
0.28
0.31
0.31
0.16
-0.20
-0.73
-1.35
-1.92
-2.37
-2.65
-2.73
-2.67
-2.52
-2.36
-2.24
-2.18
-2.12
-1.96
-1.63
-1.13
-0.52
0.12
0.68
1.12
1.37
1.42
1.23
0.86
0.40
-0.05
-0.40
-0.64
-0.83
-1.00
-1.15
-1.21
-1.11
-0.86
-0.57
-0.42
-0.52
-0.91
-1.45
-1.96
-2.25
-2.25
-2.00
-1.63
-1.30
-1.13
-1.15
-1.32
-1.58
-1.85
-2.11
-2.38
-2.66
-2.93
-3.14
-3.18
-3.00
-2.62
-2.11
-1.57
-1.07
-0.64
-0.30
-0.05
0.03
-0.09
-0.42
-0.86
-1.29
-1.57
-1.71
-1.79
-1.96
-2.35
-2.96
-3.62
-4.13
-4.27
-3.94
-3.17
-2.10
-0.87
0.37
1.55
2.58
3.38
3.85
3.89
3.49
2.68
1.60
0.41
-0.75
-1.75
-2.54
-3.06
-3.33
-3.33
-3.13
-2.77
-2.36
-1.96
-1.62
-1.36
-1.18
-1.08
-1.06
-1.11
-1.22
-1.36
-1.48
-1.51
-1.35
-0.97
-0.33
0.55
1.60
2.70
3.68
4.34
4.53
4.18
3.36
2.23
1.05
-0.00
-0.81
-1.36
-1.70
-1.86
-1.86
-1.71
-1.46
-1.23
-1.17
-1.40
-1.95
-2.75
-3.59
-4.24
-4.57
-4.52
-4.21
-3.84
-3.55
-3.38
-3.26
-3.04
-2.63
-2.06
-1.49
-1.08
-0.91
-0.92
-0.95
-0.83
-0.51
-0.07
0.34
0.59
0.66
0.64
0.66
0.80
1.06
1.31
1.37
1.15
0.67
0.07
-0.45
-0.72
-0.73
-0.59
-0.49
-0.55
-0.82
-1.22
-1.61
-1.86
-1.91
-1.73
-1.36
-0.82
-0.12
0.73
1.70
2.71
3.63
4.33
4.68
4.62
4.20
3.54
2.79
2.11
1.54
1.10
0.75
0.48
0.38
0.55
1.09
2.03
3.24
4.50
5.56
6.24
6.51
6.45
6.24
6.00
5.83
5.71
5.63
5.58
5.54
5.52
5.46
5.32
5.09
4.77
4.44
4.14
3.91
3.73
3.53
3.22
2.78
2.25
1.72
1.30
1.04
1.05
1.36
1.92
2.59
3.19
3.57
3.64
3.42
3.05
2.81
2.97
3.54
4.30
4.90
5.10
4.89
4.47
4.12
4.43
5.79
8.11
10.81
13.10
14.42
14.65
14.12
13.39
13.48
15.11
18.21
21.95
25.23
27.35
28.24
28.36
28.39
29.59
32.84
38.28
45.25
52.76
60.09
66.83
72.60
72.50
63.04
43.98
19.22
-5.66
-26.45
-41.42
-50.75
-55.65
-57.62
-57.26
-54.83
-50.65
-45.41
-40.12
-35.77
-33.03
-32.06
-32.18
-31.49
-28.11
-21.37
-12.48
-4.20
0.34
-0.54
-6.59
-15.45
-23.12
-25.91
-22.27
-13.60
-3.87
2.26
1.86
-4.80
-14.39
-22.09
-24.40
-21.02
-14.56
-8.73
-5.88
-5.82
-5.85
-3.69
1.54
8.63
15.34
19.91
21.69
20.77
17.08
10.54
1.77
-7.30
-13.84
-15.05
-9.20
3.05
18.62
32.56
40.35
39.64
30.78
16.08
-1.78
-18.96
-32.34
-40.75
-45.60
-49.24
-53.32
-57.87
-61.50
-62.05
-57.50
-47.30
-29.69
-7.49
12.98
26.08
30.51
28.89
25.05
21.83
20.02
18.80
16.53
12.80
8.85
6.46
7.24
11.35
17.69
24.48
29.91
32.43
31.78
28.88
25.11
21.47
18.34
15.77
14.10
13.71
14.48
16.05
17.84
19.16
19.36
18.12
15.12
9.74
0.88
-12.04
-27.36
-41.05
-48.50
-47.25
-38.58
-27.47
-19.73
-19.28
-25.90
-35.47
-42.85
-45.04
-42.17
-35.62
-26.18
-13.29
2.94
19.91
32.63
35.55
25.85
5.55
-18.59
-39.12
-48.59
-45.24
-35.36
-28.48
-29.35
-35.01
-41.32
-43.28
-40.01
-33.69
-27.60
-23.63
-19.19
-12.22
-2.74
6.10
10.20
7.27
-0.49
-7.21
-6.53
4.72
23.66
42.81
53.94
53.01
41.58
25.11
8.59
-6.24
-20.45
-35.17
-48.19
-54.01
-46.62
-24.24
8.30
40.68
61.79
65.06
51.16
27.64
4.68
-9.40
-11.17
-2.22
12.74
28.43
40.90
48.09
50.28
48.96
45.98
42.83
40.73
40.91
44.63
52.74
61.66
66.77
64.40
54.04
37.82
18.66
-0.58
-17.45
-30.27
-38.40
-41.73
-40.83
-36.84
-31.49
-26.31
-22.43
-20.40
-20.21
-21.42
-22.98
-23.85
-23.39
-21.69
-19.37
-17.18
-15.66
-15.07
-15.34
-15.89
-16.00
-15.13
-13.21
-10.58
-7.87
-5.66
-4.39
-4.20
-4.82
-5.76
-6.53
-6.86
-6.75
-6.35
-5.91
-5.60
-5.53
-5.62
-5.74
-5.74
-5.56
-5.24
-4.84
-4.44
-4.06
-3.65
-3.19
-2.61
-1.91
-1.11
-0.27
0.56
1.35
2.06
2.66
3.12
3.41
3.53
3.52
3.46
3.40
3.36
3.31
3.22
3.08
2.91
2.80
2.79
2.86
2.95
2.99
2.92
2.75
2.51
2.20
1.82
1.35
0.81
0.25
-0.20
-0.44
-0.44
-0.22
0.06
0.28
0.35
0.26
0.10
-0.06
-0.15
-0.21
-0.23
-0.24
-0.18
0.02
0.42
1.06
1.87
2.74
3.56
4.24
4.75
5.10
5.34
5.47
5.52
5.49
5.36
5.13
4.83
4.50
4.19
3.93
3.75
3.63
3.57
3.58
3.70
3.90
4.14
4.27
4.18
3.78
3.13
2.36
1.66
1.17
0.92
0.83
0.75
0.55
0.17
-0.34
-0.90
-1.41
-1.83
-2.20
-2.59
-3.03
-3.47
-3.78
-3.80
-3.42
-2.66
-1.64
-0.56
0.41
1.17
1.73
2.12
2.35
2.42
2.30
2.01
1.67
1.43
1.43
1.74
2.30
2.93
3.42
3.61
3.47
3.14
2.79
2.58
2.53
2.58
2.58
2.45
2.13
1.71
1.26
0.85
0.51
0.19
-0.14
-0.47
-0.76
-0.91
-0.92
-0.86
-0.87
-1.04
-1.36
-1.70
-1.89
-1.80
-1.40
-0.82
-0.23
0.19
0.48
0.71
1.01
1.38
1.75
1.98
1.92
1.50
0.70
-0.14
-0.65
-0.63
-0.15
0.55
1.16
1.47
1.38
0.92
0.63
1.02
2.22
3.95
5.70
7.07
7.90
8.22
8.19
8.74
10.71
14.38
19.30
24.61
29.54
33.66
36.91
39.49
42.73
47.81
55.23
64.48
74.57
84.61
94.05
102.62
104.18
94.76
74.45
48.08
21.83
-0.22
-16.86
-28.68
-36.92
-42.71
-45.89
-46.15
-43.64
-39.34
-34.55
-30.53
-27.88
-26.78
-27.04
-27.62
-27.54
-26.28
-23.97
-21.07
-18.03
-15.20
-12.90
-11.53
-10.64
-9.93
-9.23
-8.58
-8.11
-7.93
-8.11
-8.75
-9.90
-11.28
-12.56
-13.47
-13.96
-14.15
-14.28
-14.57
-15.16
-16.14
-17.45
-19.07
-21.02
-23.32
-25.90
-28.46
-30.52
-31.49
-30.94
-28.74
-25.22
-20.96
-16.69
-13.00
-10.23
-8.38
-7.22
-6.43
-5.71
-4.87
-3.85
-2.71
-1.55
-0.46
0.53
1.47
2.45
3.58
4.86
6.26
7.66
8.94
10.00
10.77
11.23
11.39
11.29
11.03
10.74
10.51
10.31
9.99
9.27
7.96
6.05
3.82
1.69
0.10
-0.75
-0.97
-0.89
-0.86
-1.14
-1.78
-2.70
-3.83
-5.13
-6.57
-8.13
-9.68
-11.06
-12.14
-12.88
-13.34
-13.62
-13.80
-13.86
-13.69
-13.18
-12.22
-10.81
-9.02
-7.01
-4.93
-2.95
-1.19
0.31
1.53
2.45
3.02
3.19
2.94
2.32
1.49
0.65
0.01
-0.33
-0.38
-0.23
0.01
0.22
0.37
0.45
0.49
0.53
0.59
0.66
0.68
0.59
0.35
-0.01
-0.42
-0.79
-1.07
-1.27
-1.44
-1.62
-1.79
-1.89
-1.82
-1.57
-1.19
-0.81
-0.56
-0.52
-0.68
-0.92
-1.14
-1.26
-1.28
-1.28
-1.44
-1.93
-2.85
-4.14
-5.61
-7.01
-8.08
-8.69
-8.84
-8.63
-8.19
-7.63
-7.00
-6.31
-5.59
-4.84
-4.08
-3.30
-2.51
-1.68
-0.86
-0.06
0.63
1.20
1.62
1.93
2.18
2.46
2.85
3.43
4.23
5.22
6.32
7.43
8.44
9.34
10.14
10.82
11.29
11.32
10.62
8.94
6.25
2.79
-1.02
-4.66
-7.68
-9.75
-10.74
-10.65
-9.59
-7.71
-5.19
-2.19
1.08
4.39
7.46
10.00
11.80
12.74
12.87
12.37
11.51
10.54
9.62
8.80
8.07
7.34
6.59
5.80
5.00
4.25
3.58
3.04
2.65
2.41
2.34
2.41
2.61
2.91
3.28
3.71
4.19
4.73
5.31
5.93
6.58
7.25
8.00
8.83
9.78
10.84
12.00
13.22
14.41
15.40
15.89
15.49
13.84
10.71
6.18
0.70
-5.05
-10.28
-14.33
-16.82
-17.73
-17.29
-15.84
-13.74
-11.29
-8.72
-6.25
-4.15
-2.68
-2.10
-2.52
-3.90
-6.01
-8.45
-10.81
-12.71
-13.83
-13.95
-12.96
-10.86
-7.80
-4.11
-0.26
3.26
6.11
8.15
9.43
10.09
10.25
9.84
8.75
6.89
4.40
1.63
-0.96
-2.97
-4.26
-4.96
-5.38
-5.85
-6.57
-7.54
-8.57
-9.47
-10.11
-10.44
-10.54
-10.51
-10.42
-10.32
-10.22
-10.09
-9.92
-9.66
-9.24
-8.63
-7.83
-6.88
-5.91
-5.02
-4.27
-3.60
-2.88
-1.98
-0.85
0.43
1.72
2.88
3.80
4.52
5.11
5.66
6.18
6.62
6.89
6.92
6.72
6.43
6.21
6.22
6.50
7.03
7.68
8.35
8.97
9.53
10.07
10.60
11.10
11.56
11.96
12.34
12.78
13.39
14.18
15.13
16.11
17.00
17.68
18.11
18.36
18.51
18.70
19.02
19.52
20.20
21.01
21.85
22.57
23.00
22.98
22.45
21.46
20.13
18.65
17.14
15.67
14.25
12.79
11.11
8.90
5.77
1.39
-4.33
-11.08
-18.16
-24.71
-29.95
-33.46
-35.28
-35.81
-35.55
-34.91
-34.10
-33.13
-31.97
-30.64
-29.26
-28.04
-27.13
-26.47
-25.87
-24.96
-23.48
-21.32
-18.66
-15.80
-13.04
-10.55
-8.26
-5.99
-3.60
-1.06
1.54
4.04
6.35
8.46
10.48
12.59
14.84
17.17
19.30
20.88
21.54
21.06
19.42
16.79
13.47
9.82
6.22
3.10
0.83
-0.37
-0.54
-0.07
0.38
0.14
-1.19
-3.60
-6.70
-9.95
-12.89
-15.30
-17.16
-18.53
-19.41
-19.75
-19.51
-18.75
-17.68
-16.54
-15.51
-14.58
-13.61
-12.36
-10.68
-8.51
-5.96
-3.30
-0.83
1.13
2.31
2.61
2.11
1.05
-0.21
-1.34
-2.15
-2.65
-2.95
-3.28
-3.78
-4.51
-5.43
-6.45
-7.53
-8.67
-9.85
-11.02
-12.02
-12.66
-12.78
-12.39
-11.68
-11.02
-10.71
-10.91
-11.49
-12.14
-12.45
-12.14
-11.10
-9.44
-7.39
-5.17
-3.01
-1.09
0.43
1.46
1.96
2.02
1.80
1.50
1.21
0.95
0.62
0.16
-0.43
-1.05
-1.60
-1.98
-2.21
-2.40
-2.68
-3.15
-3.78
-4.46
-4.95
-5.02
-4.40
-2.93
-0.59
2.41
5.61
8.36
9.98
10.05
8.59
6.12
3.54
1.82
1.65
3.23
6.26
10.05
13.80
16.84
18.72
19.27
18.58
16.99
15.06
13.42
12.61
12.91
14.18
15.97
17.70
18.86
19.21
18.70
17.46
15.62
13.25
10.43
7.31
4.11
1.10
-1.47
-3.55
-5.19
-6.52
-7.65
-8.60
-9.35
-9.93
-10.48
-11.23
-12.39
-14.02
-15.93
-17.68
-18.71
-18.57
-17.02
-14.10
-10.12
-5.54
-0.85
3.48
7.07
9.64
11.05
11.32
10.62
9.26
7.61
6.01
4.67
3.69
3.04
2.64
2.41
2.27
2.19
2.08
1.86
1.40
0.59
-0.69
-2.51
-4.89
-7.86
-11.37
-15.27
-19.25
-22.84
-25.50
-26.85
-26.82
-25.83
-24.60
-23.95
-24.44
-26.10
-28.39
-30.37
-30.98
-29.37
-25.10
-18.20
-9.16
1.21
11.94
22.08
30.88
37.94
43.20
46.88
49.31
50.85
51.74
52.14
52.12
51.74
51.02
50.03
48.85
47.59
46.36
45.12
43.58
41.24
37.52
32.06
25.00
17.03
9.16
2.40
-2.63
-5.89
-7.74
-8.73
-9.29
-9.63
-9.77
-9.72
-9.55
-9.38
-9.33
-9.38
-9.39
-9.16
-8.53
-7.50
-6.23
-5.02
-4.18
-3.90
-4.18
-4.78
-5.37
-5.62
-5.34
-4.58
-3.56
-2.60
-1.97
-1.83
-2.17
-2.88
-3.77
-4.70
-5.55
-6.32
-7.08
-7.98
-9.13
-10.58
-12.25
-13.94
-15.37
-16.33
-16.70
-16.57
-16.22
-16.04
-16.39
-17.48
-19.28
-21.47
-23.57
-25.03
-25.51
-24.97
-23.71
-22.31
-21.36
-21.21
-21.73
-22.23
-21.58
-18.65
-12.73
-3.97
6.57
17.22
26.22
32.33
35.20
35.33
33.83
31.88
30.41
29.89
30.41
31.82
33.93
36.61
39.83
43.70
48.33
53.72
59.40
64.27
66.63
64.60
56.82
42.99
24.27
2.89
-18.51
-37.66
-53.19
-64.70
-72.47
-77.04
-78.96
-78.76
-77.04
-74.50
-71.77
-69.28
-66.99
-64.45
-60.97
-56.01
-49.43
-41.55
-33.08
-24.70
-16.80
-9.25
-1.53
6.95
16.49
26.87
37.38
47.06
55.05
60.81
64.30
65.95
66.58
67.13
68.31
70.22
72.02
72.04
68.17
58.72
43.21
22.81
0.07
-21.80
-40.01
-52.95
-60.31
-62.86
-61.79
-58.30
-53.40
-48.00
-43.02
-39.29
-37.36
-37.22
-38.23
-39.27
-39.22
-37.32
-33.52
-28.40
-22.91
-18.00
-14.34
-12.13
-11.04
-10.34
-9.02
-6.03
-0.56
7.67
18.20
29.98
41.58
51.65
59.32
64.37
67.11
68.20
68.40
68.42
68.75
69.55
70.46
70.53
68.44
62.91
53.24
39.69
23.59
6.95
-8.04
-19.63
-26.85
-29.62
-28.57
-24.75
-19.35
-13.41
-7.71
-2.67
1.59
5.09
7.89
9.89
10.88
10.61
8.98
6.19
2.80
-0.39
-2.59
-3.33
-2.55
-0.66
1.71
3.97
5.74
6.92
7.53
7.61
7.12
6.01
4.32
2.32
0.47
-0.62
-0.43
1.23
4.09
7.40
10.07
10.91
9.01
4.00
-3.84
-13.58
-23.86
-33.16
-40.12
-43.89
-44.34
-42.11
-38.42
-34.68
-32.00
-30.93
-31.39
-32.87
-34.69
-36.16
-36.63
-35.49
-32.17
-26.32
-18.07
-8.12
2.30
11.78
19.15
23.79
25.80
25.76
24.52
22.89
21.39
20.24
19.38
18.62
17.79
16.82
15.77
14.80
14.12
13.86
13.87
13.64
12.30
8.76
2.11
-8.00
-21.08
-35.80
-50.29
-62.68
-71.61
-76.52
-77.64
-75.84
-72.25
-67.99
-63.82
-59.99
-56.16
-51.55
-45.31
-36.88
-26.28
-14.05
-1.00
12.07
24.65
36.44
47.23
56.63
64.07
68.97
70.94
70.01
66.65
61.63
55.81
50.01
44.85
40.80
37.97
36.04
34.16
31.05
25.37
16.23
3.76
-10.69
-24.76
-35.84
-42.09
-43.11
-40.07
-35.08
-30.25
-26.78
-24.65
-22.93
-20.54
-16.86
-12.06
-6.82
-1.85
2.53
6.48
10.36
14.41
18.45
22.01
24.49
25.52
25.07
23.56
21.68
20.23
19.90
21.06
23.58
26.83
29.86
31.78
32.07
30.80
28.51
25.83
23.11
20.34
17.20
13.53
9.57
6.05
3.89
3.70
5.37
8.04
10.36
11.11
9.68
6.32
1.94
-2.33
-5.61
-7.47
-7.97
-7.52
-6.89
-7.26
-10.07
-16.51
-26.75
-39.35
-51.31
-59.09
-60.06
-53.78
-42.14
-28.47
-15.92
-6.26
0.46
5.23
9.01
11.98
13.63
13.24
10.62
6.28
1.19
-3.72
-7.93
-11.31
-13.91
-15.67
-16.36
-15.68
-13.52
-10.07
-5.88
-1.65
1.99
4.58
5.92
6.07
5.28
3.93
2.43
1.15
0.25
-0.31
-0.82
-1.59
-2.82
-4.44
-6.14
-7.51
-8.26
-8.38
-8.14
-7.95
-8.21
-9.12
-10.61
-12.40
-14.16
-15.61
-16.64
-17.27
-17.64
-17.83
-17.89
-17.78
-17.44
-16.80
-15.81
-14.38
-12.44
-9.90
-6.75
-3.15
0.61
4.14
7.09
9.29
10.80
11.89
12.85
13.90
14.98
15.80
15.97
15.22
13.52
11.16
8.53
6.02
3.86
2.05
0.50
-0.88
-2.11
-3.14
-3.91
-4.44
-4.80
-5.07
-5.28
-5.42
-5.43
-5.23
-4.78
-4.04
-3.01
-1.76
-0.40
0.87
1.84
2.34
2.28
1.71
0.83
-0.07
-0.70
-0.81
-0.28
0.85
2.46
4.31
6.16
7.79
9.06
9.89
10.25
10.19
9.76
9.06
8.20
7.30
6.48
5.81
5.32
4.94
4.59
4.14
3.49
2.61
1.53
0.37
-0.71
-1.55
-2.03
-2.08
-1.77
-1.24
-0.67
-0.23
0.02
0.12
0.19
0.36
0.68
1.10
1.49
1.71
1.73
1.61
1.49
1.47
1.62
1.89
2.20
2.50
2.70
2.76
2.64
2.30
1.78
1.20
0.70
0.45
0.51
0.82
1.20
1.44
1.35
0.87
0.05
-0.97
-2.06
-3.14
-4.16
-5.06
-5.75
-6.12
-6.07
-5.56
-4.67
-3.51
-2.26
-1.06
0.01
0.87
1.47
1.72
1.58
1.07
0.27
-0.65
-1.51
-2.13
-2.41
-2.28
-1.76
-0.96
-0.07
0.69
1.07
0.93
0.27
-0.79
-2.04
-3.23
-4.19
-4.82
-5.12
-5.13
-4.92
-4.57
-4.22
-4.05
-4.25
-4.95
-6.14
-7.60
-8.96
-9.82
-9.88
-9.04
-7.38
-5.16
-2.67
-0.25
1.85
3.46
4.52
5.06
5.18
5.00
4.63
4.15
3.64
3.21
3.01
3.15
3.64
4.35
5.07
5.54
5.64
5.37
4.88
4.34
3.88
3.49
3.06
2.46
1.63
0.63
-0.38
-1.19
-1.63
-1.68
-1.43
-1.11
-0.91
-0.94
-1.18
-1.51
-1.80
-1.97
-1.99
-1.90
-1.70
-1.36
-0.85
-0.12
0.77
1.68
2.43
2.91
3.10
3.09
3.03
3.06
3.25
3.61
4.15
4.83
5.57
6.25
6.63
6.49
5.68
4.20
2.25
0.13
-1.84
-3.47
-4.70
-5.60
-6.27
-6.81
-7.27
-7.67
-8.05
-8.41
-8.77
-9.03
-9.09
-8.79
-8.03
-6.80
-5.21
-3.47
-1.79
-0.35
0.79
1.68
2.40
3.02
3.56
3.96
4.15
4.11
3.85
3.46
3.05
2.74
2.63
2.79
3.20
3.77
4.36
4.81
4.99
4.86
4.50
4.07
3.74
3.62
3.68
3.79
3.77
3.47
2.83
1.91
0.84
-0.23
-1.19
-1.95
-2.47
-2.72
-2.69
-2.35
-1.72
-0.88
0.06
0.96
1.69
2.15
2.34
2.32
2.19
2.04
1.95
1.94
2.05
2.29
2.65
3.13
3.62
4.01
4.18
4.06
3.73
3.30
2.95
2.79
2.83
3.00
3.17
3.22
3.06
2.67
2.08
1.37
0.65
0.01
-0.45
-0.65
-0.55
-0.12
0.58
1.48
2.45
3.36
4.07
4.49
4.59
4.43
4.12
3.79
3.55
3.46
3.50
3.59
3.67
3.71
3.74
3.79
3.87
3.95
3.91
3.70
3.28
2.75
2.22
1.81
1.54
1.35
1.16
0.89
0.57
0.23
-0.11
-0.45
-0.87
-1.37
-1.88
-2.19
-2.10
-1.50
-0.45
0.78
1.88
2.61
2.87
2.78
2.53
2.31
2.21
2.21
2.22
2.18
2.07
1.94
1.88
1.96
2.16
2.42
2.62
2.67
2.57
2.39
2.24
2.15
2.10
1.99
1.75
1.37
0.92
0.54
0.30
0.17
0.04
-0.24
-0.69
-1.24
-1.71
-1.89
-1.68
-1.13
-0.39
0.30
0.77
0.94
0.87
0.67
0.47
0.35
0.32
0.40
0.58
0.84
1.15
1.43
1.57
1.51
1.26
0.89
0.53
0.26
0.12
0.06
0.03
-0.03
-0.12
-0.22
-0.34
-0.47
-0.67
-0.94
-1.28
-1.67
-2.04
-2.32
-2.45
-2.39
-2.13
-1.70
-1.20
-0.70
-0.26
0.08
0.37
0.61
0.82
0.96
0.99
0.92
0.75
0.54
0.34
0.18
0.08
0.04
0.06
0.10
0.12
0.07
-0.05
-0.23
-0.42
-0.55
-0.63
-0.68
-0.77
-0.92
-1.16
-1.43
-1.69
-1.93
-2.17
-2.44
-2.73
-2.99
-3.12
-3.05
-2.74
-2.25
-1.68
-1.14
-0.69
-0.36
-0.11
0.12
0.34
0.53
0.65
0.65
0.52
0.32
0.13
0.05
0.14
0.39
0.72
0.99
1.09
0.95
0.60
0.12
-0.38
-0.77
-0.99
-1.02
-0.88
-0.68
-0.50
-0.44
-0.51
-0.70
-0.96
-1.23
-1.49
-1.71
-1.87
-1.95
-1.89
-1.70
-1.42
-1.17
-1.05
-1.09
-1.23
-1.35
-1.30
-1.02
-0.52
0.05
0.55
0.90
1.06
1.04
0.87
0.58
0.21
-0.16
-0.46
-0.59
-0.51
-0.27
0.01
0.19
0.14
-0.16
-0.64
-1.14
-1.53
-1.71
-1.70
-1.58
-1.45
-1.36
-1.31
-1.24
-1.09
-0.88
-0.68
-0.55
-0.53
-0.58
-0.59
-0.47
-0.20
0.11
0.31
0.26
-0.07
-0.58
-1.09
-1.44
-1.56
-1.46
-1.25
-1.03
-0.85
-0.72
-0.64
-0.61
-0.64
-0.76
-0.96
-1.21
-1.46
-1.70
-1.93
-2.16
-2.37
-2.58
-2.77
-2.93
-3.06
-3.16
-3.21
-3.19
-3.15
-3.10
-3.06
-3.00
-2.82
-2.43
-1.79
-0.97
-0.12
0.58
1.03
1.27
1.39
1.54
1.72
1.90
1.99
1.96
1.84
1.71
1.66
1.69
1.74
1.76
1.72
1.65
1.61
1.64
1.72
1.79
1.77
1.61
1.33
1.01
0.71
0.48
0.33
0.21
0.06
-0.14
-0.39
-0.61
-0.77
-0.82
-0.83
-0.86
-0.98
-1.18
-1.34
-1.34
-1.07
-0.52
0.22
0.96
1.54
1.84
1.87
1.68
1.39
1.08
0.80
0.58
0.43
0.36
0.37
0.44
0.53
0.62
0.73
0.93
1.33
2.02
3.04
4.32
5.68
6.90
7.79
8.22
8.14
7.54
6.39
4.71
2.48
-0.23
-3.27
-6.48
-9.66
-12.65
-15.35
-17.66
-19.48
-20.74
-21.44
-21.72
-21.80
-21.88
-22.03
-22.14
-22.02
-21.49
-20.55
-19.32
-17.96
-16.58
-15.19
-13.73
-12.21
-10.65
-9.13
-7.72
-6.42
-5.23
-4.22
-3.55
-3.40
-3.81
-4.57
-5.28
-5.51
-5.00
-3.67
-1.71
0.55
2.83
4.91
6.73
8.30
9.72
11.11
12.79
15.05
17.92
21.20
24.59
27.90
31.05
34.10
37.12
40.45
44.31
48.52
52.58
55.91
58.06
58.69
57.70
55.10
51.74
48.57
46.20
44.72
43.85
43.19
42.27
40.79
38.47
35.92
33.85
32.62
32.12
32.34
33.44
35.42
37.72
33.81
19.14
-6.01
-36.26
-64.87
-86.83
-99.64
-104.43
-102.94
-96.97
-87.58
-75.84
-63.08
-50.94
-40.49
-32.75
-27.85
-24.97
-23.09
-20.86
-17.51
-13.18
-8.67
-4.85
-2.27
-0.94
-0.51
-0.76
-1.27
-1.71
-1.89
-1.82
-1.46
-0.81
0.14
1.23
2.09
2.50
2.40
1.89
1.10
0.14
-0.98
-2.27
-3.70
-5.17
-6.43
-7.13
-7.03
-6.17
-4.80
-3.36
-2.24
-1.65
-1.59
-1.86
-2.17
-2.27
-2.09
-1.64
-1.12
-0.68
-0.45
-0.47
-0.67
-0.95
-1.13
-1.07
-0.68
0.03
0.94
1.79
2.32
2.38
2.01
1.45
1.04
1.07
1.63
2.58
3.59
4.33
4.58
4.29
3.63
2.89
2.32
2.15
2.45
3.17
4.15
5.22
6.18
6.89
7.28
7.30
6.95
6.29
5.44
4.56
3.85
3.46
3.46
3.81
4.33
4.83
5.09
4.99
4.48
3.69
2.80
2.04
1.62
1.62
2.02
2.73
3.63
4.59
5.50
6.25
6.72
6.81
6.50
5.84
4.98
4.10
3.33
2.71
2.26
1.93
1.73
1.67
1.78
2.02
2.35
2.71
3.05
3.35
3.62
3.89
4.16
4.38
4.48
4.37
3.94
3.18
2.09
0.78
-0.60
-1.82
-2.72
-3.15
-3.11
-2.70
-2.11
-1.54
-1.13
-0.92
-0.86
-0.86
-0.87
-0.87
-0.93
-1.11
-1.41
-1.84
-2.31
-2.78
-3.19
-3.51
-3.71
-3.79
-3.74
-3.63
-3.56
-3.58
-3.67
-3.72
-3.60
-3.22
-2.62
-1.95
-1.39
-1.04
-0.87
-0.77
-0.61
-0.33
0.04
0.42
0.72
0.91
1.00
0.98
0.88
0.69
0.42
0.11
-0.21
-0.53
-0.85
-1.17
-1.49
-1.80
-2.09
-2.35
-2.60
-2.88
-3.19
-3.52
-3.82
-4.00
-4.02
-3.88
-3.62
-3.29
-2.93
-2.57
-2.20
-1.82
-1.46
-1.13
-0.86
-0.65
-0.48
-0.33
-0.17
-0.02
0.10
0.16
0.17
0.15
0.12
0.08
0.02
-0.05
-0.08
-0.05
0.02
0.08
0.03
-0.21
-0.61
-1.11
-1.58
-1.95
-2.22
-2.43
-2.60
-2.75
-2.85
-2.87
-2.85
-2.87
-3.00
-3.25
-3.57
-3.87
-4.08
-4.21
-4.28
-4.33
-4.36
-4.31
-4.08
-3.62
-2.94
-2.09
-1.22
-0.47
0.07
0.37
0.47
0.46
0.43
0.40
0.36
0.29
0.20
0.15
0.20
0.39
0.68
0.93
1.03
0.90
0.58
0.20
-0.09
-0.19
-0.11
0.07
0.27
0.39
0.41
0.33
0.18
-0.00
-0.21
-0.42
-0.65
-0.93
-1.23
-1.54
-1.76
-1.83
-1.72
-1.46
-1.13
-0.81
-0.50
-0.18
0.20
0.63
1.07
1.40
1.56
1.54
1.39
1.22
1.09
1.03
1.02
1.01
0.94
0.80
0.61
0.41
0.31
0.41
0.79
1.45
2.28
3.05
3.55
3.64
3.30
2.66
1.93
1.26
0.74
0.38
0.15
0.04
0.08
0.26
0.54
0.79
0.87
0.66
0.15
-0.57
-1.37
-2.11
-2.70
-3.10
-3.27
-3.22
-3.01
-2.73
-2.48
-2.33
-2.26
-2.20
-2.08
-1.89
-1.71
-1.61
-1.61
-1.64
-1.57
-1.35
-1.03
-0.78
-0.79
-1.12
-1.67
-2.18
-2.35
-2.06
-1.39
-0.60
-0.01
0.20
0.00
-0.44
-0.93
-1.31
-1.53
-1.64
-1.73
-1.83
-1.92
-1.89
-1.66
-1.20
-0.60
0.03
0.54
0.85
0.95
0.86
0.65
0.40
0.18
0.02
-0.02
0.05
0.20
0.36
0.46
0.45
0.28
-0.01
-0.39
-0.76
-1.05
-1.22
-1.19
-0.98
-0.61
-0.15
0.30
0.65
0.85
0.92
0.93
0.96
1.10
1.35
1.66
1.93
2.05
2.01
1.85
1.68
1.62
1.68
1.81
1.92
1.96
1.94
1.95
2.11
2.47
2.97
3.49
3.88
4.02
3.90
3.58
3.16
2.76
2.44
2.23
2.13
2.10
2.10
2.11
2.09
2.04
1.96
1.84
1.68
1.48
1.25
1.05
0.96
1.02
1.23
1.54
1.84
2.03
2.07
1.97
1.73
1.38
0.90
0.30
-0.37
-1.03
-1.60
-2.03
-2.28
-2.35
-2.22
-1.88
-1.32
-0.62
0.07
0.61
0.93
1.09
1.21
1.42
1.75
2.10
2.33
2.30
1.95
1.32
0.51
-0.39
-1.28
-2.12
-2.87
-3.52
-4.10
-4.63
-5.12
-5.54
-5.81
-5.84
-5.62
-5.23
-4.85
-4.61
-4.60
-4.77
-4.96
-5.04
-4.92
-4.63
-4.29
-4.05
-3.99
-4.10
-4.30
-4.47
-4.52
-4.44
-4.26
-4.04
-3.83
-3.65
-3.49
-3.34
-3.19
-3.05
-2.96
-2.91
-2.88
-2.80
-2.68
-2.51
-2.37
-2.31
-2.29
-2.20
-1.78
-0.79
0.91
3.27
6.01
8.72
10.93
12.34
12.82
12.48
11.58
10.39
9.16
8.00
6.91
5.85
4.78
3.73
2.73
1.84
1.03
0.21
-0.70
-1.76
-2.91
-3.99
-4.83
-5.32
-5.45
-5.31
-5.03
-4.70
-4.35
-4.02
-3.68
-3.35
-3.01
-2.60
-2.10
-1.51
-0.90
-0.40
-0.12
-0.09
-0.19
-0.22
0.01
0.57
1.38
2.27
3.04
3.58
3.87
3.95
3.86
3.62
3.26
2.80
2.36
2.08
2.08
2.42
3.05
3.84
4.63
5.28
5.73
6.00
6.16
6.31
6.51
6.78
7.11
7.43
7.68
7.80
7.77
7.59
7.33
7.07
6.88
6.75
6.55
6.09
5.14
3.48
1.01
-2.28
-6.23
-10.56
-14.88
-18.70
-21.57
-23.18
-23.48
-22.66
-21.11
-19.22
-17.29
-15.41
-13.53
-11.59
-9.60
-7.65
-5.89
-4.42
-3.27
-2.36
-1.62
-1.01
-0.56
-0.30
-0.16
0.00
0.40
1.13
2.15
3.24
4.17
4.88
5.49
6.27
7.44
8.98
10.59
11.84
12.37
12.04
10.95
9.32
7.36
5.18
2.82
0.35
-2.05
-4.06
-5.28
-5.27
-3.69
-0.32
4.83
11.51
19.19
27.14
34.59
40.83
45.39
48.07
48.90
48.03
45.62
41.84
36.83
30.81
24.05
16.89
9.65
2.63
-3.96
-9.90
-15.02
-19.13
-22.11
-23.95
-24.78
-24.83
-24.40
-23.72
-22.93
-22.08
-21.14
-20.10
-18.97
-17.79
-16.63
-15.52
-14.51
-13.61
-12.82
-12.15
-11.61
-11.22
-10.99
-10.93
-11.00
-11.16
-11.36
-11.52
-11.57
-11.46
-11.19
-10.81
-10.43
-10.15
-10.04
-10.08
-10.19
-10.24
-10.16
-9.92
-9.60
-9.32
-9.15
-9.12
-9.15
-9.10
-8.85
-8.33
-7.58
-6.74
-5.97
-5.43
-5.16
-5.10
-5.16
-5.20
-5.22
-5.26
-5.45
-5.91
-6.71
-7.84
-9.25
-10.83
-12.47
-14.09
-15.64
-17.09
-18.47
-19.84
-21.25
-22.74
-24.31
-25.77
-26.79
-26.86
-25.45
-22.11
-16.63
-9.18
-0.29
9.24
18.57
26.94
33.78
38.73
41.62
42.44
41.36
38.71
35.04
30.96
27.02
23.62
20.86
18.65
16.79
15.10
13.49
11.97
10.61
9.45
8.51
7.74
7.09
6.45
5.73
4.91
4.01
3.11
2.36
1.84
1.54
1.33
1.04
0.56
-0.08
-0.67
-0.92
-0.57
0.43
1.92
3.57
5.00
5.90
6.18
5.90
5.24
4.39
3.50
2.68
1.99
1.48
1.18
1.11
1.25
1.56
1.94
2.29
2.50
2.52
2.36
2.12
1.96
2.03
2.46
3.24
4.29
5.51
6.81
8.20
9.71
11.45
13.48
15.78
18.22
20.61
22.77
24.56
25.95
27.01
27.77
28.25
28.38
28.05
27.20
25.78
23.76
21.09
17.63
13.27
8.01
2.07
-4.10
-9.93
-14.91
-18.72
-21.26
-22.63
-23.00
-22.59
-21.60
-20.28
-18.91
-17.74
-16.96
-16.57
-16.41
-16.17
-15.55
-14.40
-12.72
-10.73
-8.75
-7.14
-6.16
-5.94
-6.48
-7.60
-9.07
-10.60
-11.95
-12.92
-13.42
-13.43
-13.00
-12.18
-11.08
-9.81
-8.50
-7.24
-6.11
-5.06
-4.04
-2.97
-1.85
-0.82
-0.03
0.37
0.38
0.13
-0.15
-0.27
-0.14
0.18
0.55
0.82
0.96
1.03
1.16
1.47
1.96
2.55
3.05
3.30
3.21
2.78
2.10
1.32
0.59
-0.04
-0.56
-1.00
-1.41
-1.81
-2.16
-2.42
-2.51
-2.42
-2.18
-1.91
-1.75
-1.82
-2.16
-2.69
-3.27
-3.76
-4.08
-4.24
-4.32
-4.40
-4.50
-4.57
-4.53
-4.30
-3.86
-3.21
-2.40
-1.49
-0.51
0.46
1.33
1.99
2.38
2.53
2.54
2.56
2.68
2.88
3.06
3.05
2.79
2.27
1.63
1.01
0.52
0.17
-0.07
-0.29
-0.54
-0.83
-1.17
-1.54
-1.94
-2.33
-2.69
-2.96
-3.07
-3.01
-2.74
-2.30
-1.75
-1.16
-0.65
-0.31
-0.23
-0.40
-0.75
-1.14
-1.44
-1.55
-1.50
-1.39
-1.40
-1.61
-2.08
-2.73
-3.44
-4.06
-4.44
-4.51
-4.24
-3.71
-3.07
-2.50
-2.16
-2.05
-2.04
-1.92
-1.47
-0.65
0.40
1.41
2.13
2.46
2.46
2.32
2.22
2.26
2.40
2.59
2.75
2.87
2.96
3.02
3.06
3.04
2.95
2.77
2.53
2.23
1.90
1.56
1.23
0.93
0.73
0.63
0.59
0.55
0.41
0.11
-0.35
-0.87
-1.34
-1.66
-1.81
-1.88
-2.00
-2.31
-2.81
-3.46
-4.13
-4.68
-5.07
-5.31
-5.42
-5.45
-5.42
-5.34
-5.19
-5.00
-4.75
-4.45
-4.10
-3.72
-3.37
-3.17
-3.23
-3.60
-4.20
-4.85
-5.22
-5.05
-4.17
-2.61
-0.62
1.45
3.22
4.41
4.88
4.66
3.88
2.74
1.45
0.26
-0.63
-1.09
-1.09
-0.73
-0.18
0.35
0.71
0.85
0.84
0.82
0.96
1.35
1.95
2.66
3.28
3.67
3.73
3.41
2.74
1.77
0.55
-0.85
-2.32
-3.65
-4.68
-5.27
-5.41
-5.16
-4.64
-3.91
-2.96
-1.76
-0.31
1.28
2.82
4.16
5.17
5.85
6.30
6.62
6.91
7.19
7.45
7.63
7.67
7.54
7.23
6.80
6.31
5.85
5.43
5.03
4.61
4.18
3.79
3.49
3.34
3.28
3.16
2.87
2.34
1.64
0.91
0.31
-0.07
-0.27
-0.40
-0.57
-0.84
-1.22
-1.67
-2.09
-2.40
-2.53
-2.43
-2.10
-1.58
-0.98
-0.42
0.01
0.27
0.38
0.41
0.44
0.54
0.76
1.09
1.54
2.09
2.68
3.26
3.70
3.88
3.77
3.42
3.03
2.81
2.94
3.46
4.24
5.02
5.60
5.85
5.77
5.47
5.06
4.63
4.19
3.72
3.20
2.64
2.08
1.59
1.24
1.05
1.02
1.05
1.01
0.80
0.38
-0.19
-0.78
-1.27
-1.65
-1.99
-2.41
-2.99
-3.67
-4.30
-4.69
-4.70
-4.38
-3.90
-3.46
-3.20
-3.12
-3.08
-2.88
-2.40
-1.63
-0.67
0.32
1.21
1.95
2.53
2.97
3.26
3.40
3.37
3.22
2.99
2.74
2.48
2.17
1.78
1.32
0.84
0.42
0.12
-0.04
-0.08
-0.04
0.06
0.21
0.39
0.57
0.68
0.68
0.56
0.38
0.21
0.13
0.13
0.17
0.14
-0.04
-0.41
-0.94
-1.54
-2.10
-2.60
-3.06
-3.57
-4.21
-4.99
-5.86
-6.71
-7.41
-7.86
-8.02
-7.89
-7.54
-7.04
-6.48
-5.91
-5.37
-4.85
-4.32
-3.73
-3.06
-2.33
-1.57
-0.80
-0.06
0.66
1.33
1.91
2.34
2.58
2.67
2.67
2.68
2.78
2.95
3.17
3.37
3.52
3.65
3.81
4.00
4.22
4.38
4.40
4.21
3.83
3.34
2.81
2.30
1.82
1.33
0.85
0.42
0.12
-0.02
-0.01
0.03
-0.01
-0.20
-0.53
-0.94
-1.32
-1.61
-1.80
-1.89
-1.91
-1.80
-1.52
-1.02
-0.30
0.54
1.39
2.13
2.67
3.01
3.17
3.20
3.13
2.96
2.67
2.29
1.87
1.48
1.17
0.96
0.88
0.92
1.09
1.36
1.69
1.97
2.10
2.01
1.70
1.23
0.68
0.15
-0.32
-0.69
-0.91
-0.94
-0.79
-0.48
-0.13
0.15
0.28
0.21
-0.05
-0.46
-0.95
-1.43
-1.80
-1.97
-1.91
-1.67
-1.38
-1.18
-1.13
-1.24
-1.43
-1.59
-1.64
-1.58
-1.41
-1.18
-0.91
-0.61
-0.29
0.03
0.29
0.43
0.40
0.22
-0.02
-0.20
-0.19
0.05
0.45
0.90
1.22
1.32
1.16
0.80
0.36
-0.01
-0.21
-0.19
0.06
0.46
0.94
1.41
1.82
2.13
2.28
2.24
1.94
1.42
0.80
0.26
-0.04
-0.05
0.14
0.35
0.41
0.23
-0.12
-0.57
-0.99
-1.35
-1.66
-1.95
-2.27
-2.61
-2.93
-3.18
-3.28
-3.20
-2.94
-2.58
-2.21
-1.87
-1.52
-1.07
-0.44
0.38
1.25
1.98
2.42
2.53
2.42
2.24
2.09
2.02
1.97
1.89
1.76
1.62
1.54
1.55
1.59
1.55
1.33
0.92
0.40
-0.03
-0.20
-0.03
0.40
0.88
1.19
1.17
0.80
0.22
-0.37
-0.81
-1.04
-1.10
-1.11
-1.20
-1.42
-1.78
-2.24
-2.76
-3.25
-3.68
-3.98
-4.11
-4.07
-3.86
-3.54
-3.14
-2.73
-2.29
-1.81
-1.22
-0.52
0.26
1.04
1.70
2.13
2.23
2.01
1.54
1.00
0.55
0.31
0.33
0.50
0.68
0.75
0.70
0.66
0.83
1.42
2.48
3.91
5.47
6.86
7.87
8.41
8.49
8.22
7.72
7.08
6.33
5.51
4.65
3.79
3.05
2.46
2.06
1.78
1.52
1.17
0.65
-0.06
-0.90
-1.80
-2.70
-3.60
-4.51
-5.41
-6.26
-6.95
-7.37
-7.45
-7.19
-6.66
-6.00
-5.33
-4.75
-4.34
-4.12
-4.07
-4.16
-4.32
-4.51
-4.67
-4.78
-4.81
-4.72
-4.46
-4.06
-3.58
-3.18
-3.06
-3.33
-3.99
-4.90
-5.80
-6.47
-6.79
-6.79
-6.59
-6.34
-6.12
-5.96
-5.85
-5.75
-5.62
-5.43
-5.15
-4.73
-4.14
-3.33
-2.24
-0.83
0.86
2.76
4.72
6.62
8.39
10.06
11.66
13.16
14.44
15.28
15.48
14.97
13.85
12.36
10.78
9.31
8.00
6.79
5.58
4.31
3.02
1.83
0.90
0.36
0.19
0.25
0.35
0.32
0.12
-0.15
-0.30
-0.25
-0.07
0.06
-0.08
-0.57
-1.28
-1.94
-2.25
-2.10
-1.60
-1.01
-0.61
-0.57
-0.87
-1.38
-1.93
-2.39
-2.71
-2.87
-2.85
-2.66
-2.34
-2.00
-1.76
-1.67
-1.76
-1.92
-2.06
-2.10
-2.05
-1.94
-1.82
-1.69
-1.52
-1.26
-0.87
-0.36
0.27
1.02
1.89
2.80
3.68
4.37
4.75
4.74
4.36
3.72
3.00
2.34
1.82
1.44
1.14
0.87
0.62
0.41
0.27
0.21
0.17
0.07
-0.17
-0.55
-1.03
-1.49
-1.85
-2.06
-2.12
-2.12
-2.12
-2.18
-2.26
-2.28
-2.17
-1.88
-1.47
-1.07
-0.87
-0.99
-1.42
-2.03
-2.63
-3.01
-3.08
-2.87
-2.49
-2.08
-1.75
-1.54
-1.45
-1.43
-1.43
-1.42
-1.38
-1.33
-1.27
-1.19
-1.07
-0.94
-0.80
-0.69
-0.66
-0.70
-0.76
-0.75
-0.65
-0.44
-0.18
0.09
0.37
0.70
1.11
1.60
2.13
2.57
2.84
2.88
2.69
2.32
1.81
1.22
0.60
0.05
-0.35
-0.56
-0.59
-0.54
-0.54
-0.68
-1.00
-1.45
-1.97
-2.47
-2.89
-3.20
-3.38
-3.42
-3.34
-3.16
-2.92
-2.65
-2.33
-1.90
-1.32
-0.55
0.36
1.35
2.35
3.33
4.27
5.15
5.94
6.58
7.04
7.32
7.45
7.47
7.42
7.28
7.01
6.53
5.83
4.91
3.90
2.91
2.08
1.44
0.99
0.63
0.28
-0.13
-0.57
-0.98
-1.28
-1.43
-1.42
-1.31
-1.18
-1.07
-1.02
-1.05
-1.13
-1.27
-1.45
-1.66
-1.93
-2.31
-2.81
-3.46
-4.18
-4.90
-5.51
-5.92
-6.10
-6.08
-5.90
-5.57
-5.09
-4.46
-3.66
-2.70
-1.66
-0.64
0.25
0.94
1.37
1.55
1.54
1.43
1.29
1.19
1.16
1.17
1.20
1.22
1.19
1.10
0.95
0.73
0.43
0.07
-0.31
-0.68
-1.02
-1.33
-1.66
-2.07
-2.60
-3.21
-3.84
-4.40
-4.81
-5.05
-5.18
-5.25
-5.35
-5.56
-5.92
-6.43
-7.04
-7.68
-8.20
-8.48
-8.40
-7.90
-7.04
-5.97
-4.89
-4.03
-3.56
-3.51
-3.79
-4.21
-4.57
-4.76
-4.77
-4.68
-4.61
-4.59
-4.60
-4.50
-4.16
-3.44
-2.27
-0.67
1.29
3.53
5.92
8.35
10.66
12.65
14.12
14.91
14.92
14.20
12.88
11.17
9.33
7.56
6.06
4.91
4.11
3.58
3.22
2.95
2.69
2.41
2.06
1.56
0.82
-0.18
-1.42
-2.71
-3.85
-4.65
-5.04
-5.06
-4.81
-4.39
-3.84
-3.20
-2.45
-1.66
-0.85
-0.09
0.61
1.20
1.67
1.97
2.09
2.05
1.93
1.81
1.76
1.77
1.77
1.69
1.52
1.27
1.03
0.84
0.69
0.56
0.41
0.29
0.21
0.23
0.31
0.38
0.34
0.17
-0.08
-0.32
-0.44
-0.41
-0.27
-0.14
-0.11
-0.26
-0.58
-0.98
-1.38
-1.71
-1.91
-2.01
-2.04
-2.05
-2.05
-2.04
-2.03
-2.02
-2.02
-2.03
-2.03
-2.01
-1.95
-1.81
-1.56
-1.17
-0.61
0.13
1.01
1.96
2.90
3.70
4.28
4.56
4.54
4.27
3.85
3.38
2.99
2.75
2.68
2.74
2.87
3.04
3.20
3.37
3.55
3.70
3.78
3.74
3.55
3.21
2.75
2.19
1.58
0.93
0.29
-0.32
-0.87
-1.38
-1.88
-2.40
-2.90
-3.30
-3.48
-3.35
-2.96
-2.46
-1.99
-1.62
-1.32
-0.94
-0.43
0.17
0.64
0.76
0.40
-0.33
-1.16
-1.73
-1.81
-1.36
-0.57
0.30
1.02
1.54
1.93
2.29
2.69
3.08
3.35
3.37
3.11
2.65
2.14
1.71
1.42
1.25
1.11
0.93
0.67
0.41
0.22
0.15
0.17
0.18
0.05
-0.28
-0.75
-1.24
-1.59
-1.73
-1.70
-1.67
-1.78
-2.13
-2.70
-3.37
-4.04
-4.61
-5.07
-5.39
-5.58
-5.58
-5.35
-4.88
-4.22
-3.46
-2.70
-1.99
-1.33
-0.68
-0.01
0.68
1.37
1.98
2.49
2.90
3.24
3.56
3.88
4.17
4.39
4.51
4.55
4.55
4.57
4.61
4.63
4.51
4.16
3.57
2.89
2.30
1.97
1.95
2.11
2.24
2.12
1.72
1.14
0.58
0.19
0.02
-0.03
-0.12
-0.35
-0.76
-1.25
-1.72
-2.11
-2.41
-2.68
-2.97
-3.28
-3.56
-3.75
-3.79
-3.69
-3.45
-3.09
-2.62
-2.03
-1.35
-0.57
0.22
0.98
1.62
2.13
2.53
2.86
3.21
3.60
3.98
4.26
4.32
4.06
3.51
2.78
2.07
1.60
1.50
1.75
2.25
2.81
3.28
3.53
3.55
3.36
3.02
2.59
2.07
1.45
0.71
-0.13
-1.01
-1.84
-2.58
-3.21
-3.76
-4.27
-4.74
-5.19
-5.61
-6.00
-6.41
-6.87
-7.43
-8.11
-8.91
-9.76
-10.58
-11.26
-11.70
-11.89
-11.91
-11.90
-11.98
-12.15
-12.30
-12.29
-12.09
-11.82
-11.71
-12.00
-12.78
-13.96
-15.32
-16.58
-17.54
-18.08
-18.13
-17.66
-16.66
-15.14
-13.12
-10.64
-7.65
-4.09
0.09
4.80
9.81
14.73
19.16
22.80
25.51
27.26
28.10
28.07
27.16
25.46
23.15
20.51
17.83
15.33
13.10
11.16
9.61
8.61
8.42
9.22
10.97
13.33
15.77
17.71
18.75
18.84
18.21
17.28
16.47
16.04
15.99
16.02
15.65
14.37
11.78
7.78
2.64
-3.12
-8.85
-13.96
-18.09
-21.02
-22.64
-22.87
-21.66
-19.09
-15.47
-11.36
-7.33
-3.84
-1.00
1.35
3.49
5.55
7.49
9.09
10.12
10.49
10.29
9.70
8.84
7.73
6.30
4.48
2.29
-0.08
-2.35
-4.25
-5.59
-6.35
-6.64
-6.58
-6.28
-5.76
-5.00
-3.97
-2.70
-1.25
0.30
1.90
3.52
5.10
6.52
7.64
8.31
8.54
8.47
8.36
8.47
8.92
9.59
10.15
10.20
9.41
7.69
5.25
2.52
-0.04
-2.03
-3.29
-3.84
-3.87
-3.56
-3.06
-2.47
-1.83
-1.21
-0.65
-0.21
0.09
0.27
0.36
0.40
0.46
0.61
0.92
1.43
2.10
2.81
3.38
3.64
3.53
3.10
2.52
1.95
1.46
0.99
0.43
-0.31
-1.29
-2.45
-3.72
-5.00
-6.19
-7.20
-7.95
-8.40
-8.54
-8.40
-8.02
-7.45
-6.70
-5.78
-4.76
-3.75
-2.89
-2.27
-1.89
-1.66
-1.50
-1.33
-1.18
-1.04
-0.91
-0.73
-0.43
0.01
0.51
0.95
1.18
1.15
0.88
0.51
0.14
-0.13
-0.30
-0.44
-0.58
-0.74
-0.89
-0.97
-0.98
-0.95
-1.00
-1.22
-1.66
-2.28
-2.96
-3.55
-3.98
-4.24
-4.38
-4.51
-4.69
-4.97
-5.33
-5.70
-5.97
-6.06
-5.88
-5.44
-4.80
-4.07
-3.36
-2.67
-1.96
-1.17
-0.32
0.50
1.17
1.61
1.84
1.95
2.04
2.13
2.15
2.05
1.85
1.66
1.64
1.90
2.37
2.87
3.22
3.32
3.22
3.06
2.97
2.98
3.00
2.91
2.60
2.10
1.51
0.94
0.47
0.10
-0.22
-0.52
-0.81
-1.08
-1.32
-1.56
-1.86
-2.26
-2.79
-3.38
-3.91
-4.30
-4.47
-4.43
-4.21
-3.88
-3.46
-2.96
-2.39
-1.75
-1.05
-0.32
0.41
1.12
1.75
2.28
2.66
2.92
3.06
3.11
3.07
2.98
2.90
2.89
3.02
3.26
3.52
3.69
3.66
3.45
3.12
2.77
2.49
2.27
2.08
1.89
1.69
1.54
1.45
1.42
1.36
1.18
0.83
0.37
-0.14
-0.61
-0.99
-1.34
-1.74
-2.24
-2.85
-3.48
-4.02
-4.36
-4.48
-4.40
-4.19
-3.88
-3.52
-3.09
-2.61
-2.08
-1.52
-0.93
-0.31
0.40
1.22
2.14
3.08
3.94
4.58
4.95
5.11
5.15
5.17
5.15
5.03
4.70
4.13
3.42
2.76
2.31
2.13
2.11
2.09
1.92
1.57
1.15
0.78
0.52
0.33
0.07
-0.37
-1.04
-1.85
-2.64
-3.31
-3.81
-4.22
-4.65
-5.14
-5.67
-6.14
-6.43
-6.51
-6.43
-6.32
-6.24
-6.18
-6.07
-5.78
-5.29
-4.63
-3.89
-3.11
-2.25
-1.27
-0.15
1.02
2.11
2.95
3.48
3.74
3.86
4.01
4.33
4.85
5.49
6.10
6.46
6.42
5.91
5.03
3.97
2.91
1.98
1.19
0.52
-0.07
-0.58
-0.97
-1.26
-1.47
-1.66
-1.84
-1.93
-1.82
-1.44
-0.80
-0.02
0.70
1.23
1.51
1.52
1.29
0.84
0.16
-0.71
-1.70
-2.70
-3.60
-4.31
-4.77
-4.97
-4.92
-4.62
-4.13
-3.47
-2.71
-1.91
-1.08
-0.25
0.58
1.37
2.09
2.68
3.11
3.39
3.53
3.58
3.59
3.59
3.61
3.62
3.56
3.35
2.95
2.39
1.79
1.33
1.14
1.23
1.47
1.69
1.74
1.61
1.41
1.29
1.33
1.49
1.62
1.59
1.33
0.87
0.29
-0.38
-1.14
-2.04
-3.07
-4.10
-4.95
-5.45
-5.54
-5.35
-5.09
-4.96
-5.04
-5.27
-5.48
-5.52
-5.31
-4.84
-4.15
-3.26
-2.20
-1.01
0.20
1.28
2.11
2.63
2.90
3.01
3.06
3.08
3.10
3.08
3.02
2.95
2.88
2.86
2.86
2.86
2.79
2.60
2.25
1.76
1.26
0.92
0.87
1.18
1.72
2.27
2.60
2.56
2.18
1.62
1.02
0.43
-0.23
-1.04
-2.06
-3.20
-4.29
-5.16
-5.73
-6.09
-6.39
-6.75
-7.19
-7.62
-7.86
-7.77
-7.31
-6.55
-5.60
-4.57
-3.49
-2.32
-1.03
0.37
1.77
3.03
4.02
4.68
5.03
5.18
5.25
5.33
5.44
5.54
5.59
5.55
5.37
5.06
4.62
4.09
3.50
2.91
2.34
1.79
1.28
0.80
0.38
0.03
-0.25
-0.51
-0.78
-1.13
-1.58
-2.08
-2.57
-2.98
-3.29
-3.52
-3.70
-3.87
-4.04
-4.18
-4.28
-4.34
-4.32
-4.20
-3.94
-3.50
-2.89
-2.15
-1.34
-0.53
0.23
0.93
1.57
2.14
2.61
2.94
3.08
3.04
2.84
2.55
2.25
2.06
2.04
2.22
2.54
2.88
3.09
3.05
2.72
2.16
1.51
0.89
0.39
0.03
-0.19
-0.28
-0.30
-0.28
-0.31
-0.45
-0.74
-1.18
-1.72
-2.27
-2.77
-3.16
-3.43
-3.60
-3.64
-3.55
-3.31
-2.95
-2.54
-2.13
-1.77
-1.43
-1.05
-0.56
0.04
0.70
1.28
1.65
1.74
1.57
1.27
0.95
0.71
0.58
0.54
0.57
0.63
0.70
0.79
0.86
0.91
0.93
0.92
0.89
0.83
0.70
0.46
0.13
-0.25
-0.61
-0.89
-1.11
-1.33
-1.66
-2.12
-2.65
-3.13
-3.45
-3.58
-3.61
-3.65
-3.76
-3.89
-3.95
-3.83
-3.49
-3.01
-2.49
-2.01
-1.56
-1.08
-0.52
0.09
0.67
1.11
1.36
1.47
1.55
1.72
2.01
2.36
2.67
2.86
2.92
2.90
2.84
2.79
2.69
2.52
2.24
1.89
1.57
1.34
1.21
1.14
1.00
0.73
0.34
-0.08
-0.40
-0.54
-0.51
-0.41
-0.40
-0.56
-0.88
-1.27
-1.64
-1.92
-2.10
-2.26
-2.43
-2.64
-2.88
-3.11
-3.28
-3.35
-3.27
-2.98
-2.45
-1.69
-0.77
0.20
1.07
1.73
2.14
2.32
2.37
2.39
2.48
2.64
2.85
3.06
3.24
3.39
3.56
3.79
4.07
4.36
4.59
4.73
4.76
4.69
4.55
4.34
4.08
3.76
3.42
3.09
2.78
2.45
2.03
1.47
0.76
-0.08
-0.97
-1.88
-2.79
-3.72
-4.68
-5.59
-6.34
-6.79
-6.87
-6.57
-5.99
-5.23
-4.36
-3.41
-2.41
-1.40
-0.49
0.25
0.79
1.17
1.46
1.73
2.01
2.32
2.61
2.91
3.22
3.53
3.79
3.94
3.95
3.82
3.67
3.53
3.42
3.26
2.93
2.41
1.74
1.06
0.49
0.12
-0.07
-0.17
-0.26
-0.44
-0.82
-1.44
-2.35
-3.49
-4.76
-5.97
-6.94
-7.56
-7.85
-7.93
-8.01
-8.29
-8.86
-9.66
-10.43
-10.80
-10.45
-9.25
-7.31
-5.03
-2.85
-1.14
-0.04
0.51
0.72
0.77
0.82
0.99
1.35
2.01
3.01
4.31
5.73
7.00
7.87
8.24
8.17
7.86
7.58
7.51
7.68
7.99
8.30
8.49
8.56
8.57
8.65
8.83
9.08
9.25
9.19
8.81
8.13
7.30
6.54
6.00
5.72
5.58
5.37
4.90
4.11
3.05
1.86
0.65
-0.55
-1.78
-3.10
-4.50
-5.84
-6.92
-7.57
-7.72
-7.39
-6.73
-5.91
-5.08
-4.31
-3.64
-3.04
-2.47
-1.90
-1.32
-0.78
-0.32
-0.03
0.06
-0.05
-0.27
-0.49
-0.55
-0.35
0.11
0.72
1.32
1.72
1.80
1.53
0.97
0.29
-0.36
-0.84
-1.10
-1.15
-1.09
-1.03
-1.09
-1.32
-1.73
-2.24
-2.76
-3.22
-3.56
-3.77
-3.87
-3.87
-3.80
-3.67
-3.49
-3.29
-3.07
-2.83
-2.54
-2.17
-1.75
-1.32
-1.00
-0.93
-1.18
-1.76
-2.56
-3.45
-4.29
-5.00
-5.52
-5.84
-5.96
-5.87
-5.56
-5.04
-4.34
-3.50
-2.65
-1.87
-1.25
-0.80
-0.46
-0.14
0.29
0.87
1.59
2.33
2.95
3.31
3.36
3.16
2.85
2.57
2.44
2.50
2.66
2.80
2.78
2.55
2.17
1.75
1.45
1.34
1.39
1.50
1.57
1.55
1.44
1.26
1.06
0.84
0.58
0.27
-0.08
-0.43
-0.72
-0.94
-1.09
-1.23
-1.45
-1.81
-2.35
-3.03
-3.71
-4.28
-4.58
-4.57
-4.32
-3.97
-3.66
-3.41
-3.15
-2.71
-2.01
-1.07
-0.07
0.73
1.16
1.20
1.01
0.81
0.78
0.98
1.33
1.72
2.03
2.27
2.49
2.75
3.03
3.25
3.33
3.25
3.08
2.95
2.99
3.20
3.45
3.58
3.46
3.07
2.50
1.89
1.35
0.92
0.60
0.33
0.10
-0.13
-0.36
-0.63
-0.93
-1.24
-1.53
-1.77
-2.00
-2.27
-2.64
-3.12
-3.62
-4.01
-4.18
-4.08
-3.76
-3.34
-2.92
-2.58
-2.29
-1.98
-1.56
-0.98
-0.26
0.54
1.27
1.85
2.23
2.44
2.55
2.65
2.78
2.94
3.10
3.22
3.27
3.28
3.28
3.32
3.42
3.57
3.70
3.72
3.54
3.14
2.57
1.97
1.44
1.07
0.82
0.60
0.36
0.08
-0.16
-0.30
-0.36
-0.41
-0.55
-0.84
-1.23
-1.61
-1.89
-2.03
-2.09
-2.20
-2.44
-2.84
-3.35
-3.89
-4.38
-4.77
-5.04
-5.23
-5.36
-5.45
-5.47
-5.38
-5.09
-4.54
-3.75
-2.81
-1.88
-1.13
-0.68
-0.50
-0.48
-0.42
-0.19
0.23
0.76
1.25
1.59
1.77
1.83
1.85
1.85
1.77
1.53
1.10
0.58
0.09
-0.20
-0.24
-0.05
0.26
0.58
0.87
1.14
1.40
1.61
1.72
1.64
1.35
0.91
0.43
-0.00
-0.33
-0.60
-0.89
-1.31
-1.96
-2.86
-3.98
-5.20
-6.36
-7.27
-7.84
-8.02
-7.91
-7.63
-7.30
-6.95
-6.53
-5.98
-5.28
-4.45
-3.57
-2.71
-1.90
-1.07
-0.14
0.95
2.22
3.61
5.04
6.40
7.63
8.73
9.72
10.59
11.34
11.88
12.13
12.05
11.66
11.07
10.40
9.76
9.14
8.51
7.78
6.92
5.97
5.05
4.27
3.67
3.19
2.71
2.08
1.24
0.22
-0.87
-1.90
-2.82
-3.59
-4.23
-4.73
-5.06
-5.13
-4.86
-4.19
-3.19
-2.00
-0.86
0.02
0.55
0.74
0.75
0.70
0.67
0.58
0.30
-0.27
-1.14
-2.17
-3.17
-3.98
-4.50
-4.76
-4.81
-4.69
-4.46
-4.14
-3.72
-3.23
-2.67
-2.04
-1.34
-0.60
0.19
1.03
1.90
2.78
3.61
4.37
5.00
5.54
6.05
6.61
7.24
7.90
8.49
8.92
9.12
9.12
9.00
8.86
8.76
8.71
8.64
8.43
7.96
7.17
6.07
4.76
3.42
2.19
1.16
0.35
-0.27
-0.76
-1.16
-1.45
-1.60
-1.59
-1.44
-1.18
-0.81
-0.32
0.32
1.10
1.94
2.69
3.18
3.25
2.88
2.16
1.26
0.38
-0.31
-0.72
-0.85
-0.76
-0.55
-0.30
-0.05
0.18
0.41
0.58
0.64
0.50
0.13
-0.39
-0.93
-1.35
-1.57
-1.58
-1.48
-1.33
-1.22
-1.16
-1.19
-1.35
-1.70
-2.22
-2.79
-3.25
-3.48
-3.45
-3.32
-3.32
-3.61
-4.22
-5.04
-5.85
-6.45
-6.76
-6.77
-6.52
-6.11
-5.57
-4.94
-4.26
-3.57
-2.88
-2.18
-1.45
-0.71
-0.00
0.60
1.06
1.39
1.67
1.96
2.30
2.62
2.85
2.94
2.89
2.77
2.63
2.54
2.46
2.37
2.23
2.05
1.86
1.70
1.63
1.65
1.74
1.82
1.79
1.56
1.09
0.46
-0.21
-0.78
-1.13
-1.29
-1.34
-1.38
-1.49
-1.66
-1.87
-2.06
-2.22
-2.34
-2.42
-2.44
-2.35
-2.13
-1.79
-1.36
-0.89
-0.39
0.13
0.66
1.20
1.69
2.04
2.22
2.21
2.06
1.88
1.74
1.68
1.69
1.71
1.67
1.53
1.28
0.95
0.61
0.31
0.11
0.02
0.02
0.07
0.11
0.10
0.03
-0.09
-0.29
-0.58
-0.97
-1.44
-1.93
-2.32
-2.53
-2.56
-2.49
-2.47
-2.61
-2.88
-3.15
-3.23
-2.95
-2.27
-1.30
-0.23
0.71
1.40
1.76
1.81
1.62
1.30
0.97
0.75
0.66
0.70
0.77
0.79
0.72
0.60
0.51
0.48
0.51
0.50
0.39
0.20
-0.02
-0.17
-0.22
-0.25
-0.37
-0.68
-1.14
-1.63
-1.95
-2.02
-1.85
-1.60
-1.49
-1.67
-2.16
-2.85
-3.54
-4.04
-4.20
-3.98
-3.44
-2.69
-1.88
-1.15
-0.56
-0.15
0.10
0.25
0.36
0.50
0.70
0.98
1.32
1.70
2.07
2.41
2.67
2.82
2.87
2.82
2.72
2.60
2.49
2.41
2.29
2.09
1.73
1.23
0.65
0.12
-0.27
-0.48
-0.60
-0.78
-1.14
-1.72
-2.40
-2.98
-3.26
-3.22
-2.95
-2.67
-2.57
-2.70
-3.01
-3.34
-3.58
-3.66
-3.62
-3.53
-3.47
-3.45
-3.42
-3.30
-3.02
-2.55
-1.91
-1.17
-0.41
0.31
0.94
1.47
1.88
2.14
2.26
2.26
2.19
2.09
2.00
1.91
1.86
1.85
1.94
2.12
2.37
2.59
2.68
2.59
2.34
2.00
1.66
1.38
1.16
0.97
0.76
0.50
0.17
-0.22
-0.65
-1.11
-1.60
-2.12
-2.63
-3.13
-3.54
-3.82
-3.97
-3.99
-3.98
-4.00
-4.10
-4.27
-4.41
-4.43
-4.21
-3.70
-2.93
-1.98
-0.97
-0.01
0.78
1.37
1.73
1.92
2.01
2.05
2.12
2.25
2.46
2.75
3.09
3.41
3.60
3.58
3.32
2.87
2.38
2.00
1.85
1.93
2.12
2.26
2.21
1.93
1.49
0.97
0.45
-0.03
-0.45
-0.81
-1.08
-1.26
-1.38
-1.52
-1.75
-2.13
-2.67
-3.31
-3.95
-4.47
-4.82
-4.98
-4.96
-4.79
-4.46
-3.95
-3.24
-2.34
-1.35
-0.36
0.48
1.12
1.54
1.83
2.10
2.43
2.83
3.25
3.59
3.76
3.76
3.62
3.41
3.19
2.96
2.70
2.41
2.11
1.85
1.70
1.69
1.77
1.90
2.02
2.09
2.09
2.01
1.83
1.55
1.21
0.90
0.67
0.53
0.44
0.31
0.09
-0.23
-0.61
-0.99
-1.36
-1.75
-2.19
-2.72
-3.34
-4.01
-4.67
-5.23
-5.57
-5.65
-5.46
-5.08
-4.65
-4.25
-3.92
-3.60
-3.19
-2.60
-1.83
-0.91
0.06
1.02
1.96
2.86
3.68
4.36
4.78
4.88
4.65
4.16
3.58
3.03
2.64
2.43
2.37
2.39
2.43
2.43
2.40
2.33
2.18
1.93
1.55
1.08
0.59
0.18
-0.04
-0.07
0.04
0.17
0.18
0.02
-0.31
-0.74
-1.19
-1.61
-1.98
-2.36
-2.78
-3.27
-3.79
-4.28
-4.66
-4.85
-4.83
-4.61
-4.24
-3.77
-3.26
-2.72
-2.17
-1.58
-0.90
-0.12
0.78
1.72
2.55
3.09
3.20
2.90
2.37
1.88
1.69
1.88
2.36
2.90
3.26
3.31
3.07
2.68
2.30
2.02
1.90
1.93
2.06
2.24
2.42
2.52
2.47
2.29
2.01
1.68
1.34
0.97
0.57
0.12
-0.35
-0.81
-1.24
-1.66
-2.09
-2.53
-2.95
-3.29
-3.53
-3.72
-3.90
-4.09
-4.26
-4.31
-4.21
-3.98
-3.71
-3.46
-3.22
-2.89
-2.33
-1.47
-0.41
0.63
1.45
1.90
2.02
1.97
1.93
2.00
2.13
2.24
2.23
2.13
2.04
2.08
2.32
2.69
3.02
3.16
3.02
2.68
2.32
2.09
2.08
2.24
2.45
2.58
2.56
2.40
2.13
1.81
1.44
1.03
0.55
0.02
-0.52
-1.00
-1.36
-1.57
-1.69
-1.81
-2.04
-2.49
-3.14
-3.89
-4.62
-5.18
-5.53
-5.67
-5.67
-5.57
-5.37
-5.04
-4.52
-3.80
-2.92
-1.99
-1.09
-0.29
0.40
0.99
1.48
1.84
2.08
2.18
2.19
2.16
2.12
2.13
2.18
2.25
2.33
2.41
2.48
2.56
2.64
2.71
2.75
2.74
2.66
2.50
2.24
1.87
1.37
0.80
0.22
-0.31
-0.72
-0.99
-1.16
-1.28
-1.41
-1.59
-1.81
-2.06
-2.30
-2.52
-2.71
-2.90
-3.09
-3.26
-3.36
-3.35
-3.19
-2.90
-2.52
-2.12
-1.73
-1.32
-0.85
-0.27
0.39
1.04
1.58
1.95
2.17
2.29
2.38
2.51
2.68
2.89
3.11
3.31
3.46
3.49
3.38
3.10
2.69
2.25
1.89
1.70
1.69
1.80
1.91
1.94
1.83
1.57
1.22
0.85
0.50
0.20
-0.03
-0.22
-0.36
-0.50
-0.66
-0.88
-1.15
-1.49
-1.88
-2.33
-2.85
-3.40
-3.96
-4.46
-4.86
-5.16
-5.37
-5.53
-5.61
-5.55
-5.27
-4.76
-4.01
-3.06
-1.99
-0.87
0.25
1.32
2.27
3.07
3.68
4.07
4.25
4.22
4.04
3.79
3.60
3.54
3.66
3.89
4.10
4.18
4.08
3.86
3.60
3.37
3.21
3.07
2.91
2.71
2.46
2.16
1.80
1.39
0.94
0.50
0.14
-0.08
-0.17
-0.16
-0.12
-0.15
-0.35
-0.73
-1.27
-1.91
-2.54
-3.06
-3.44
-3.72
-3.98
-4.31
-4.76
-5.27
-5.69
-5.87
-5.73
-5.28
-4.61
-3.87
-3.15
-2.46
-1.77
-1.03
-0.25
0.52
1.16
1.65
2.00
2.30
2.64
3.03
3.41
3.64
3.62
3.38
3.04
2.75
2.65
2.75
2.93
3.02
2.90
2.56
2.09
1.68
1.44
1.41
1.52
1.61
1.57
1.32
0.86
0.25
-0.44
-1.11
-1.71
-2.21
-2.62
-2.96
-3.26
-3.52
-3.70
-3.78
-3.75
-3.64
-3.49
-3.34
-3.19
-3.00
-2.72
-2.32
-1.78
-1.12
-0.34
0.52
1.37
2.10
2.57
2.71
2.55
2.27
2.06
2.08
2.35
2.77
3.17
3.43
3.50
3.45
3.40
3.43
3.54
3.67
3.72
3.64
3.45
3.22
3.03
2.93
2.90
2.89
2.80
2.63
2.38
2.11
1.87
1.69
1.55
1.46
1.36
1.24
1.05
0.76
0.34
-0.16
-0.69
-1.14
-1.46
-1.66
-1.84
-2.14
-2.65
-3.37
-4.17
-4.84
-5.22
-5.23
-4.93
-4.46
-3.98
-3.56
-3.25
-2.97
-2.65
-2.22
-1.66
-0.97
-0.20
0.57
1.27
1.83
2.24
2.49
2.63
2.71
2.75
2.77
2.74
2.64
2.45
2.15
1.76
1.28
0.76
0.23
-0.26
-0.66
-0.94
-1.06
-1.00
-0.75
-0.31
0.27
0.93
1.57
2.12
2.52
2.75
2.81
2.72
2.47
2.05
1.46
0.70
-0.15
-1.04
-1.93
-2.78
-3.55
-4.22
-4.73
-5.07
-5.21
-5.19
-5.04
-4.73
-4.25
-3.56
-2.69
-1.74
-0.82
-0.03
0.57
1.01
1.33
1.55
1.68
1.75
1.79
1.85
1.94
2.07
2.20
2.30
2.33
2.31
2.23
2.08
1.84
1.52
1.20
0.96
0.90
1.05
1.31
1.54
1.59
1.35
0.86
0.24
-0.35
-0.77
-1.00
-1.08
-1.15
-1.32
-1.66
-2.16
-2.78
-3.45
-4.15
-4.86
-5.58
-6.22
-6.69
-6.89
-6.80
-6.48
-6.04
-5.59
-5.19
-4.82
-4.38
-3.79
-2.96
-1.92
-0.74
0.46
1.52
2.33
2.84
3.07
3.15
3.17
3.20
3.23
3.23
3.15
3.06
3.02
3.13
3.37
3.66
3.84
3.81
3.59
3.29
3.08
3.02
3.08
3.12
3.00
2.69
2.27
1.90
1.69
1.65
1.68
1.62
1.40
1.02
0.56
0.10
-0.33
-0.76
-1.22
-1.75
-2.33
-2.88
-3.36
-3.70
-3.93
-4.09
-4.24
-4.40
-4.51
-4.48
-4.20
-3.60
-2.78
-1.90
-1.17
-0.76
-0.63
-0.66
-0.64
-0.41
0.04
0.59
1.10
1.45
1.58
1.52
1.32
1.04
0.77
0.56
0.47
0.46
0.45
0.35
0.11
-0.23
-0.56
-0.77
-0.85
-0.86
-0.92
-1.08
-1.34
-1.59
-1.74
-1.80
-1.82
-1.94
-2.20
-2.56
-2.90
-3.11
-3.14
-3.04
-2.93
-2.88
-2.88
-2.83
-2.65
-2.25
-1.64
-0.86
-0.00
0.84
1.61
2.26
2.74
3.05
3.21
3.23
3.16
3.05
2.94
2.86
2.85
2.91
3.06
3.27
3.50
3.69
3.83
3.89
3.88
3.79
3.60
3.27
2.82
2.29
1.77
1.38
1.21
1.29
1.55
1.88
2.13
2.21
2.08
1.77
1.28
0.63
-0.24
-1.35
-2.68
-4.12
-5.53
-6.74
-7.64
-8.19
-8.40
-8.34
-8.07
-7.65
-7.14
-6.56
-5.91
-5.18
-4.36
-3.47
-2.54
-1.62
-0.74
0.08
0.81
1.41
1.80
1.92
1.75
1.36
0.91
0.55
0.38
0.39
0.49
0.57
0.57
0.48
0.36
0.27
0.20
0.17
0.14
0.11
0.10
0.10
0.11
0.14
0.18
0.27
0.41
0.57
0.65
0.55
0.23
-0.25
-0.76
-1.13
-1.25
-1.16
-0.98
-0.85
-0.82
-0.86
-0.87
-0.79
-0.61
-0.40
-0.21
-0.06
0.09
0.31
0.65
1.11
1.64
2.18
2.70
3.14
3.50
3.75
3.86
3.82
3.68
3.49
3.33
3.26
3.26
3.30
3.31
3.25
3.10
2.89
2.69
2.57
2.54
2.57
2.55
2.40
2.07
1.58
1.06
0.63
0.35
0.21
0.08
-0.15
-0.54
-1.07
-1.64
-2.15
-2.57
-2.91
-3.25
-3.71
-4.34
-5.12
-5.98
-6.76
-7.33
-7.58
-7.49
-7.15
-6.66
-6.15
-5.64
-5.10
-4.42
-3.54
-2.46
-1.26
-0.08
0.96
1.76
2.31
2.64
2.81
2.92
3.04
3.25
3.54
3.89
4.21
4.41
4.43
4.28
4.01
3.70
3.41
3.13
2.85
2.55
2.23
1.93
1.70
1.56
1.50
1.44
1.30
1.03
0.63
0.17
-0.26
-0.59
-0.80
-0.93
-1.09
-1.39
-1.87
-2.53
-3.29
-4.06
-4.74
-5.27
-5.56
-5.52
-5.14
-4.46
-3.65
-2.93
-2.52
-2.53
-2.93
-3.51
-4.01
-4.24
-4.13
-3.79
-3.40
-3.17
-3.21
-3.51
-3.96
-4.38
-4.55
-4.32
-3.59
-2.39
-0.81
0.92
2.56
3.85
4.63
4.86
4.61
4.08
3.51
3.15
3.14
3.53
4.20
4.96
5.60
5.96
5.99
5.75
5.29
4.64
3.84
2.92
2.01
1.29
0.97
1.13
1.68
2.34
2.78
2.81
2.44
1.86
1.33
1.03
0.96
1.00
1.05
1.02
0.95
0.89
0.87
0.90
0.92
0.95
0.98
1.01
1.00
0.86
0.55
0.06
-0.49
-0.98
-1.25
-1.26
-1.02
-0.61
-0.06
0.57
1.27
2.01
2.73
3.34
3.82
4.15
4.39
4.60
4.85
5.13
5.41
5.58
5.53
5.17
4.51
3.62
2.63
1.67
0.82
0.10
-0.53
-1.10
-1.61
-2.04
-2.32
-2.43
-2.40
-2.32
-2.25
-2.28
-2.39
-2.50
-2.52
-2.39
-2.10
-1.69
-1.21
-0.70
-0.15
0.45
1.07
1.69
2.24
2.70
3.05
3.31
3.53
3.74
3.91
4.03
4.07
3.99
3.80
3.52
3.18
2.88
2.74
2.82
3.15
3.59
3.95
4.03
3.72
3.06
2.24
1.46
0.91
0.62
0.52
0.44
0.30
0.06
-0.21
-0.43
-0.58
-0.76
-1.13
-1.84
-2.88
-4.09
-5.19
-5.94
-6.22
-6.09
-5.73
-5.31
-4.91
-4.46
-3.87
-3.10
-2.22
-1.37
-0.69
-0.23
0.05
0.28
0.57
0.99
1.50
2.07
2.59
2.99
3.23
3.30
3.23
3.08
2.87
2.62
2.31
1.91
1.47
1.05
0.74
0.61
0.65
0.78
0.84
0.67
0.20
-0.52
-1.34
-2.04
-2.43
-2.47
-2.29
-2.08
-2.06
-2.31
-2.80
-3.39
-3.92
-4.27
-4.46
-4.54
-4.58
-4.61
-4.61
-4.51
-4.29
-3.94
-3.52
-3.07
-2.58
-2.01
-1.33
-0.53
0.30
1.04
1.58
1.89
2.04
2.14
2.28
2.48
2.66
2.77
2.78
2.73
2.71
2.75
2.81
2.84
2.76
2.58
2.35
2.17
2.13
2.23
2.40
2.56
2.63
2.58
2.40
2.12
1.76
1.37
0.98
0.62
0.26
-0.14
-0.66
-1.34
-2.17
-3.05
-3.82
-4.34
-4.52
-4.39
-4.05
-3.64
-3.25
-2.88
-2.48
-1.98
-1.34
-0.64
0.04
0.60
1.00
1.30
1.57
1.89
2.25
2.61
2.89
3.07
3.16
3.22
3.30
3.44
3.63
3.81
3.89
3.82
3.59
3.24
2.88
2.56
2.30
2.06
1.74
1.29
0.72
0.11
-0.46
-0.88
-1.16
-1.35
-1.56
-1.89
-2.40
-3.06
-3.79
-4.49
-5.10
-5.59
-5.95
-6.17
-6.21
-6.03
-5.62
-5.07
-4.48
-3.99
-3.64
-3.40
-3.15
-2.78
-2.26
-1.64
-1.03
-0.54
-0.19
0.05
0.26
0.45
0.61
0.68
0.60
0.39
0.12
-0.08
-0.13
0.01
0.30
0.65
0.96
1.16
1.26
1.28
1.27
1.29
1.38
1.54
1.75
1.94
2.01
1.87
1.47
0.86
0.17
-0.46
-0.91
-1.18
-1.33
-1.46
-1.63
-1.84
-2.05
-2.23
-2.38
-2.54
-2.76
-3.04
-3.35
-3.62
-3.80
-3.85
-3.76
-3.51
-3.10
-2.53
-1.85
-1.11
-0.35
0.38
1.07
1.72
2.33
2.89
3.38
3.76
4.04
4.25
4.43
4.63
4.86
5.10
5.31
5.44
5.49
5.47
5.37
5.19
4.88
4.42
3.80
3.03
2.15
1.23
0.33
-0.51
-1.23
-1.81
-2.23
-2.57
-2.91
-3.36
-3.97
-4.71
-5.42
-5.93
-6.11
-5.98
-5.71
-5.51
-5.55
-5.86
-6.29
-6.65
-6.79
-6.61
-6.17
-5.52
-4.75
-3.95
-3.15
-2.42
-1.76
-1.13
-0.45
0.34
1.26
2.22
3.09
3.72
4.08
4.17
4.07
3.83
3.50
3.12
2.77
2.54
2.54
2.81
3.32
3.97
4.61
5.10
5.34
5.30
5.01
4.60
4.17
3.83
3.59
3.43
3.27
3.05
2.77
2.43
2.05
1.65
1.18
0.63
-0.04
-0.82
-1.67
-2.55
-3.44
-4.28
-5.01
-5.56
-5.85
-5.84
-5.58
-5.15
-4.66
-4.24
-3.92
-3.63
-3.27
-2.75
-2.00
-1.06
-0.05
0.94
1.82
2.54
3.11
3.53
3.84
4.05
4.15
4.16
4.12
4.04
3.96
3.91
3.92
4.02
4.18
4.32
4.35
4.17
3.78
3.24
2.69
2.25
1.95
1.76
1.61
1.45
1.24
0.99
0.70
0.35
-0.07
-0.55
-1.03
-1.43
-1.71
-1.89
-2.04
-2.26
-2.60
-3.06
-3.55
-3.94
-4.16
-4.17
-3.96
-3.61
-3.16
-2.65
-2.11
-1.57
-1.02
-0.50
-0.01
0.43
0.79
1.08
1.29
1.47
1.65
1.85
2.10
2.37
2.65
2.87
2.98
2.97
2.86
2.70
2.57
2.53
2.58
2.70
2.80
2.82
2.71
2.44
2.03
1.53
1.00
0.53
0.18
-0.03
-0.15
-0.29
-0.58
-1.10
-1.82
-2.65
-3.44
-4.08
-4.51
-4.79
-4.98
-5.17
-5.39
-5.64
-5.91
-6.17
-6.42
-6.61
-6.72
-6.65
-6.33
-5.71
-4.79
-3.68
-2.55
-1.57
-0.86
-0.47
-0.33
-0.33
-0.34
-0.24
-0.03
0.23
0.39
0.27
-0.27
-1.20
-2.37
-3.42
-3.94
-3.66
-2.49
-0.68
1.39
3.24
4.49
4.97
4.64
3.64
2.14
0.34
-1.55
-3.33
-4.78
-5.76
-6.15
-5.97
-5.30
-4.23
-2.90
-1.43
0.07
1.49
2.75
3.76
4.47
4.87
4.98
4.89
4.76
4.73
4.85
5.08
5.27
5.21
4.79
3.99
2.97
1.98
1.31
1.14
1.57
2.54
3.88
5.31
6.59
7.49
7.91
7.86
7.48
6.95
6.46
6.18
6.18
6.45
6.85
7.21
7.27
6.90
6.07
4.95
3.75
2.69
1.87
1.27
0.76
0.28
-0.20
-0.65
-1.04
-1.41
-1.81
-2.24
-2.62
-2.82
-2.69
-2.25
-1.63
-1.10
-0.90
-1.18
-1.93
-3.06
-4.47
-6.07
-7.81
-9.57
-11.15
-12.36
-13.03
-13.13
-12.78
-12.15
-11.35
-10.44
-9.36
-8.07
-6.60
-5.13
-3.90
-3.09
-2.76
-2.76
-2.85
-2.79
-2.46
-1.94
-1.37
-0.91
-0.64
-0.51
-0.44
-0.35
-0.26
-0.21
-0.26
-0.46
-0.81
-1.32
-1.98
-2.83
-3.88
-5.10
-6.42
-7.68
-8.63
-8.99
-8.53
-7.15
-4.94
-2.21
0.64
3.23
5.34
6.91
7.98
8.66
9.05
9.24
9.28
9.25
9.15
8.98
8.67
8.14
7.38
6.40
5.31
4.18
3.11
2.15
1.34
0.75
0.38
0.21
0.20
0.33
0.66
1.38
2.69
4.72
7.37
10.36
13.24
15.59
17.17
17.91
17.93
17.42
16.52
15.32
13.86
12.14
10.16
7.97
5.62
3.17
0.68
-1.75
-4.04
-6.06
-7.72
-8.93
-9.69
-10.04
-10.09
-9.99
-9.85
-9.76
-9.73
-9.74
-9.72
-9.60
-9.33
-8.90
-8.33
-7.68
-6.98
-6.23
-5.38
-4.38
-3.24
-2.06
-0.99
-0.18
0.27
0.41
0.35
0.23
0.16
0.19
0.33
0.54
0.83
1.16
1.51
1.80
1.92
1.80
1.43
0.89
0.32
-0.11
-0.29
-0.22
0.01
0.24
0.36
0.29
0.04
-0.33
-0.75
-1.15
-1.46
-1.70
-1.87
-2.08
-2.40
-2.87
-3.51
-4.30
-5.17
-6.05
-6.80
-7.27
-7.28
-6.72
-5.62
-4.17
-2.66
-1.35
-0.38
0.32
0.92
1.59
2.38
3.21
3.93
4.41
4.62
4.59
4.39
4.11
3.78
3.42
3.03
2.65
2.34
2.14
2.10
2.19
2.35
2.47
2.42
2.14
1.66
1.10
0.60
0.28
0.15
0.15
0.15
0.08
-0.05
-0.18
-0.22
-0.17
-0.12
-0.21
-0.54
-1.08
-1.71
-2.25
-2.59
-2.73
-2.79
-2.93
-3.27
-3.81
-4.45
-5.01
-5.31
-5.26
-4.85
-4.16
-3.30
-2.43
-1.63
-0.94
-0.34
0.26
0.89
1.54
2.15
2.64
2.98
3.17
3.22
3.17
3.01
2.72
2.30
1.80
1.31
0.93
0.68
0.53
0.41
0.25
0.02
-0.25
-0.51
-0.73
-0.93
-1.17
-1.50
-1.94
-2.45
-2.98
-3.47
-3.88
-4.24
-4.55
-4.85
-5.15
-5.45
-5.75
-6.05
-6.36
-6.65
-6.90
-7.06
-7.10
-7.00
-6.80
-6.57
-6.40
-6.31
-6.29
-6.27
-6.11
-5.70
-4.98
-3.96
-2.76
-1.53
-0.37
0.70
1.75
2.90
4.18
5.55
6.84
7.89
8.63
9.14
9.61
10.19
10.94
11.74
12.37
12.67
12.57
12.11
11.44
10.65
9.84
9.06
8.29
7.54
6.77
5.94
4.95
3.76
2.37
0.86
-0.65
-2.05
-3.24
-4.18
-4.89
-5.41
-5.81
-6.12
-6.34
-6.43
-6.27
-5.75
-4.79
-3.39
-1.63
0.31
2.19
3.80
5.02
5.78
6.16
6.25
6.18
6.05
5.87
5.59
5.18
4.61
3.93
3.21
2.58
2.11
1.82
1.68
1.64
1.62
1.59
1.53
1.43
1.27
1.04
0.72
0.38
0.06
-0.20
-0.40
-0.60
-0.90
-1.33
-1.85
-2.36
-2.72
-2.86
-2.83
-2.72
-2.66
-2.72
-2.89
-3.11
-3.31
-3.48
-3.63
-3.81
-4.00
-4.14
-4.11
-3.80
-3.18
-2.32
-1.42
-0.66
-0.20
-0.01
0.04
0.18
0.57
1.22
1.95
2.52
2.75
2.63
2.32
2.03
1.88
1.83
1.72
1.38
0.77
0.00
-0.73
-1.28
-1.61
-1.84
-2.09
-2.39
-2.68
-2.79
-2.62
-2.20
-1.70
-1.37
-1.41
-1.84
-2.56
-3.31
-3.91
-4.23
-4.27
-4.10
-3.83
-3.57
-3.42
-3.42
-3.61
-3.98
-4.46
-4.95
-5.33
-5.52
-5.46
-5.15
-4.61
-3.87
-3.00
-2.08
-1.21
-0.49
0.04
0.39
0.68
1.01
1.44
1.97
2.51
3.00
3.41
3.75
4.06
4.34
4.55
4.65
4.60
4.45
4.27
4.08
3.89
3.64
3.26
2.78
2.27
1.84
1.58
1.49
1.47
1.40
1.21
0.87
0.43
-0.03
-0.45
-0.82
-1.16
-1.47
-1.77
-2.04
-2.26
-2.44
-2.60
-2.80
-3.09
-3.50
-3.97
-4.36
-4.51
-4.29
-3.65
-2.66
-1.45
-0.17
1.07
2.20
3.20
4.10
4.90
5.65
6.37
7.10
7.79
8.41
8.86
9.03
8.90
8.46
7.77
6.93
6.03
5.16
4.39
3.71
3.07
2.39
1.63
0.78
-0.15
-1.15
-2.20
-3.30
-4.43
-5.50
-6.37
-6.93
-7.16
-7.15
-7.07
-7.09
-7.30
-7.64
-7.98
-8.15
-8.06
-7.70
-7.16
-6.58
-6.11
-5.81
-5.65
-5.50
-5.14
-4.36
-3.04
-1.17
1.08
3.40
5.38
6.71
7.26
7.21
7.02
7.28
8.39
10.40
12.91
15.24
16.76
17.22
16.93
16.64
17.33
19.79
24.41
30.97
38.61
45.86
50.82
51.53
46.64
36.01
21.06
4.54
-10.33
-21.04
-26.66
-28.05
-27.26
-26.46
-27.00
-29.00
-31.72
-34.17
-35.81
-36.65
-37.05
-37.29
-37.26
-36.47
-34.42
-30.89
-26.17
-20.91
-15.84
-11.47
-7.90
-4.94
-2.31
0.15
2.40
4.21
5.38
5.80
5.60
5.07
4.56
4.37
4.64
5.33
6.22
7.03
7.45
7.35
6.73
5.79
4.79
4.00
3.53
3.33
3.20
2.96
2.48
1.80
1.08
0.52
0.26
0.32
0.62
1.02
1.45
1.85
2.28
2.81
3.47
4.23
4.99
5.64
6.10
6.36
6.47
6.47
6.37
6.12
5.66
4.92
3.89
2.65
1.36
0.21
-0.62
-1.03
-1.00
-0.61
-0.03
0.53
0.91
1.06
1.02
0.90
0.81
0.80
0.87
0.94
0.94
0.83
0.60
0.30
0.00
-0.24
-0.38
-0.43
-0.43
-0.42
-0.45
-0.52
-0.59
-0.63
-0.68
-0.80
-1.06
-1.51
-2.11
-2.76
-3.32
-3.71
-3.93
-4.02
-4.09
-4.20
-4.34
-4.50
-4.63
-4.69
-4.72
-4.76
-4.82
-4.90
-4.94
-4.84
-4.50
-3.91
-3.12
-2.28
-1.50
-0.88
-0.41
0.02
0.51
1.14
1.86
2.57
3.13
3.43
3.49
3.39
3.24
3.09
2.93
2.75
2.55
2.38
2.33
2.46
2.74
3.10
3.43
3.64
3.74
3.76
3.77
3.80
3.86
3.95
4.04
4.11
4.11
4.01
3.79
3.44
2.97
2.39
1.67
0.77
-0.29
-1.39
-2.38
-3.10
-3.43
-3.40
-3.05
-2.47
-1.72
-0.83
0.12
0.96
1.54
1.74
1.58
1.16
0.57
-0.15
-1.04
-2.15
-3.38
-4.53
-5.27
-5.42
-4.98
-4.22
-3.46
-2.95
-2.75
-2.69
-2.60
-2.37
-2.03
-1.65
-1.33
-1.07
-0.81
-0.54
-0.30
-0.21
-0.37
-0.82
-1.44
-2.00
-2.30
-2.25
-1.91
-1.47
-1.14
-1.10
-1.36
-1.85
-2.43
-2.95
-3.35
-3.58
-3.61
-3.45
-3.10
-2.60
-2.05
-1.57
-1.23
-0.99
-0.75
-0.41
0.08
0.68
1.30
1.86
2.35
2.79
3.21
3.62
3.92
4.03
3.92
3.64
3.31
3.07
2.94
2.93
2.95
2.95
2.88
2.75
2.58
2.38
2.15
1.86
1.46
0.90
0.17
-0.67
-1.51
-2.26
-2.81
-3.14
-3.25
-3.22
-3.16
-3.15
-3.25
-3.49
-3.84
-4.29
-4.80
-5.36
-5.91
-6.37
-6.65
-6.65
-6.36
-5.86
-5.30
-4.82
-4.52
-4.36
-4.23
-4.01
-3.65
-3.19
-2.75
-2.46
-2.38
-2.50
-2.76
-3.06
-3.38
-3.69
-4.02
-4.39
-4.85
-5.41
-6.09
-6.91
-7.88
-9.05
-10.38
-11.76
-13.03
-13.97
-14.46
-14.53
-14.36
-14.24
-14.31
-14.41
-14.08
-12.65
-9.61
-4.84
1.24
7.83
14.02
19.11
22.74
24.89
25.72
25.48
24.39
22.70
20.68
18.62
16.82
15.43
14.49
13.89
13.44
12.93
12.22
11.29
10.21
9.16
8.33
7.85
7.70
7.72
7.62
7.09
5.95
4.22
2.13
0.05
-1.60
-2.49
-2.45
-1.55
-0.09
1.46
2.63
3.07
2.71
1.74
0.57
-0.41
-0.97
-1.14
-1.14
-1.24
-1.64
-2.39
-3.41
-4.56
-5.72
-6.82
-7.84
-8.78
-9.63
-10.39
-11.06
-11.67
-12.27
-12.91
-13.57
-14.09
-14.20
-13.48
-11.60
-8.47
-4.32
0.27
4.62
8.12
10.47
11.72
12.14
12.13
11.99
11.94
12.04
12.32
12.72
13.19
13.65
14.02
14.27
14.43
14.54
14.69
14.90
15.15
15.36
15.47
15.44
15.28
15.01
14.69
14.37
14.07
13.84
13.72
13.69
13.66
13.43
12.71
11.19
8.69
5.18
0.85
-3.93
-8.68
-12.93
-16.35
-18.79
-20.27
-20.97
-21.09
-20.80
-20.22
-19.40
-18.34
-17.07
-15.65
-14.16
-12.67
-11.20
-9.73
-8.21
-6.66
-5.12
-3.70
-2.49
-1.50
-0.67
0.09
0.88
1.68
2.40
2.91
3.09
2.94
2.53
1.98
1.39
0.77
0.09
-0.67
-1.52
-2.43
-3.34
-4.16
-4.82
-5.28
-5.56
-5.72
-5.84
-5.96
-6.09
-6.18
-6.15
-5.96
-5.58
-5.06
-4.48
-3.87
-3.19
-2.32
-1.18
0.26
1.90
3.53
4.92
5.90
6.42
6.55
6.44
6.23
5.99
5.78
5.61
5.53
5.57
5.74
6.00
6.23
6.32
6.17
5.77
5.19
4.55
3.93
3.42
3.01
2.66
2.32
1.96
1.58
1.25
1.03
0.96
1.02
1.07
1.00
0.71
0.18
-0.46
-1.07
-1.53
-1.78
-1.84
-1.85
-1.91
-2.14
-2.58
-3.20
-3.93
-4.68
-5.34
-5.84
-6.11
-6.13
-5.85
-5.27
-4.40
-3.28
-2.06
-0.87
0.13
0.86
1.32
1.56
1.65
1.68
1.68
1.68
1.67
1.64
1.54
1.36
1.13
0.94
0.93
1.21
1.80
2.59
3.36
3.88
3.97
3.61
2.88
1.98
1.12
0.49
0.20
0.27
0.62
1.11
1.52
1.65
1.34
0.60
-0.39
-1.31
-1.84
-1.73
-0.95
0.33
1.81
3.16
4.18
4.75
4.88
4.64
4.10
3.35
2.50
1.66
0.98
0.58
0.49
0.68
1.05
1.44
1.72
1.85
1.88
1.97
2.23
2.75
3.40
3.98
4.24
4.05
3.46
2.69
1.99
1.56
1.41
1.41
1.37
1.17
0.75
0.13
-0.61
-1.48
-2.47
-3.60
-4.83
-6.04
-7.03
-7.62
-7.70
-7.28
-6.47
-5.47
-4.47
-3.51
-2.56
-1.55
-0.43
0.76
1.85
2.69
3.19
3.40
3.47
3.54
3.68
3.82
3.86
3.69
3.34
2.94
2.66
2.60
2.74
2.95
3.05
2.88
2.36
1.51
0.38
-0.99
-2.54
-4.23
-5.97
-7.62
-9.01
-9.99
-10.46
-10.44
-10.03
-9.40
-8.76
-8.28
-8.02
-7.95
-7.96
-7.90
-7.66
-7.21
-6.57
-5.85
-5.13
-4.48
-3.87
-3.26
-2.56
-1.75
-0.84
0.13
1.07
1.86
2.46
2.84
3.03
3.11
3.16
3.19
3.16
3.01
2.67
2.13
1.45
0.75
0.11
-0.46
-0.98
-1.52
-2.07
-2.60
-3.04
-3.39
-3.71
-4.10
-4.61
-5.25
-5.92
-6.49
-6.87
-7.03
-6.98
-6.74
-6.35
-5.80
-5.13
-4.36
-3.56
-2.76
-1.98
-1.25
-0.60
-0.10
0.23
0.43
0.63
1.03
1.76
2.84
4.14
5.44
6.55
7.39
7.94
8.28
8.45
8.45
8.31
8.02
7.65
7.25
6.87
6.52
6.19
5.86
5.51
5.11
4.59
3.86
2.89
1.69
0.43
-0.68
-1.44
-1.80
-1.84
-1.76
-1.77
-1.96
-2.33
-2.76
-3.14
-3.38
-3.47
-3.44
-3.27
-2.95
-2.50
-1.97
-1.44
-1.01
-0.70
-0.42
-0.01
0.65
1.58
2.63
3.52
4.04
4.09
3.79
3.42
3.24
3.40
3.86
4.42
4.91
5.18
5.25
5.24
5.25
5.30
5.31
5.16
4.73
4.05
3.26
2.54
2.06
1.81
1.68
1.51
1.20
0.79
0.45
0.33
0.44
0.65
0.73
0.47
-0.19
-1.15
-2.22
-3.19
-3.95
-4.45
-4.71
-4.70
-4.44
-3.92
-3.21
-2.40
-1.63
-0.95
-0.36
0.20
0.84
1.58
2.39
3.13
3.65
3.84
3.69
3.31
2.83
2.39
2.03
1.74
1.47
1.21
1.02
1.02
1.23
1.60
1.97
2.19
2.16
1.94
1.70
1.60
1.72
2.02
2.41
2.76
2.97
3.01
2.88
2.52
1.90
0.99
-0.19
-1.58
-3.08
-4.57
-5.96
-7.18
-8.19
-8.94
-9.43
-9.66
-9.69
-9.58
-9.39
-9.10
-8.64
-7.92
-6.88
-5.57
-4.13
-2.79
-1.72
-1.00
-0.58
-0.31
-0.06
0.21
0.45
0.59
0.61
0.55
0.53
0.61
0.81
1.02
1.13
1.08
0.90
0.68
0.53
0.46
0.41
0.30
0.08
-0.20
-0.45
-0.55
-0.45
-0.17
0.24
0.72
1.27
1.86
2.48
3.06
3.49
3.67
3.52
2.99
2.12
0.99
-0.29
-1.61
-2.87
-4.01
-4.98
-5.71
-6.12
-6.12
-5.68
-4.84
-3.73
-2.54
-1.48
-0.69
-0.21
0.02
0.09
0.10
0.15
0.26
0.44
0.64
0.80
0.84
0.72
0.45
0.10
-0.26
-0.58
-0.85
-1.07
-1.23
-1.30
-1.25
-1.09
-0.87
-0.67
-0.57
-0.59
-0.71
-0.84
-0.91
-0.89
-0.78
-0.62
-0.51
-0.50
-0.65
-0.97
-1.45
-2.04
-2.61
-3.07
-3.32
-3.32
-3.09
-2.68
-2.18
-1.64
-1.10
-0.59
-0.11
0.30
0.65
0.94
1.19
1.43
1.67
1.92
2.17
2.36
2.46
2.45
2.38
2.33
2.41
2.67
3.09
3.53
3.84
3.86
3.53
2.92
2.18
1.49
0.99
0.72
0.62
0.57
0.47
0.25
-0.08
-0.43
-0.72
-0.86
-0.86
-0.77
-0.70
-0.75
-0.96
-1.32
-1.70
-1.99
-2.11
-2.05
-1.85
-1.61
-1.37
-1.12
-0.80
-0.38
0.13
0.65
1.08
1.40
1.62
1.81
2.02
2.24
2.41
2.47
2.42
2.30
2.17
2.08
2.01
1.90
1.74
1.57
1.47
1.56
1.87
2.32
2.77
3.05
3.07
2.85
2.48
2.06
1.68
1.32
0.94
0.46
-0.15
-0.89
-1.71
-2.53
-3.25
-3.81
-4.21
-4.50
-4.77
-5.13
-5.61
-6.14
-6.57
-6.72
-6.47
-5.83
-4.91
-3.89
-2.91
-2.07
-1.33
-0.61
0.17
0.99
1.81
2.50
2.98
3.24
3.34
3.41
3.55
3.81
4.14
4.45
4.67
4.74
4.70
4.57
4.36
4.05
3.63
3.10
2.52
1.98
1.55
1.23
0.99
0.79
0.57
0.32
0.06
-0.20
-0.49
-0.87
-1.40
-2.12
-3.01
-3.98
-4.92
-5.72
-6.31
-6.66
-6.77
-6.62
-6.22
-5.54
-4.60
-3.49
-2.33
-1.30
-0.55
-0.11
0.07
0.17
0.35
0.71
1.24
1.78
2.17
2.28
2.11
1.75
1.34
0.93
0.56
0.21
-0.06
-0.20
-0.12
0.16
0.53
0.75
0.62
0.03
-0.91
-1.98
-2.94
-3.63
-4.01
-4.13
-4.05
-3.82
-3.50
-3.20
-3.03
-3.13
-3.50
-4.05
-4.59
-4.93
-4.98
-4.82
-4.58
-4.43
-4.41
-4.43
-4.36
-4.05
-3.48
-2.69
-1.80
-0.90
-0.03
0.85
1.76
2.65
3.41
3.92
4.09
3.96
3.68
3.46
3.47
3.74
4.19
4.65
5.00
5.16
5.16
5.08
4.99
4.92
4.83
4.66
4.36
3.89
3.31
2.65
1.97
1.31
0.70
0.16
-0.31
-0.72
-1.09
-1.44
-1.79
-2.16
-2.53
-2.95
-3.42
-3.90
-4.35
-4.66
-4.72
-4.52
-4.10
-3.57
-3.02
-2.46
-1.85
-1.10
-0.20
0.80
1.80
2.69
3.43
3.97
4.33
4.52
4.57
4.56
4.56
4.69
4.95
5.31
5.64
5.84
5.88
5.81
5.71
5.60
5.46
5.19
4.70
4.01
3.22
2.51
2.04
1.89
1.98
2.11
2.08
1.70
0.95
-0.06
-1.14
-2.09
-2.76
-3.13
-3.25
-3.22
-3.13
-3.02
-2.93
-2.89
-2.91
-2.98
-3.05
-3.02
-2.84
-2.45
-1.87
-1.16
-0.40
0.34
0.99
1.52
1.92
2.23
2.54
2.93
3.44
4.02
4.53
4.84
4.87
4.64
4.30
3.99
3.80
3.72
3.68
3.61
3.47
3.27
3.05
2.80
2.50
2.13
1.64
1.04
0.38
-0.29
-0.90
-1.44
-1.91
-2.32
-2.68
-2.98
-3.24
-3.47
-3.73
-4.06
-4.46
-4.92
-5.40
-5.89
-6.37
-6.79
-7.08
-7.13
-6.84
-6.20
-5.33
-4.37
-3.46
-2.66
-1.88
-1.05
-0.11
0.88
1.76
2.41
2.78
2.95
3.06
3.26
3.62
4.10
4.58
4.91
4.99
4.81
4.42
3.91
3.37
2.86
2.43
2.12
1.96
1.98
2.18
2.51
2.88
3.19
3.35
3.33
3.14
2.84
2.50
2.17
1.89
1.63
1.33
0.89
0.17
-0.88
-2.27
-3.84
-5.39
-6.68
-7.51
-7.81
-7.64
-7.13
-6.43
-5.68
-4.93
-4.15
-3.33
-2.43
-1.49
-0.54
0.37
1.24
2.06
2.81
3.42
3.82
3.96
3.87
3.68
3.55
3.56
3.70
3.85
3.84
3.59
3.12
2.58
2.14
1.88
1.83
1.88
1.89
1.74
1.41
0.95
0.47
0.03
-0.35
-0.75
-1.26
-1.93
-2.73
-3.55
-4.32
-4.96
-5.47
-5.87
-6.14
-6.22
-6.03
-5.54
-4.76
-3.79
-2.71
-1.62
-0.58
0.36
1.17
1.81
2.29
2.65
2.94
3.21
3.47
3.69
3.86
3.97
4.04
4.12
4.21
4.27
4.26
4.13
3.87
3.57
3.30
3.16
3.15
3.22
3.27
3.22
3.01
2.64
2.16
1.65
1.16
0.76
0.48
0.32
0.25
0.22
0.16
0.01
-0.27
-0.64
-1.07
-1.57
-2.16
-2.87
-3.75
-4.76
-5.82
-6.86
-7.79
-8.58
-9.20
-9.61
-9.74
-9.54
-9.00
-8.19
-7.22
-6.20
-5.21
-4.21
-3.13
-1.94
-0.69
0.48
1.43
2.04
2.33
2.42
2.52
2.78
3.23
3.79
4.30
4.62
4.73
4.67
4.55
4.41
4.25
4.03
3.73
3.41
3.14
2.97
2.91
2.89
2.83
2.72
2.60
2.55
2.62
2.76
2.85
2.75
2.37
1.73
0.91
0.06
-0.72
-1.39
-2.01
-2.65
-3.36
-4.14
-4.91
-5.54
-5.93
-6.02
-5.82
-5.37
-4.75
-4.01
-3.20
-2.34
-1.47
-0.63
0.12
0.70
1.10
1.35
1.54
1.76
2.09
2.53
3.00
3.39
3.60
3.59
3.41
3.11
2.78
2.49
2.29
2.23
2.35
2.58
2.86
3.08
3.19
3.20
3.18
3.21
3.30
3.39
3.36
3.11
2.61
1.91
1.13
0.33
-0.44
-1.20
-1.96
-2.69
-3.36
-3.90
-4.33
-4.69
-5.06
-5.48
-5.93
-6.29
-6.42
-6.21
-5.65
-4.81
-3.83
-2.82
-1.84
-0.88
0.09
1.08
2.02
2.85
3.47
3.81
3.89
3.76
3.51
3.24
2.99
2.83
2.76
2.79
2.90
3.03
3.13
3.11
2.91
2.52
1.96
1.33
0.70
0.13
-0.35
-0.76
-1.13
-1.48
-1.78
-1.99
-2.09
-2.12
-2.10
-2.10
-2.11
-2.11
-2.05
-1.91
-1.74
-1.61
-1.61
-1.80
-2.18
-2.69
-3.26
-3.78
-4.13
-4.25
-4.10
-3.72
-3.22
-2.74
-2.39
-2.27
-2.37
-2.62
-2.87
-3.01
-2.93
-2.62
-2.09
-1.45
-0.77
-0.14
0.38
0.80
1.15
1.45
1.70
1.89
1.98
1.95
1.82
1.66
1.54
1.50
1.55
1.65
1.81
2.02
2.33
2.72
3.13
3.46
3.60
3.45
3.01
2.35
1.59
0.86
0.24
-0.25
-0.67
-1.15
-1.80
-2.68
-3.76
-4.87
-5.81
-6.40
-6.55
-6.26
-5.65
-4.85
-4.01
-3.24
-2.64
-2.20
-1.88
-1.57
-1.13
-0.52
0.24
1.06
1.78
2.31
2.64
2.82
2.95
3.13
3.42
3.80
4.22
4.60
4.83
4.85
4.66
4.33
3.95
3.58
3.24
2.87
2.42
1.90
1.39
1.01
0.85
0.89
1.04
1.13
1.05
0.73
0.20
-0.48
-1.24
-2.00
-2.68
-3.22
-3.56
-3.73
-3.83
-4.01
-4.39
-5.05
-5.92
-6.85
-7.68
-8.26
-8.50
-8.38
-7.94
-7.25
-6.36
-5.34
-4.19
-2.92
-1.54
-0.10
1.29
2.50
3.40
3.95
4.18
4.22
4.19
4.20
4.31
4.49
4.73
4.97
5.15
5.25
5.28
5.25
5.16
4.99
4.65
4.12
3.41
2.66
2.05
1.69
1.63
1.73
1.79
1.63
1.18
0.47
-0.34
-1.12
-1.76
-2.22
-2.52
-2.70
-2.82
-2.93
-3.08
-3.28
-3.53
-3.79
-4.02
-4.17
-4.23
-4.17
-3.98
-3.65
-3.21
-2.70
-2.20
-1.78
-1.45
-1.18
-0.88
-0.50
0.00
0.58
1.15
1.60
1.88
2.02
2.07
2.08
2.12
2.18
2.25
2.36
2.50
2.66
2.82
2.92
2.92
2.79
2.60
2.42
2.34
2.31
2.25
2.04
1.64
1.14
0.68
0.41
0.36
0.41
0.42
0.27
-0.03
-0.35
-0.55
-0.57
-0.52
-0.54
-0.76
-1.21
-1.74
-2.19
-2.40
-2.32
-2.00
-1.52
-0.95
-0.32
0.39
1.16
1.97
2.71
3.32
3.70
3.87
3.86
3.72
3.52
3.26
2.94
2.55
2.11
1.71
1.41
1.26
1.30
1.48
1.73
1.96
2.07
1.99
1.67
1.15
0.53
-0.02
-0.36
-0.43
-0.29
-0.06
0.17
0.42
0.75
1.22
1.82
2.38
2.67
2.53
1.92
0.99
-0.01
-0.85
-1.39
-1.67
-1.85
-2.07
-2.43
-2.93
-3.52
-4.14
-4.76
-5.41
-6.06
-6.65
-7.02
-7.03
-6.57
-5.69
-4.56
-3.43
-2.48
-1.78
-1.25
-0.76
-0.18
0.56
1.40
2.26
2.99
3.50
3.76
3.81
3.73
3.68
3.74
3.98
4.35
4.79
5.18
5.44
5.55
5.52
5.40
5.20
4.95
4.66
4.33
3.97
3.56
3.02
2.34
1.52
0.62
-0.27
-1.07
-1.77
-2.38
-2.92
-3.42
-3.88
-4.30
-4.68
-5.05
-5.42
-5.77
-6.05
-6.18
-6.08
-5.79
-5.34
-4.85
-4.39
-3.99
-3.59
-3.08
-2.40
-1.54
-0.58
0.32
1.03
1.51
1.79
1.98
2.16
2.36
2.53
2.61
2.56
2.41
2.21
2.01
1.83
1.66
1.50
1.38
1.33
1.37
1.45
1.53
1.53
1.41
1.16
0.82
0.45
0.08
-0.25
-0.52
-0.77
-1.05
-1.45
-2.02
-2.76
-3.65
-4.58
-5.45
-6.18
-6.73
-7.08
-7.30
-7.42
-7.49
-7.52
-7.50
-7.39
-7.18
-6.89
-6.59
-6.34
-6.13
-5.86
-5.44
-4.75
-3.80
-2.69
-1.64
-0.86
-0.52
-0.60
-1.00
-1.50
-1.91
-2.10
-2.10
-2.01
-1.98
-2.10
-2.34
-2.60
-2.79
-2.94
-3.20
-3.76
-4.72
-5.97
-7.22
-8.11
-8.40
-8.10
-7.42
-6.67
-6.12
-5.84
-5.77
-5.75
-5.65
-5.44
-5.16
-4.89
-4.66
-4.48
-4.31
-4.12
-3.89
-3.62
-3.29
-2.84
-2.19
-1.29
-0.17
1.06
2.25
3.35
4.37
5.41
6.57
7.86
9.18
10.34
11.21
11.76
12.07
12.28
12.47
12.63
12.65
12.43
11.89
11.06
10.07
9.08
8.28
7.74
7.49
7.44
7.45
7.37
7.08
6.53
5.80
5.02
4.37
3.99
3.92
4.07
4.26
4.30
4.07
3.58
2.93
2.30
1.81
1.47
1.23
0.98
0.67
0.36
0.16
0.19
0.51
1.07
1.71
2.22
2.48
2.42
2.10
1.68
1.34
1.22
1.33
1.59
1.86
2.03
2.05
2.00
1.99
2.08
2.32
2.68
3.07
3.46
3.79
4.06
4.24
4.31
4.25
4.09
3.89
3.76
3.80
4.07
4.61
5.36
6.24
7.12
7.86
8.38
8.69
8.83
8.96
9.19
9.61
10.30
11.30
12.64
14.30
16.18
18.06
19.67
20.78
21.30
21.27
20.81
20.03
18.96
17.51
15.59
13.19
10.41
7.46
4.55
1.87
-0.48
-2.40
-3.84
-4.72
-5.01
-4.84
-4.41
-4.04
-4.01
-4.51
-5.55
-7.03
-8.73
-10.49
-12.15
-13.63
-14.88
-15.85
-16.47
-16.65
-16.36
-15.65
-14.64
-13.57
-12.65
-12.01
-11.66
-11.50
-11.36
-11.12
-10.77
-10.38
-10.05
-9.83
-9.63
-9.29
-8.64
-7.60
-6.18
-4.51
-2.72
-0.88
0.99
2.87
4.68
6.23
7.34
7.86
7.81
7.36
6.76
6.22
5.88
5.73
5.70
5.67
5.58
5.38
5.04
4.55
3.92
3.15
2.29
1.40
0.51
-0.31
-1.04
-1.66
-2.14
-2.51
-2.80
-3.06
-3.34
-3.64
-3.98
-4.37
-4.81
-5.33
-5.93
-6.58
-7.22
-7.75
-8.06
-8.13
-7.94
-7.52
-6.88
-6.02
-4.97
-3.74
-2.40
-1.04
0.23
1.27
1.97
2.30
2.32
2.17
2.01
1.93
1.93
1.88
1.70
1.35
0.93
0.59
0.46
0.54
0.78
1.04
1.22
1.30
1.32
1.33
1.34
1.32
1.19
0.88
0.33
-0.48
-1.48
-2.52
-3.45
-4.20
-4.76
-5.23
-5.74
-6.34
-7.01
-7.62
-8.06
-8.28
-8.35
-8.37
-8.45
-8.61
-8.83
-9.03
-9.13
-9.09
-8.86
-8.42
-7.76
-6.91
-5.98
-5.13
-4.45
-4.01
-3.73
-3.47
-3.10
-2.56
-1.83
-0.98
-0.09
0.77
1.52
2.12
2.53
2.75
2.83
2.84
2.84
2.81
2.72
2.54
2.30
2.14
2.23
2.66
3.39
4.25
4.99
5.41
5.46
5.19
4.71
4.12
3.46
2.75
2.03
1.41
1.00
0.89
1.03
1.32
1.59
1.73
1.72
1.65
1.64
1.82
2.26
2.95
3.79
4.58
5.15
5.35
5.10
4.44
3.46
2.30
1.10
-0.04
-1.02
-1.81
-2.41
-2.85
-3.22
-3.60
-4.01
-4.41
-4.69
-4.75
-4.53
-4.06
-3.47
-2.87
-2.38
-2.03
-1.81
-1.71
-1.73
-1.88
-2.16
-2.54
-2.91
-3.18
-3.31
-3.37
-3.51
-3.91
-4.64
-5.63
-6.64
-7.33
-7.40
-6.63
-5.02
-2.73
-0.08
2.49
4.59
5.91
6.37
6.09
5.36
4.51
3.74
3.13
2.61
2.14
1.71
1.39
1.28
1.37
1.59
1.78
1.81
1.64
1.30
0.89
0.51
0.22
0.08
0.10
0.25
0.49
0.73
0.93
1.09
1.22
1.36
1.46
1.46
1.24
0.77
0.11
-0.60
-1.19
-1.54
-1.63
-1.54
-1.42
-1.39
-1.54
-1.89
-2.37
-2.90
-3.41
-3.82
-4.12
-4.26
-4.18
-3.80
-3.10
-2.12
-1.03
-0.04
0.64
0.93
0.87
0.60
0.23
-0.19
-0.70
-1.32
-2.00
-2.55
-2.79
-2.58
-1.95
-1.05
-0.09
0.77
1.48
2.09
