1527729199.00
64.000000
-0.00
-0.00
-0.00
-0.00
-0.00
-0.00
-0.00
-0.00
-0.00
-0.00
0.00
0.01
0.01
-0.00
-0.03
-0.05
-0.05
0.00
0.13
0.36
0.66
1.01
1.37
1.72
2.06
2.40
2.79
3.24
3.80
4.42
5.06
5.66
6.20
6.68
7.15
7.68
8.31
9.14
10.09
11.04
11.88
12.56
13.14
13.76
14.65
15.96
17.92
20.32
22.91
25.38
27.58
29.57
31.67
34.31
37.82
42.57
48.19
54.16
59.86
64.92
69.40
73.79
78.83
85.06
93.04
102.25
111.86
120.96
128.93
135.81
142.21
149.51
156.45
165.30
176.63
190.51
205.66
219.10
226.48
223.23
206.04
174.14
129.98
77.33
20.42
-37.72
-95.68
-153.22
-210.33
-266.49
-320.59
-371.02
-416.93
-457.90
-493.74
-523.87
-546.97
-561.03
-563.82
-553.74
-530.28
-494.75
-449.76
-398.59
-344.42
-289.63
-235.54
-182.72
-131.47
-82.21
-36.00
5.82
41.89
71.21
93.28
108.22
116.82
120.78
122.79
126.11
133.79
147.51
166.69
188.54
209.04
224.43
232.61
233.50
228.57
219.77
208.62
195.91
182.00
167.31
152.57
138.70
126.39
115.74
106.28
97.19
87.77
77.80
67.60
57.88
49.32
42.43
37.01
32.52
28.29
23.89
19.21
14.52
10.23
6.76
4.28
2.74
1.84
1.19
0.47
-0.52
-1.78
-3.14
-4.35
-5.23
-5.73
-5.93
-5.97
-6.03
-6.20
-6.44
-6.66
-6.71
-6.50
-6.07
-5.56
-5.13
-4.89
-4.81
-4.73
-4.47
-3.94
-3.26
-2.64
-2.32
-2.38
-2.76
-3.25
-3.62
-3.77
-3.69
-3.49
-3.30
-3.23
-3.32
-3.55
-3.80
-3.96
-3.90
-3.60
-3.09
-2.51
-1.98
-1.59
-1.33
-1.15
-1.01
-0.89
-0.82
-0.78
-0.70
-0.49
-0.10
0.41
0.85
1.02
0.83
0.37
-0.11
-0.29
0.01
0.77
1.82
2.93
3.90
4.62
5.11
5.39
5.52
5.55
5.56
5.63
5.81
6.09
6.38
6.53
6.37
5.78
4.78
3.36
1.63
-0.25
-2.10
-3.82
-5.31
-6.57
-7.62
-8.44
-9.00
-9.25
-9.16
-8.77
-8.16
-7.49
-6.84
-6.27
-5.75
-5.25
-4.73
-4.21
-3.75
-3.42
-3.26
-3.25
-3.33
-3.40
-3.42
-3.34
-3.16
-2.90
-2.55
-2.10
-1.54
-0.94
-0.42
-0.16
-0.23
-0.61
-1.14
-1.58
-1.74
-1.57
-1.18
-0.77
-0.52
-0.50
-0.66
-0.88
-1.03
-1.08
-1.04
-0.97
-0.93
-0.95
-1.05
-1.20
-1.36
-1.50
-1.60
-1.67
-1.71
-1.74
-1.70
-1.52
-1.10
-0.37
0.67
1.91
3.14
4.11
4.64
4.60
4.07
3.21
2.29
1.56
1.18
1.19
1.50
1.97
2.41
2.73
2.92
3.01
3.04
3.05
3.03
2.95
2.84
2.72
2.62
2.56
2.51
2.46
2.37
2.27
2.19
2.16
2.20
2.30
2.45
2.67
2.98
3.38
3.87
4.41
5.00
5.61
6.27
7.01
7.88
8.94
10.23
11.76
13.53
15.56
17.85
20.44
23.34
26.49
29.76
32.92
35.79
38.29
40.52
42.77
45.37
48.53
52.20
56.11
59.73
62.44
63.54
62.37
58.42
51.51
41.93
30.52
18.43
6.89
-3.27
-11.75
-18.85
-25.13
-31.14
-37.10
-42.90
-48.21
-52.67
-56.00
-58.11
-58.98
-58.65
-57.21
-54.80
-51.66
-48.20
-44.89
-42.20
-40.32
-39.11
-38.10
-36.60
-34.05
-30.25
-25.45
-20.30
-15.50
-11.61
-8.78
-6.85
-5.39
-3.98
-2.35
-0.40
1.80
4.09
6.28
8.21
9.77
10.94
11.78
12.45
13.13
14.02
15.20
16.59
17.98
19.03
19.43
19.05
17.98
16.55
15.18
14.25
13.91
14.12
14.63
15.13
15.36
15.18
14.63
13.84
13.05
12.50
12.43
13.00
14.22
15.97
17.91
19.62
20.63
20.51
19.05
16.25
12.33
7.66
2.70
-2.11
-6.42
-9.98
-12.66
-14.45
-15.46
-15.88
-16.00
-16.10
-16.43
-17.21
-18.60
-20.76
-23.88
-28.08
-33.40
-39.66
-46.44
-53.17
-59.28
-64.43
-68.58
-72.06
-75.33
-78.82
-82.74
-87.05
-91.51
-95.85
-99.88
-103.48
-106.52
-108.74
-109.75
-109.04
-106.18
-100.96
-93.39
-83.73
-72.37
-59.76
-46.34
-32.56
-18.90
-5.86
6.10
16.61
25.44
32.56
38.08
42.28
45.45
47.86
49.64
50.77
51.12
50.56
49.10
46.93
44.38
41.79
39.40
37.29
35.40
33.63
31.99
30.52
29.32
28.39
27.62
26.85
25.95
24.91
23.87
23.00
22.47
22.37
22.66
23.23
23.87
24.38
24.50
24.08
23.07
21.58
19.86
18.19
16.75
15.54
14.44
13.30
12.05
10.75
9.54
8.60
8.00
7.73
7.67
7.68
7.65
7.54
7.28
6.87
6.28
5.51
4.63
3.75
2.99
2.39
1.91
1.43
0.84
0.10
-0.68
-1.35
-1.77
-1.90
-1.82
-1.65
-1.50
-1.32
-1.02
-0.46
0.43
1.55
2.70
3.66
4.27
4.55
4.64
4.73
4.98
5.45
6.06
6.70
7.23
7.58
7.73
7.74
7.68
7.60
7.55
7.56
7.64
7.79
7.91
7.92
7.69
7.17
6.35
5.28
4.06
2.81
1.60
0.49
-0.47
-1.27
-1.93
-2.48
-2.99
-3.53
-4.12
-4.76
-5.33
-5.71
-5.75
-5.33
-4.43
-3.17
-1.71
-0.28
0.95
1.88
2.54
3.04
3.49
3.94
4.33
4.58
4.62
4.45
4.14
3.83
3.64
3.61
3.77
4.03
4.32
4.55
4.66
4.60
4.39
4.10
3.79
3.50
3.22
2.84
2.30
1.57
0.74
-0.03
-0.60
-0.93
-1.12
-1.33
-1.71
-2.27
-2.87
-3.30
-3.37
-3.02
-2.35
-1.50
-0.64
0.16
0.90
1.66
2.47
3.29
4.05
4.64
5.01
5.18
5.25
5.28
5.37
5.50
5.65
5.76
5.81
5.76
5.63
5.44
5.22
5.01
4.83
4.71
4.63
4.55
4.41
4.16
3.79
3.33
2.82
2.34
1.90
1.48
1.00
0.41
-0.29
-1.00
-1.61
-2.04
-2.28
-2.39
-2.44
-2.42
-2.26
-1.85
-1.14
-0.19
0.85
1.77
2.47
2.92
3.22
3.49
3.80
4.18
4.57
4.89
5.10
5.20
5.21
5.24
5.32
5.50
5.74
6.01
6.25
6.45
6.60
6.70
6.73
6.63
6.36
5.89
5.28
4.62
4.05
3.66
3.48
3.47
3.52
3.49
3.31
2.91
2.31
1.57
0.76
-0.04
-0.75
-1.30
-1.62
-1.67
-1.45
-1.01
-0.48
0.06
0.50
0.82
1.03
1.18
1.34
1.54
1.78
2.02
2.19
2.25
2.22
2.15
2.10
2.16
2.32
2.60
2.94
3.32
3.69
3.98
4.10
3.97
3.59
3.04
2.45
1.94
1.56
1.26
0.97
0.64
0.27
-0.10
-0.41
-0.67
-0.93
-1.24
-1.65
-2.15
-2.68
-3.18
-3.58
-3.87
-4.04
-4.07
-3.96
-3.70
-3.28
-2.72
-2.08
-1.41
-0.82
-0.39
-0.16
-0.16
-0.30
-0.50
-0.62
-0.53
-0.16
0.45
1.19
1.88
2.34
2.48
2.30
1.89
1.37
0.89
0.54
0.39
0.45
0.70
1.04
1.32
1.41
1.21
0.73
0.05
-0.70
-1.37
-1.90
-2.24
-2.44
-2.51
-2.52
-2.51
-2.55
-2.70
-3.03
-3.55
-4.20
-4.85
-5.32
-5.43
-5.10
-4.35
-3.29
-2.13
-1.07
-0.24
0.31
0.60
0.69
0.64
0.52
0.35
0.19
0.06
-0.01
-0.04
-0.02
0.04
0.14
0.30
0.51
0.77
1.03
1.22
1.26
1.09
0.74
0.27
-0.19
-0.57
-0.78
-0.84
-0.78
-0.70
-0.63
-0.61
-0.64
-0.69
-0.77
-0.90
-1.13
-1.47
-1.91
-2.40
-2.87
-3.27
-3.56
-3.74
-3.84
-3.88
-3.85
-3.73
-3.49
-3.12
-2.60
-1.95
-1.21
-0.43
0.32
0.95
1.42
1.68
1.77
1.73
1.64
1.53
1.44
1.38
1.39
1.49
1.71
2.03
2.37
2.61
2.67
2.53
2.27
1.98
1.71
1.48
1.26
1.01
0.76
0.57
0.47
0.49
0.57
0.65
0.67
0.62
0.51
0.34
0.10
-0.21
-0.59
-1.02
-1.45
-1.85
-2.21
-2.57
-2.94
-3.31
-3.56
-3.60
-3.34
-2.79
-2.07
-1.35
-0.79
-0.45
-0.31
-0.27
-0.21
-0.07
0.12
0.33
0.50
0.59
0.62
0.59
0.53
0.43
0.32
0.21
0.12
0.07
0.05
0.10
0.24
0.48
0.78
1.09
1.29
1.28
1.04
0.61
0.09
-0.43
-0.87
-1.21
-1.45
-1.60
-1.67
-1.64
-1.58
-1.55
-1.64
-1.92
-2.37
-2.93
-3.51
-4.04
-4.48
-4.81
-5.02
-5.08
-4.93
-4.56
-3.98
-3.27
-2.51
-1.79
-1.12
-0.50
0.09
0.63
1.07
1.31
1.31
1.12
0.84
0.61
0.51
0.51
0.56
0.57
0.54
0.56
0.74
1.09
1.52
1.85
1.88
1.58
1.03
0.45
0.02
-0.16
-0.16
-0.09
-0.02
-0.02
-0.05
-0.09
-0.18
-0.37
-0.71
-1.20
-1.74
-2.20
-2.48
-2.56
-2.53
-2.55
-2.74
-3.16
-3.71
-4.28
-4.71
-4.94
-4.94
-4.73
-4.34
-3.77
-3.07
-2.29
-1.53
-0.88
-0.39
-0.07
0.12
0.20
0.17
0.03
-0.19
-0.42
-0.54
-0.45
-0.12
0.40
0.98
1.50
1.86
2.04
2.09
2.08
2.07
2.04
1.96
1.82
1.59
1.30
1.00
0.71
0.48
0.31
0.26
0.33
0.51
0.78
1.02
1.13
1.02
0.71
0.28
-0.17
-0.52
-0.70
-0.71
-0.61
-0.45
-0.32
-0.33
-0.52
-0.90
-1.41
-1.95
-2.35
-2.48
-2.27
-1.74
-1.00
-0.21
0.51
1.09
1.56
1.97
2.34
2.59
2.65
2.41
1.93
1.33
0.82
0.57
0.61
0.84
1.11
1.29
1.33
1.25
1.12
0.98
0.83
0.65
0.42
0.20
0.05
0.06
0.23
0.49
0.73
0.83
0.75
0.50
0.16
-0.18
-0.50
-0.79
-1.08
-1.33
-1.52
-1.59
-1.60
-1.63
-1.83
-2.29
-2.99
-3.81
-4.56
-5.08
-5.28
-5.11
-4.62
-3.83
-2.83
-1.71
-0.59
0.39
1.09
1.45
1.47
1.24
0.87
0.46
0.07
-0.24
-0.43
-0.42
-0.17
0.31
0.95
1.58
2.03
2.20
2.12
1.90
1.71
1.60
1.55
1.46
1.24
0.91
0.57
0.35
0.31
0.40
0.49
0.42
0.09
-0.47
-1.17
-1.87
-2.45
-2.85
-3.02
-3.01
-2.90
-2.81
-2.86
-3.11
-3.55
-4.06
-4.50
-4.77
-4.82
-4.69
-4.41
-4.02
-3.52
-2.94
-2.34
-1.78
-1.31
-0.96
-0.66
-0.36
-0.01
0.36
0.65
0.76
0.69
0.49
0.31
0.30
0.55
1.03
1.62
2.15
2.49
2.57
2.45
2.19
1.92
1.72
1.60
1.54
1.47
1.37
1.21
1.04
0.91
0.86
0.89
0.96
1.01
1.02
0.98
0.93
0.85
0.75
0.58
0.34
0.04
-0.30
-0.65
-1.02
-1.43
-1.90
-2.42
-2.95
-3.44
-3.85
-4.13
-4.19
-3.96
-3.38
-2.46
-1.30
-0.11
0.92
1.66
2.05
2.13
2.00
1.76
1.50
1.29
1.20
1.27
1.47
1.74
2.01
2.22
2.37
2.48
2.57
2.64
2.66
2.63
2.55
2.43
2.31
2.20
2.09
1.94
1.72
1.42
1.09
0.80
0.60
0.53
0.55
0.55
0.45
0.19
-0.19
-0.60
-0.96
-1.22
-1.45
-1.72
-2.10
-2.58
-3.07
-3.50
-3.78
-3.86
-3.73
-3.37
-2.79
-2.04
-1.20
-0.40
0.24
0.69
0.95
1.06
1.05
0.92
0.68
0.37
0.10
-0.01
0.16
0.59
1.17
1.72
2.10
2.29
2.34
2.31
2.27
2.20
2.06
1.84
1.57
1.33
1.20
1.19
1.28
1.38
1.42
1.34
1.15
0.89
0.60
0.33
0.09
-0.13
-0.36
-0.66
-1.03
-1.48
-1.98
-2.48
-2.94
-3.36
-3.77
-4.19
-4.66
-5.15
-5.58
-5.85
-5.88
-5.60
-5.03
-4.23
-3.33
-2.46
-1.74
-1.20
-0.81
-0.48
-0.16
0.20
0.55
0.85
1.07
1.20
1.28
1.37
1.46
1.51
1.51
1.46
1.40
1.43
1.63
1.98
2.41
2.77
2.93
2.80
2.47
2.09
1.82
1.77
1.89
2.04
2.02
1.75
1.26
0.74
0.37
0.27
0.35
0.45
0.37
0.03
-0.52
-1.13
-1.67
-2.03
-2.22
-2.29
-2.30
-2.29
-2.29
-2.30
-2.27
-2.14
-1.84
-1.31
-0.57
0.30
1.15
1.83
2.26
2.39
2.28
2.01
1.74
1.64
1.86
2.43
3.29
4.19
4.88
5.14
4.92
4.36
3.68
3.13
2.82
2.76
2.88
3.09
3.27
3.37
3.30
3.08
2.74
2.37
2.07
1.90
1.83
1.72
1.47
1.00
0.32
-0.48
-1.29
-2.01
-2.62
-3.14
-3.58
-3.96
-4.24
-4.38
-4.37
-4.21
-3.92
-3.52
-3.02
-2.45
-1.82
-1.20
-0.66
-0.28
-0.06
0.03
0.09
0.19
0.37
0.61
0.88
1.13
1.35
1.57
1.75
1.87
1.91
1.85
1.74
1.65
1.66
1.79
1.97
2.13
2.18
2.09
1.87
1.57
1.24
0.90
0.57
0.26
-0.03
-0.30
-0.55
-0.80
-1.04
-1.25
-1.39
-1.40
-1.29
-1.11
-0.96
-0.98
-1.27
-1.84
-2.60
-3.37
-3.98
-4.29
-4.24
-3.88
-3.33
-2.71
-2.09
-1.51
-1.02
-0.64
-0.39
-0.30
-0.32
-0.34
-0.25
0.05
0.54
1.14
1.69
2.09
2.27
2.26
2.08
1.80
1.49
1.21
1.03
0.99
1.10
1.33
1.57
1.76
1.84
1.83
1.77
1.68
1.54
1.31
0.96
0.54
0.12
-0.24
-0.51
-0.71
-0.93
-1.23
-1.62
-2.07
-2.49
-2.81
-3.03
-3.18
-3.32
-3.48
-3.71
-3.98
-4.24
-4.39
-4.32
-3.94
-3.18
-2.11
-0.88
0.31
1.25
1.86
2.12
2.14
2.03
1.90
1.78
1.75
1.79
1.93
2.17
2.49
2.83
3.14
3.38
3.53
3.60
3.63
3.65
3.65
3.61
3.49
3.26
2.91
2.48
2.02
1.60
1.29
1.11
1.04
1.02
0.98
0.88
0.71
0.52
0.37
0.29
0.24
0.13
-0.15
-0.64
-1.32
-2.08
-2.78
-3.32
-3.65
-3.77
-3.69
-3.42
-2.93
-2.23
-1.34
-0.36
0.54
1.23
1.59
1.62
1.40
1.09
0.84
0.75
0.83
1.02
1.26
1.50
1.75
2.02
2.28
2.46
2.49
2.33
2.02
1.67
1.39
1.23
1.16
1.11
1.01
0.86
0.71
0.63
0.64
0.70
0.71
0.56
0.19
-0.36
-1.00
-1.59
-2.02
-2.26
-2.33
-2.29
-2.24
-2.24
-2.36
-2.63
-3.04
-3.48
-3.83
-3.95
-3.77
-3.32
-2.73
-2.13
-1.63
-1.22
-0.87
-0.47
-0.04
0.37
0.64
0.68
0.53
0.30
0.18
0.28
0.62
1.11
1.59
1.96
2.22
2.42
2.62
2.80
2.87
2.69
2.21
1.48
0.64
-0.12
-0.67
-0.93
-0.93
-0.77
-0.58
-0.51
-0.61
-0.91
-1.32
-1.75
-2.08
-2.28
-2.41
-2.54
-2.78
-3.13
-3.53
-3.91
-4.22
-4.50
-4.79
-5.12
-5.41
-5.49
-5.20
-4.46
-3.35
-2.10
-0.98
-0.17
0.32
0.59
0.84
1.18
1.63
2.10
2.47
2.66
2.64
2.49
2.29
2.11
1.95
1.82
1.69
1.59
1.59
1.78
2.20
2.84
3.57
4.22
4.58
4.55
4.13
3.44
2.66
1.97
1.49
1.24
1.21
1.31
1.51
1.72
1.87
1.89
1.74
1.42
0.97
0.49
0.06
-0.27
-0.52
-0.73
-0.99
-1.35
-1.84
-2.37
-2.82
-3.01
-2.83
-2.26
-1.45
-0.60
0.10
0.58
0.88
1.10
1.29
1.45
1.50
1.43
1.26
1.13
1.15
1.32
1.59
1.81
1.91
1.92
1.92
2.03
2.23
2.44
2.52
2.37
1.99
1.51
1.03
0.67
0.45
0.33
0.24
0.15
0.02
-0.14
-0.30
-0.45
-0.57
-0.68
-0.81
-1.03
-1.42
-1.96
-2.60
-3.20
-3.64
-3.85
-3.86
-3.78
-3.69
-3.58
-3.44
-3.20
-2.84
-2.40
-1.94
-1.50
-1.09
-0.72
-0.36
-0.01
0.30
0.54
0.71
0.82
0.91
0.98
1.04
1.10
1.18
1.29
1.39
1.47
1.50
1.51
1.55
1.68
1.91
2.14
2.23
2.07
1.61
0.97
0.35
-0.09
-0.26
-0.22
-0.11
-0.08
-0.20
-0.46
-0.79
-1.14
-1.46
-1.76
-2.07
-2.43
-2.88
-3.43
-4.09
-4.80
-5.45
-5.94
-6.16
-6.05
-5.59
-4.87
-3.97
-3.02
-2.11
-1.33
-0.73
-0.32
-0.10
-0.02
-0.03
-0.04
0.03
0.23
0.59
1.13
1.77
2.43
2.99
3.33
3.37
3.15
2.80
2.45
2.23
2.18
2.25
2.32
2.29
2.10
1.79
1.46
1.21
1.10
1.10
1.12
1.07
0.89
0.58
0.21
-0.12
-0.34
-0.44
-0.48
-0.57
-0.78
-1.16
-1.69
-2.31
-3.00
-3.67
-4.23
-4.51
-4.37
-3.77
-2.80
-1.65
-0.59
0.20
0.66
0.87
0.94
1.00
1.06
1.07
0.98
0.82
0.65
0.62
0.80
1.18
1.65
2.06
2.27
2.25
2.06
1.84
1.74
1.84
2.12
2.47
2.79
2.97
2.97
2.83
2.60
2.36
2.14
1.98
1.82
1.62
1.32
0.91
0.42
-0.10
-0.57
-0.90
-1.10
-1.21
-1.31
-1.48
-1.79
-2.23
-2.75
-3.22
-3.50
-3.44
-2.98
-2.13
-1.06
0.03
0.92
1.45
1.58
1.35
0.88
0.29
-0.27
-0.67
-0.80
-0.64
-0.28
0.13
0.41
0.46
0.31
0.09
-0.00
0.16
0.58
1.11
1.58
1.80
1.75
1.47
1.10
0.71
0.36
0.04
-0.29
-0.60
-0.84
-0.94
-0.88
-0.74
-0.67
-0.79
-1.14
-1.62
-2.08
-2.38
-2.48
-2.46
-2.43
-2.45
-2.47
-2.40
-2.13
-1.64
-0.98
-0.31
0.25
0.62
0.83
0.96
1.09
1.26
1.42
1.52
1.50
1.38
1.21
1.08
1.06
1.16
1.37
1.62
1.84
1.98
2.00
1.86
1.58
1.23
0.87
0.60
0.44
0.38
0.34
0.25
0.05
-0.24
-0.61
-0.98
-1.31
-1.53
-1.61
-1.58
-1.48
-1.41
-1.46
-1.70
-2.17
-2.85
-3.67
-4.51
-5.24
-5.72
-5.81
-5.47
-4.73
-3.70
-2.55
-1.45
-0.53
0.15
0.58
0.79
0.84
0.81
0.76
0.74
0.79
0.93
1.16
1.46
1.79
2.08
2.27
2.34
2.27
2.12
1.92
1.67
1.38
1.06
0.77
0.57
0.49
0.51
0.54
0.52
0.43
0.33
0.29
0.33
0.39
0.36
0.15
-0.25
-0.77
-1.27
-1.66
-1.92
-2.09
-2.23
-2.41
-2.69
-3.09
-3.55
-3.98
-4.20
-4.05
-3.43
-2.37
-1.07
0.22
1.25
1.90
2.21
2.32
2.38
2.46
2.53
2.52
2.34
2.03
1.69
1.45
1.40
1.52
1.73
1.98
2.20
2.44
2.71
3.00
3.24
3.33
3.21
2.88
2.40
1.86
1.33
0.84
0.43
0.11
-0.09
-0.17
-0.17
-0.16
-0.21
-0.38
-0.67
-1.06
-1.51
-2.00
-2.50
-2.99
-3.41
-3.66
-3.63
-3.28
-2.61
-1.73
-0.79
0.05
0.70
1.14
1.41
1.60
1.77
1.90
1.97
1.94
1.84
1.73
1.69
1.76
1.91
2.08
2.22
2.28
2.28
2.25
2.21
2.13
2.01
1.83
1.63
1.46
1.35
1.26
1.13
0.89
0.51
0.05
-0.42
-0.82
-1.12
-1.32
-1.44
-1.53
-1.62
-1.72
-1.84
-2.03
-2.29
-2.66
-3.12
-3.61
-4.03
-4.23
-4.11
-3.62
-2.83
-1.88
-0.95
-0.19
0.34
0.68
0.92
1.10
1.25
1.34
1.38
1.38
1.44
1.60
1.86
2.13
2.30
2.32
2.20
2.07
2.01
2.08
2.19
2.24
2.17
1.99
1.79
1.64
1.53
1.37
1.10
0.69
0.23
-0.17
-0.45
-0.62
-0.79
-1.05
-1.46
-1.98
-2.51
-2.97
-3.33
-3.60
-3.81
-3.99
-4.12
-4.17
-4.11
-3.93
-3.66
-3.34
-3.01
-2.65
-2.27
-1.83
-1.28
-0.65
0.04
0.72
1.34
1.84
2.20
2.39
2.44
2.38
2.27
2.14
2.05
2.01
2.06
2.22
2.49
2.86
3.26
3.58
3.70
3.56
3.16
2.60
2.06
1.69
1.54
1.58
1.67
1.66
1.45
1.02
0.45
-0.11
-0.56
-0.81
-0.93
-0.98
-1.08
-1.29
-1.63
-2.02
-2.37
-2.57
-2.58
-2.41
-2.13
-1.80
-1.45
-1.04
-0.56
0.01
0.59
1.09
1.42
1.58
1.64
1.69
1.78
1.90
1.97
1.92
1.77
1.65
1.67
1.88
2.21
2.50
2.59
2.39
1.97
1.48
1.09
0.92
0.95
1.07
1.14
1.04
0.73
0.28
-0.20
-0.58
-0.79
-0.82
-0.73
-0.61
-0.57
-0.67
-0.94
-1.38
-1.94
-2.58
-3.22
-3.79
-4.19
-4.31
-4.11
-3.59
-2.88
-2.09
-1.38
-0.80
-0.35
0.03
0.36
0.66
0.87
0.94
0.89
0.81
0.84
1.09
1.58
2.21
2.82
3.25
3.43
3.41
3.31
3.24
3.27
3.34
3.36
3.21
2.88
2.43
1.98
1.63
1.38
1.20
0.99
0.70
0.37
0.05
-0.18
-0.34
-0.50
-0.76
-1.18
-1.73
-2.28
-2.74
-3.03
-3.22
-3.42
-3.75
-4.23
-4.76
-5.18
-5.31
-5.07
-4.48
-3.63
-2.68
-1.75
-0.93
-0.24
0.29
0.64
0.83
0.86
0.78
0.69
0.64
0.69
0.83
1.02
1.21
1.41
1.65
1.94
2.27
2.57
2.73
2.68
2.44
2.06
1.67
1.38
1.22
1.12
1.00
0.79
0.52
0.28
0.18
0.25
0.40
0.46
0.25
-0.27
-1.00
-1.72
-2.24
-2.47
-2.43
-2.24
-2.05
-1.96
-2.03
-2.26
-2.65
-3.19
-3.82
-4.45
-4.91
-5.08
-4.84
-4.22
-3.33
-2.35
-1.40
-0.57
0.15
0.80
1.42
1.96
2.34
2.48
2.39
2.15
1.91
1.78
1.83
2.06
2.43
2.88
3.35
3.81
4.24
4.62
4.93
5.15
5.26
5.24
5.10
4.88
4.62
4.38
4.16
3.94
3.69
3.37
3.02
2.72
2.58
2.62
2.79
2.94
2.92
2.60
1.99
1.15
0.21
-0.76
-1.67
-2.47
-3.12
-3.55
-3.77
-3.83
-3.88
-4.13
-4.72
-5.70
-6.94
-8.21
-9.25
-9.84
-9.95
-9.64
-9.08
-8.45
-7.84
-7.22
-6.54
-5.71
-4.70
-3.59
-2.46
-1.40
-0.45
0.38
1.09
1.65
1.96
1.95
1.67
1.25
0.93
0.92
1.30
1.98
2.71
3.26
3.47
3.31
2.85
2.19
1.41
0.53
-0.43
-1.45
-2.45
-3.33
-3.98
-4.35
-4.44
-4.33
-4.09
-3.80
-3.49
-3.13
-2.73
-2.28
-1.78
-1.24
-0.64
0.02
0.74
1.46
2.09
2.52
2.71
2.68
2.52
2.32
2.18
2.16
2.27
2.55
2.99
3.55
4.15
4.66
4.97
5.05
4.93
4.66
4.29
3.78
3.10
2.22
1.20
0.20
-0.58
-0.97
-0.91
-0.47
0.19
0.88
1.44
1.77
1.85
1.71
1.41
1.02
0.59
0.15
-0.33
-0.87
-1.48
-2.15
-2.80
-3.32
-3.61
-3.63
-3.39
-2.95
-2.39
-1.79
-1.19
-0.62
-0.11
0.29
0.57
0.69
0.69
0.65
0.65
0.76
1.02
1.38
1.73
1.94
1.91
1.66
1.34
1.12
1.14
1.40
1.78
2.06
2.11
1.86
1.43
0.98
0.68
0.61
0.76
1.03
1.30
1.47
1.48
1.37
1.18
0.96
0.77
0.60
0.42
0.21
-0.01
-0.24
-0.45
-0.66
-0.93
-1.30
-1.72
-2.09
-2.26
-2.09
-1.54
-0.74
0.11
0.81
1.22
1.36
1.32
1.23
1.19
1.16
1.11
0.99
0.81
0.65
0.59
0.64
0.75
0.84
0.85
0.81
0.80
0.86
0.99
1.13
1.16
1.03
0.77
0.42
0.05
-0.30
-0.65
-1.01
-1.35
-1.61
-1.74
-1.70
-1.56
-1.41
-1.41
-1.63
-2.08
-2.69
-3.33
-3.87
-4.21
-4.36
-4.34
-4.17
-3.88
-3.42
-2.76
-1.89
-0.86
0.22
1.19
1.92
2.31
2.35
2.12
1.73
1.33
1.04
0.91
0.93
1.11
1.42
1.82
2.25
2.62
2.80
2.73
2.39
1.89
1.41
1.09
0.99
1.07
1.17
1.14
0.92
0.55
0.12
-0.26
-0.57
-0.86
-1.22
-1.71
-2.29
-2.83
-3.18
-3.26
-3.12
-2.96
-2.98
-3.31
-3.95
-4.75
-5.52
-6.06
-6.28
-6.15
-5.68
-4.92
-3.94
-2.84
-1.77
-0.84
-0.10
0.46
0.92
1.34
1.75
2.09
2.30
2.34
2.27
2.17
2.17
2.34
2.68
3.11
3.52
3.80
3.88
3.76
3.53
3.24
2.96
2.69
2.42
2.17
1.96
1.84
1.80
1.81
1.77
1.63
1.39
1.08
0.76
0.45
0.11
-0.28
-0.75
-1.23
-1.63
-1.89
-2.01
-2.09
-2.24
-2.55
-3.01
-3.49
-3.83
-3.89
-3.60
-2.97
-2.09
-1.09
-0.08
0.83
1.56
2.03
2.20
2.09
1.78
1.40
1.08
0.88
0.83
0.86
0.95
1.10
1.33
1.68
2.09
2.47
2.67
2.65
2.44
2.19
2.07
2.14
2.33
2.49
2.47
2.24
1.86
1.45
1.07
0.72
0.33
-0.12
-0.60
-1.00
-1.23
-1.31
-1.33
-1.43
-1.70
-2.10
-2.55
-2.90
-3.09
-3.07
-2.86
-2.46
-1.87
-1.13
-0.36
0.34
0.87
1.18
1.34
1.44
1.57
1.75
1.98
2.20
2.37
2.50
2.60
2.66
2.67
2.62
2.47
2.22
1.93
1.68
1.55
1.58
1.70
1.79
1.73
1.46
1.03
0.57
0.21
0.03
-0.02
-0.02
-0.07
-0.23
-0.48
-0.77
-1.07
-1.37
-1.69
-2.03
-2.39
-2.71
-2.97
-3.15
-3.29
-3.44
-3.60
-3.75
-3.80
-3.68
-3.35
-2.88
-2.35
-1.84
-1.39
-0.95
-0.48
0.03
0.54
0.97
1.25
1.34
1.29
1.18
1.10
1.13
1.29
1.59
1.96
2.31
2.52
2.54
2.33
1.96
1.55
1.20
1.00
1.01
1.17
1.42
1.61
1.65
1.49
1.18
0.81
0.47
0.19
-0.10
-0.47
-0.98
-1.59
-2.19
-2.69
-3.04
-3.28
-3.49
-3.74
-4.04
-4.38
-4.73
-5.09
-5.41
-5.59
-5.49
-5.03
-4.18
-3.06
-1.87
-0.79
0.07
0.69
1.09
1.32
1.40
1.36
1.24
1.14
1.15
1.33
1.69
2.16
2.64
2.99
3.12
3.00
2.66
2.23
1.87
1.71
1.79
2.04
2.30
2.41
2.30
1.98
1.57
1.17
0.85
0.61
0.43
0.30
0.22
0.24
0.37
0.54
0.64
0.55
0.22
-0.35
-1.01
-1.63
-2.11
-2.44
-2.68
-2.94
-3.22
-3.49
-3.61
-3.45
-2.93
-2.10
-1.11
-0.15
0.60
1.08
1.32
1.43
1.53
1.69
1.93
2.18
2.41
2.61
2.80
2.97
3.12
3.20
3.14
2.92
2.61
2.30
2.12
2.10
2.20
2.27
2.16
1.78
1.19
0.54
0.05
-0.13
0.01
0.29
0.49
0.38
-0.10
-0.83
-1.54
-2.05
-2.25
-2.25
-2.25
-2.42
-2.80
-3.28
-3.68
-3.90
-3.94
-3.88
-3.82
-3.74
-3.53
-3.06
-2.26
-1.22
-0.15
0.74
1.32
1.60
1.68
1.68
1.64
1.55
1.39
1.16
0.93
0.81
0.85
1.04
1.32
1.60
1.78
1.80
1.66
1.38
1.03
0.69
0.48
0.42
0.49
0.59
0.61
0.49
0.26
0.04
-0.08
-0.09
-0.05
-0.10
-0.33
-0.73
-1.21
-1.66
-2.00
-2.25
-2.52
-2.91
-3.46
-4.11
-4.72
-5.11
-5.13
-4.72
-3.94
-2.94
-1.92
-1.03
-0.32
0.23
0.66
0.99
1.17
1.14
0.87
0.49
0.18
0.17
0.52
1.16
1.86
2.39
2.63
2.59
2.41
2.19
2.01
1.84
1.62
1.31
0.92
0.51
0.15
-0.08
-0.18
-0.17
-0.12
-0.12
-0.25
-0.54
-0.95
-1.42
-1.84
-2.14
-2.30
-2.40
-2.50
-2.69
-3.01
-3.46
-3.96
-4.45
-4.80
-4.95
-4.83
-4.44
-3.80
-2.94
-1.94
-0.86
0.16
1.01
1.60
1.91
2.00
1.99
1.96
1.95
1.94
1.89
1.78
1.68
1.67
1.85
2.22
2.69
3.18
3.61
3.92
4.13
4.23
4.19
3.95
3.51
2.90
2.23
1.63
1.19
0.93
0.77
0.60
0.33
-0.05
-0.47
-0.81
-1.01
-1.06
-1.06
-1.13
-1.37
-1.81
-2.41
-3.04
-3.57
-3.90
-3.93
-3.62
-2.98
-2.10
-1.11
-0.23
0.36
0.55
0.41
0.14
-0.02
0.12
0.57
1.17
1.69
1.92
1.83
1.51
1.19
1.02
1.07
1.29
1.53
1.70
1.73
1.66
1.58
1.52
1.45
1.30
0.98
0.50
-0.04
-0.51
-0.78
-0.82
-0.75
-0.73
-0.89
-1.24
-1.66
-2.02
-2.22
-2.30
-2.37
-2.55
-2.90
-3.38
-3.89
-4.31
-4.52
-4.46
-4.12
-3.51
-2.70
-1.79
-0.88
-0.08
0.54
0.94
1.12
1.14
1.05
0.97
0.97
1.14
1.47
1.95
2.47
2.93
3.24
3.36
3.26
2.99
2.59
2.13
1.72
1.43
1.27
1.21
1.17
1.05
0.85
0.63
0.47
0.45
0.53
0.57
0.44
0.03
-0.60
-1.33
-1.97
-2.41
-2.68
-2.84
-3.00
-3.24
-3.56
-3.94
-4.31
-4.62
-4.79
-4.74
-4.38
-3.71
-2.75
-1.63
-0.47
0.58
1.43
2.02
2.32
2.35
2.17
1.91
1.70
1.64
1.77
2.07
2.44
2.79
3.05
3.19
3.24
3.24
3.23
3.23
3.24
3.24
3.18
2.98
2.58
1.98
1.22
0.49
-0.03
-0.21
-0.02
0.40
0.83
1.05
0.94
0.55
0.02
-0.48
-0.86
-1.13
-1.39
-1.71
-2.11
-2.55
-2.91
-3.10
-3.10
-2.90
-2.55
-2.09
-1.54
-0.93
-0.34
0.17
0.52
0.69
0.73
0.72
0.78
0.93
1.15
1.39
1.57
1.69
1.77
1.86
1.99
2.17
2.37
2.57
2.74
2.84
2.83
2.64
2.25
1.73
1.18
0.75
0.55
0.58
0.72
0.83
0.79
0.59
0.29
-0.02
-0.31
-0.61
-0.97
-1.40
-1.81
-2.09
-2.17
-2.08
-1.97
-2.01
-2.31
-2.79
-3.23
-3.41
-3.16
-2.49
-1.56
-0.57
0.31
1.02
1.57
2.03
2.40
2.64
2.68
2.53
2.26
2.05
2.06
2.33
2.77
3.17
3.33
3.19
2.84
2.50
2.37
2.47
2.69
2.81
2.62
2.08
1.31
0.58
0.12
0.04
0.28
0.61
0.79
0.65
0.19
-0.44
-1.04
-1.46
-1.69
-1.86
-2.13
-2.60
-3.27
-3.98
-4.57
-4.89
-4.90
-4.63
-4.14
-3.52
-2.81
-2.08
-1.39
-0.82
-0.41
-0.11
0.14
0.46
0.90
1.43
1.94
2.29
2.40
2.26
1.99
1.70
1.50
1.44
1.53
1.73
2.04
2.39
2.72
2.93
2.91
2.65
2.20
1.70
1.30
1.07
0.97
0.89
0.73
0.43
0.03
-0.41
-0.79
-1.08
-1.26
-1.34
-1.35
-1.35
-1.42
-1.66
-2.15
-2.86
-3.64
-4.31
-4.68
-4.68
-4.36
-3.84
-3.24
-2.63
-1.99
-1.27
-0.43
0.48
1.37
2.09
2.51
2.58
2.30
1.79
1.20
0.69
0.39
0.36
0.55
0.94
1.46
2.02
2.53
2.86
2.90
2.61
2.06
1.43
0.93
0.70
0.77
1.01
1.25
1.34
1.25
1.02
0.72
0.38
-0.01
-0.48
-1.03
-1.56
-1.97
-2.19
-2.23
-2.18
-2.20
-2.39
-2.75
-3.21
-3.64
-3.93
-4.05
-4.02
-3.89
-3.68
-3.38
-2.94
-2.37
-1.71
-0.99
-0.28
0.40
1.04
1.64
2.17
2.56
2.74
2.70
2.50
2.26
2.11
2.15
2.40
2.78
3.16
3.40
3.40
3.16
2.76
2.35
2.05
1.96
2.04
2.19
2.30
2.29
2.17
2.01
1.89
1.79
1.65
1.38
0.96
0.45
0.01
-0.22
-0.21
-0.06
0.03
-0.13
-0.61
-1.34
-2.15
-2.81
-3.20
-3.29
-3.17
-2.94
-2.63
-2.22
-1.66
-0.93
-0.10
0.69
1.29
1.59
1.63
1.50
1.31
1.15
1.01
0.87
0.73
0.64
0.68
0.89
1.23
1.59
1.83
1.87
1.76
1.59
1.50
1.52
1.59
1.60
1.44
1.09
0.61
0.10
-0.35
-0.72
-1.03
-1.32
-1.61
-1.90
-2.17
-2.42
-2.65
-2.90
-3.20
-3.58
-4.08
-4.68
-5.31
-5.84
-6.11
-6.01
-5.51
-4.70
-3.75
-2.85
-2.08
-1.45
-0.89
-0.32
0.27
0.88
1.39
1.74
1.88
1.83
1.65
1.44
1.30
1.26
1.34
1.49
1.67
1.83
1.94
2.01
2.05
2.05
2.03
1.98
1.91
1.80
1.64
1.40
1.09
0.74
0.37
0.04
-0.24
-0.50
-0.76
-1.08
-1.43
-1.79
-2.11
-2.39
-2.65
-2.96
-3.38
-3.92
-4.51
-5.01
-5.27
-5.15
-4.64
-3.83
-2.89
-1.99
-1.23
-0.60
-0.03
0.50
0.98
1.33
1.46
1.36
1.10
0.82
0.65
0.68
0.90
1.26
1.69
2.14
2.56
2.91
3.16
3.26
3.16
2.87
2.42
1.95
1.57
1.37
1.40
1.55
1.71
1.75
1.63
1.38
1.08
0.79
0.50
0.20
-0.14
-0.47
-0.74
-0.88
-0.89
-0.86
-0.90
-1.10
-1.45
-1.87
-2.25
-2.49
-2.52
-2.33
-1.94
-1.39
-0.72
0.00
0.72
1.38
1.95
2.38
2.64
2.69
2.55
2.27
1.98
1.80
1.83
2.09
2.47
2.81
3.00
3.00
2.85
2.64
2.43
2.26
2.11
1.98
1.89
1.84
1.83
1.78
1.65
1.39
1.07
0.75
0.55
0.47
0.44
0.32
0.00
-0.55
-1.24
-1.92
-2.45
-2.80
-3.03
-3.24
-3.49
-3.75
-3.89
-3.78
-3.33
-2.55
-1.59
-0.65
0.09
0.51
0.61
0.48
0.28
0.16
0.22
0.45
0.77
1.08
1.28
1.37
1.39
1.41
1.44
1.44
1.36
1.18
0.92
0.67
0.51
0.47
0.50
0.53
0.47
0.29
0.01
-0.29
-0.56
-0.77
-0.94
-1.13
-1.37
-1.64
-1.89
-2.05
-2.08
-2.04
-2.03
-2.19
-2.59
-3.25
-4.07
-4.89
-5.55
-5.89
-5.82
-5.31
-4.44
-3.34
-2.16
-1.04
-0.06
0.71
1.26
1.53
1.54
1.31
0.96
0.63
0.49
0.62
1.01
1.59
2.22
2.79
3.19
3.40
3.40
3.22
2.88
2.47
2.05
1.68
1.38
1.14
0.95
0.73
0.46
0.12
-0.27
-0.69
-1.06
-1.34
-1.49
-1.50
-1.43
-1.38
-1.42
-1.63
-2.00
-2.50
-3.05
-3.56
-4.03
-4.45
-4.82
-5.08
-5.13
-4.84
-4.19
-3.24
-2.18
-1.18
-0.37
0.22
0.67
1.04
1.36
1.58
1.64
1.54
1.38
1.28
1.33
1.55
1.89
2.29
2.72
3.17
3.61
3.97
4.13
3.98
3.52
2.82
2.06
1.39
0.93
0.71
0.70
0.81
0.97
1.10
1.15
1.06
0.82
0.44
-0.00
-0.45
-0.81
-1.05
-1.19
-1.32
-1.54
-1.95
-2.57
-3.30
-3.95
-4.32
-4.28
-3.82
-3.02
-2.07
-1.12
-0.30
0.39
0.94
1.40
1.80
2.11
2.32
2.42
2.41
2.30
2.14
1.98
1.87
1.87
1.97
2.16
2.40
2.64
2.84
3.00
3.08
3.06
2.90
2.60
2.16
1.62
1.06
0.55
0.12
-0.18
-0.34
-0.35
-0.28
-0.21
-0.28
-0.55
-1.01
-1.56
-2.08
-2.49
-2.80
-3.11
-3.47
-3.90
-4.31
-4.55
-4.47
-4.04
-3.32
-2.47
-1.67
-1.03
-0.54
-0.13
0.31
0.81
1.32
1.74
1.96
1.98
1.91
1.91
2.07
2.32
2.54
2.57
2.40
2.12
1.92
1.92
2.13
2.40
2.56
2.46
2.08
1.51
0.90
0.40
0.07
-0.13
-0.28
-0.45
-0.69
-0.97
-1.22
-1.36
-1.38
-1.33
-1.32
-1.50
-1.92
-2.59
-3.41
-4.24
-4.95
-5.38
-5.46
-5.14
-4.46
-3.52
-2.48
-1.50
-0.65
0.04
0.65
1.24
1.82
2.33
2.66
2.71
2.47
2.02
1.56
1.28
1.32
1.69
2.24
2.75
3.05
3.06
2.86
2.64
2.58
2.74
3.00
3.16
3.02
2.55
1.86
1.15
0.62
0.33
0.25
0.28
0.31
0.30
0.20
-0.01
-0.35
-0.83
-1.41
-2.03
-2.63
-3.21
-3.77
-4.36
-5.00
-5.61
-6.07
-6.20
-5.91
-5.16
-4.08
-2.87
-1.76
-0.90
-0.32
0.07
0.40
0.77
1.21
1.63
1.95
2.16
2.31
2.48
2.71
2.95
3.12
3.16
3.08
2.94
2.88
2.95
3.17
3.45
3.67
3.73
3.56
3.19
2.72
2.29
2.01
1.91
1.94
1.97
1.85
1.56
1.12
0.65
0.25
-0.05
-0.27
-0.48
-0.76
-1.13
-1.60
-2.18
-2.85
-3.56
-4.23
-4.72
-4.90
-4.68
-4.04
-3.07
-1.89
-0.69
0.37
1.18
1.66
1.82
1.73
1.49
1.19
0.95
0.81
0.82
0.98
1.28
1.69
2.16
2.61
2.98
3.20
3.24
3.08
2.75
2.32
1.91
1.60
1.43
1.39
1.40
1.37
1.25
1.00
0.66
0.28
-0.09
-0.44
-0.77
-1.13
-1.54
-2.02
-2.55
-3.08
-3.57
-3.98
-4.33
-4.62
-4.84
-4.91
-4.75
-4.28
-3.50
-2.49
-1.43
-0.50
0.20
0.64
0.88
1.02
1.13
1.24
1.34
1.42
1.47
1.54
1.66
1.86
2.12
2.38
2.59
2.66
2.58
2.35
2.03
1.63
1.20
0.75
0.28
-0.17
-0.55
-0.82
-0.93
-0.93
-0.85
-0.77
-0.72
-0.73
-0.82
-0.97
-1.21
-1.51
-1.88
-2.28
-2.73
-3.20
-3.70
-4.21
-4.65
-4.94
-4.94
-4.61
-3.93
-2.98
-1.88
-0.76
0.23
0.99
1.47
1.69
1.73
1.71
1.74
1.87
2.10
2.35
2.56
2.68
2.73
2.74
2.77
2.83
2.90
2.91
2.82
2.60
2.27
1.91
1.60
1.38
1.26
1.19
1.15
1.10
1.07
1.03
0.93
0.74
0.41
-0.02
-0.47
-0.87
-1.17
-1.44
-1.80
-2.31
-2.98
-3.69
-4.25
-4.53
-4.49
-4.20
-3.79
-3.36
-2.92
-2.44
-1.84
-1.12
-0.33
0.44
1.11
1.67
2.12
2.49
2.75
2.85
2.74
2.44
2.05
1.74
1.66
1.90
2.44
3.15
3.84
4.32
4.45
4.20
3.68
3.05
2.51
2.17
2.00
1.91
1.76
1.47
1.06
0.64
0.30
0.09
-0.07
-0.27
-0.60
-1.05
-1.58
-2.09
-2.52
-2.88
-3.21
-3.57
-3.98
-4.38
-4.65
-4.66
-4.31
-3.59
-2.58
-1.44
-0.35
0.53
1.17
1.56
1.80
1.95
2.05
2.05
1.94
1.74
1.57
1.56
1.81
2.29
2.85
3.28
3.43
3.27
2.88
2.38
1.89
1.48
1.16
0.98
0.94
1.08
1.33
1.60
1.74
1.61
1.19
0.55
-0.14
-0.71
-1.07
-1.22
-1.27
-1.38
-1.66
-2.17
-2.90
-3.75
-4.59
-5.29
-5.74
-5.85
-5.58
-4.93
-3.98
-2.88
-1.78
-0.86
-0.20
0.20
0.43
0.61
0.79
0.98
1.09
1.08
0.97
0.87
0.96
1.30
1.87
2.50
2.99
3.20
3.14
2.92
2.68
2.50
2.40
2.35
2.31
2.30
2.33
2.35
2.32
2.13
1.75
1.21
0.59
0.01
-0.49
-0.89
-1.22
-1.51
-1.77
-2.00
-2.18
-2.37
-2.64
-3.07
-3.66
-4.35
-5.01
-5.45
-5.53
-5.19
-4.48
-3.52
-2.46
-1.44
-0.55
0.15
0.65
0.97
1.16
1.34
1.59
1.98
2.49
2.98
3.30
3.33
3.07
2.66
2.34
2.28
2.55
3.07
3.65
4.07
4.22
4.04
3.61
3.07
2.52
2.05
1.72
1.54
1.49
1.55
1.65
1.70
1.61
1.32
0.83
0.23
-0.37
-0.86
-1.17
-1.32
-1.38
-1.50
-1.81
-2.37
-3.17
-4.05
-4.77
-5.09
-4.86
-4.07
-2.88
-1.53
-0.28
0.72
1.40
1.82
2.05
2.14
2.12
2.02
1.86
1.72
1.69
1.82
2.11
2.44
2.68
2.70
2.51
2.19
1.89
1.68
1.56
1.46
1.33
1.14
0.91
0.70
0.50
0.30
0.03
-0.31
-0.67
-0.97
-1.18
-1.30
-1.40
-1.56
-1.85
-2.28
-2.82
-3.42
-4.03
-4.55
-4.92
-5.05
-4.89
-4.45
-3.78
-2.96
-2.11
-1.31
-0.59
0.01
0.48
0.81
0.96
0.94
0.82
0.70
0.71
0.90
1.25
1.66
2.02
2.25
2.37
2.43
2.51
2.63
2.75
2.80
2.71
2.45
2.03
1.51
0.95
0.45
0.07
-0.14
-0.22
-0.23
-0.24
-0.32
-0.51
-0.79
-1.14
-1.54
-1.95
-2.38
-2.83
-3.31
-3.81
-4.32
-4.76
-5.06
-5.14
-4.96
-4.52
-3.92
-3.24
-2.53
-1.82
-1.12
-0.47
0.07
0.46
0.68
0.82
0.98
1.23
1.56
1.85
2.03
2.05
1.97
1.90
1.95
2.14
2.42
2.70
2.89
2.94
2.82
2.51
2.01
1.35
0.64
-0.00
-0.43
-0.56
-0.40
-0.04
0.34
0.57
0.54
0.21
-0.33
-0.93
-1.46
-1.82
-2.05
-2.22
-2.43
-2.77
-3.22
-3.77
-4.34
-4.84
-5.15
-5.16
-4.77
-3.97
-2.85
-1.61
-0.48
0.35
0.83
1.02
1.09
1.21
1.47
1.84
2.24
2.54
2.68
2.67
2.60
2.59
2.70
2.94
3.25
3.52
3.67
3.66
3.52
3.32
3.10
2.89
2.70
2.47
2.18
1.82
1.41
0.97
0.55
0.13
-0.28
-0.72
-1.19
-1.65
-2.04
-2.28
-2.36
-2.33
-2.31
-2.46
-2.86
-3.47
-4.14
-4.66
-4.86
-4.68
-4.16
-3.44
-2.63
-1.80
-0.99
-0.24
0.39
0.82
1.00
0.98
0.87
0.81
0.86
1.02
1.20
1.35
1.48
1.67
1.99
2.43
2.89
3.21
3.29
3.11
2.79
2.46
2.22
2.07
1.92
1.71
1.41
1.07
0.80
0.63
0.53
0.39
0.11
-0.35
-0.94
-1.52
-1.97
-2.26
-2.48
-2.78
-3.25
-3.88
-4.51
-4.91
-4.91
-4.47
-3.69
-2.78
-1.91
-1.20
-0.64
-0.21
0.13
0.39
0.55
0.59
0.56
0.51
0.53
0.69
1.01
1.49
2.04
2.59
3.01
3.21
3.15
2.86
2.46
2.03
1.66
1.35
1.10
0.87
0.70
0.60
0.57
0.56
0.47
0.25
-0.13
-0.59
-1.02
-1.37
-1.63
-1.87
-2.20
-2.68
-3.30
-4.00
-4.68
-5.24
-5.60
-5.73
-5.59
-5.16
-4.41
-3.41
-2.27
-1.15
-0.21
0.44
0.80
0.95
1.04
1.17
1.39
1.68
1.96
2.15
2.22
2.20
2.17
2.19
2.33
2.57
2.83
3.00
2.99
2.77
2.41
1.99
1.63
1.37
1.20
1.06
0.91
0.72
0.48
0.20
-0.12
-0.47
-0.83
-1.18
-1.49
-1.77
-2.04
-2.36
-2.73
-3.18
-3.68
-4.19
-4.66
-5.05
-5.31
-5.37
-5.16
-4.62
-3.76
-2.67
-1.52
-0.48
0.32
0.86
1.18
1.36
1.49
1.59
1.67
1.75
1.86
2.02
2.23
2.46
2.67
2.81
2.89
2.90
2.86
2.75
2.57
2.38
2.23
2.18
2.22
2.29
2.31
2.22
2.07
1.93
1.85
1.78
1.63
1.30
0.77
0.16
-0.39
-0.77
-0.97
-1.08
-1.22
-1.52
-2.02
-2.70
-3.47
-4.22
-4.77
-4.93
-4.60
-3.76
-2.54
-1.18
0.09
1.08
1.74
2.12
2.32
2.40
2.38
2.24
1.97
1.60
1.22
0.91
0.77
0.83
1.08
1.46
1.89
2.28
2.57
2.72
2.72
2.62
2.47
2.29
2.07
1.73
1.20
0.52
-0.19
-0.76
-1.08
-1.16
-1.11
-1.11
-1.30
-1.66
-2.14
-2.64
-3.14
-3.67
-4.24
-4.79
-5.14
-5.11
-4.58
-3.64
-2.48
-1.39
-0.56
-0.07
0.19
0.36
0.60
0.95
1.37
1.71
1.89
1.87
1.70
1.52
1.43
1.49
1.70
2.02
2.37
2.68
2.86
2.84
2.56
2.02
1.32
0.61
0.05
-0.29
-0.44
-0.52
-0.62
-0.80
-1.04
-1.30
-1.57
-1.89
-2.29
-2.76
-3.26
-3.69
-4.00
-4.18
-4.26
-4.29
-4.30
-4.21
-3.92
-3.29
-2.29
-1.01
0.35
1.56
2.42
2.83
2.84
2.54
2.09
1.63
1.28
1.15
1.29
1.68
2.24
2.80
3.19
3.31
3.19
2.96
2.77
2.70
2.75
2.82
2.79
2.59
2.26
1.86
1.45
1.03
0.58
0.08
-0.46
-1.01
-1.54
-2.07
-2.62
-3.18
-3.74
-4.22
-4.55
-4.73
-4.79
-4.75
-4.63
-4.41
-4.02
-3.45
-2.73
-1.93
-1.14
-0.41
0.21
0.73
1.15
1.49
1.74
1.91
2.00
2.04
2.07
2.12
2.24
2.41
2.57
2.68
2.70
2.68
2.66
2.70
2.75
2.75
2.60
2.28
1.84
1.42
1.13
1.01
0.97
0.84
0.50
-0.12
-0.94
-1.78
-2.46
-2.88
-3.02
-2.99
-2.91
-2.85
-2.79
-2.64
-2.28
-1.67
-0.85
0.03
0.82
1.44
1.88
2.22
2.49
2.72
2.82
2.76
2.49
2.08
1.64
1.28
1.08
1.08
1.27
1.58
1.93
2.23
2.36
2.26
1.94
1.47
0.97
0.54
0.17
-0.18
-0.58
-1.06
-1.58
-2.09
-2.55
-2.96
-3.35
-3.72
-4.02
-4.13
-3.95
-3.46
-2.71
-1.83
-0.96
-0.23
0.32
0.71
1.01
1.31
1.68
2.11
2.52
2.83
2.99
3.01
2.99
3.03
3.20
3.43
3.60
3.58
3.34
2.96
2.61
2.42
2.42
2.51
2.52
2.30
1.82
1.11
0.31
-0.49
-1.21
-1.84
-2.42
-2.92
-3.34
-3.68
-3.96
-4.21
-4.48
-4.78
-5.08
-5.30
-5.33
-5.12
-4.63
-3.92
-3.03
-2.05
-1.06
-0.11
0.75
1.48
2.05
2.42
2.60
2.61
2.50
2.36
2.26
2.26
2.37
2.55
2.77
3.01
3.24
3.43
3.57
3.56
3.37
3.01
2.56
2.14
1.87
1.78
1.82
1.88
1.79
1.45
0.85
0.04
-0.84
-1.62
-2.18
-2.50
-2.61
-2.63
-2.72
-2.98
-3.42
-4.00
-4.64
-5.24
-5.68
-5.81
-5.52
-4.73
-3.51
-2.06
-0.66
0.44
1.09
1.34
1.35
1.30
1.35
1.55
1.90
2.38
2.94
3.53
4.08
4.51
4.76
4.81
4.70
4.49
4.24
3.97
3.67
3.32
2.92
2.54
2.24
2.07
2.02
2.01
1.97
1.84
1.68
1.51
1.37
1.22
0.94
0.45
-0.24
-1.01
-1.68
-2.16
-2.44
-2.66
-3.00
-3.51
-4.11
-4.60
-4.79
-4.53
-3.84
-2.84
-1.68
-0.54
0.44
1.17
1.61
1.75
1.70
1.57
1.47
1.46
1.53
1.63
1.73
1.86
2.10
2.46
2.89
3.26
3.42
3.30
2.93
2.45
1.98
1.59
1.25
0.87
0.44
-0.02
-0.37
-0.51
-0.42
-0.19
0.00
0.01
-0.25
-0.74
-1.37
-2.03
-2.63
-3.13
-3.51
-3.78
-3.96
-4.11
-4.26
-4.43
-4.60
-4.64
-4.46
-3.97
-3.19
-2.25
-1.31
-0.53
0.05
0.50
0.91
1.34
1.79
2.18
2.42
2.49
2.47
2.46
2.57
2.79
3.06
3.28
3.38
3.41
3.41
3.48
3.58
3.66
3.61
3.36
2.92
2.36
1.78
1.25
0.86
0.63
0.57
0.62
0.69
0.64
0.38
-0.11
-0.74
-1.37
-1.86
-2.17
-2.36
-2.58
-2.92
-3.41
-4.00
-4.58
-5.06
-5.43
-5.66
-5.74
-5.63
-5.22
-4.46
-3.39
-2.17
-1.01
-0.13
0.39
0.60
0.66
0.74
0.92
1.13
1.26
1.25
1.12
1.00
1.04
1.32
1.79
2.32
2.73
2.92
2.86
2.63
2.37
2.18
2.10
2.08
2.05
1.93
1.71
1.46
1.25
1.15
1.14
1.12
0.99
0.73
0.40
0.13
0.04
0.12
0.26
0.28
0.05
-0.47
-1.17
-1.89
-2.50
-2.94
-3.26
-3.54
-3.81
-4.03
-4.13
-3.99
-3.57
-2.91
-2.08
-1.18
-0.29
0.55
1.28
1.83
2.13
2.16
1.94
1.63
1.39
1.36
1.59
1.96
2.33
2.55
2.59
2.51
2.45
2.47
2.57
2.63
2.50
2.13
1.53
0.83
0.22
-0.19
-0.33
-0.25
-0.07
0.10
0.13
-0.00
-0.30
-0.69
-1.13
-1.57
-2.02
-2.52
-3.03
-3.47
-3.75
-3.84
-3.78
-3.69
-3.69
-3.80
-3.90
-3.83
-3.46
-2.77
-1.92
-1.10
-0.50
-0.10
0.18
0.46
0.81
1.16
1.39
1.42
1.29
1.13
1.08
1.23
1.55
1.94
2.28
2.51
2.63
2.68
2.66
2.55
2.30
1.91
1.41
0.90
0.44
0.09
-0.16
-0.34
-0.52
-0.77
-1.09
-1.45
-1.79
-2.07
-2.31
-2.59
-2.95
-3.44
-4.00
-4.52
-4.90
-5.09
-5.14
-5.07
-4.91
-4.59
-4.02
-3.18
-2.14
-1.09
-0.22
0.33
0.59
0.68
0.77
0.96
1.24
1.52
1.69
1.69
1.55
1.38
1.27
1.30
1.46
1.74
2.08
2.43
2.75
2.96
2.96
2.70
2.21
1.59
0.98
0.51
0.23
0.09
0.00
-0.12
-0.30
-0.54
-0.86
-1.29
-1.85
-2.53
-3.27
-3.93
-4.40
-4.64
-4.71
-4.74
-4.81
-4.93
-5.01
-4.93
-4.60
-4.04
-3.32
-2.53
-1.73
-0.94
-0.12
0.72
1.54
2.29
2.85
3.18
3.24
3.04
2.69
2.30
2.02
1.96
2.14
2.49
2.89
3.21
3.38
3.38
3.26
3.06
2.81
2.51
2.17
1.78
1.39
1.03
0.74
0.55
0.45
0.38
0.30
0.11
-0.22
-0.64
-1.08
-1.47
-1.79
-2.07
-2.43
-2.92
-3.52
-4.12
-4.51
-4.54
-4.13
-3.32
-2.24
-1.06
0.05
0.98
1.68
2.12
2.33
2.34
2.22
2.01
1.78
1.60
1.52
1.60
1.83
2.13
2.38
2.48
2.36
2.05
1.63
1.21
0.87
0.66
0.52
0.42
0.27
0.06
-0.23
-0.58
-0.96
-1.33
-1.67
-1.98
-2.28
-2.58
-2.90
-3.25
-3.62
-4.02
-4.42
-4.78
-5.01
-5.00
-4.65
-3.93
-2.89
-1.69
-0.52
0.42
1.01
1.22
1.15
0.94
0.74
0.66
0.73
0.95
1.26
1.61
1.94
2.22
2.39
2.42
2.31
2.09
1.81
1.55
1.35
1.21
1.12
1.01
0.86
0.64
0.36
0.04
-0.31
-0.66
-1.03
-1.44
-1.91
-2.40
-2.88
-3.28
-3.55
-3.73
-3.88
-4.09
-4.43
-4.83
-5.19
-5.32
-5.07
-4.40
-3.39
-2.23
-1.13
-0.24
0.38
0.76
0.99
1.15
1.28
1.40
1.47
1.47
1.41
1.33
1.32
1.44
1.70
2.07
2.41
2.62
2.65
2.52
2.32
2.13
2.00
1.88
1.71
1.41
1.01
0.61
0.30
0.13
0.03
-0.09
-0.33
-0.74
-1.22
-1.65
-1.92
-2.01
-2.02
-2.13
-2.48
-3.09
-3.80
-4.34
-4.45
-4.04
-3.19
-2.14
-1.09
-0.18
0.63
1.42
2.23
2.97
3.52
3.74
3.65
3.40
3.19
3.16
3.33
3.63
3.92
4.12
4.15
4.03
3.76
3.40
3.04
2.77
2.67
2.71
2.82
2.88
2.80
2.55
2.19
1.76
1.30
0.81
0.29
-0.24
-0.73
-1.13
-1.42
-1.65
-1.91
-2.29
-2.79
-3.34
-3.82
-4.12
-4.16
-3.94
-3.51
-2.91
-2.20
-1.41
-0.59
0.22
0.92
1.41
1.67
1.72
1.64
1.55
1.54
1.62
1.78
1.97
2.13
2.24
2.30
2.32
2.35
2.40
2.49
2.61
2.75
2.85
2.85
2.70
2.41
2.03
1.62
1.26
0.94
0.65
0.36
0.08
-0.16
-0.32
-0.42
-0.51
-0.70
-1.08
-1.68
-2.43
-3.25
-4.04
-4.72
-5.26
-5.60
-5.67
-5.42
-4.83
-3.93
-2.83
-1.64
-0.50
0.47
1.19
1.64
1.86
1.95
2.03
2.17
2.40
2.69
2.99
3.24
3.40
3.44
3.40
3.33
3.33
3.46
3.75
4.11
4.41
4.47
4.25
3.78
3.20
2.66
2.20
1.82
1.45
1.06
0.68
0.40
0.28
0.32
0.40
0.35
0.04
-0.56
-1.34
-2.13
-2.76
-3.17
-3.39
-3.55
-3.81
-4.25
-4.89
-5.61
-6.27
-6.69
-6.78
-6.48
-5.83
-4.90
-3.81
-2.68
-1.59
-0.60
0.24
0.90
1.36
1.62
1.74
1.80
1.90
2.10
2.39
2.74
3.08
3.39
3.68
3.97
4.27
4.54
4.75
4.84
4.80
4.66
4.45
4.21
3.95
3.68
3.44
3.27
3.18
3.09
2.91
2.56
2.05
1.48
0.97
0.59
0.33
0.11
-0.17
-0.53
-0.92
-1.30
-1.63
-2.00
-2.49
-3.18
-3.99
-4.77
-5.29
-5.40
-5.05
-4.33
-3.38
-2.37
-1.42
-0.58
0.11
0.66
1.10
1.44
1.69
1.88
2.00
2.08
2.14
2.22
2.35
2.58
2.91
3.26
3.56
3.71
3.65
3.42
3.07
2.71
2.41
2.16
1.92
1.61
1.21
0.76
0.36
0.08
-0.08
-0.18
-0.36
-0.74
-1.34
-2.07
-2.74
-3.19
-3.37
-3.32
-3.22
-3.23
-3.45
-3.88
-4.42
-4.93
-5.29
-5.41
-5.23
-4.74
-3.95
-2.92
-1.77
-0.65
0.30
0.96
1.35
1.54
1.66
1.82
2.07
2.36
2.64
2.80
2.81
2.69
2.55
2.45
2.44
2.50
2.57
2.59
2.56
2.50
2.45
2.38
2.22
1.91
1.44
0.84
0.25
-0.20
-0.41
-0.37
-0.17
0.05
0.15
0.04
-0.28
-0.73
-1.21
-1.61
-1.93
-2.23
-2.60
-3.12
-3.80
-4.57
-5.32
-5.93
-6.28
-6.28
-5.86
-5.03
-3.88
-2.57
-1.30
-0.25
0.50
0.96
1.23
1.41
1.57
1.75
1.94
2.14
2.34
2.52
2.70
2.86
3.04
3.23
3.40
3.53
3.61
3.64
3.66
3.69
3.71
3.65
3.43
2.99
2.38
1.70
1.07
0.60
0.29
0.10
0.02
-0.00
0.04
0.11
0.16
0.10
-0.13
-0.54
-1.09
-1.71
-2.36
-3.00
-3.61
-4.14
-4.51
-4.60
-4.36
-3.74
-2.83
-1.76
-0.70
0.18
0.78
1.08
1.15
1.10
1.08
1.18
1.41
1.70
1.95
2.06
2.02
1.87
1.69
1.59
1.60
1.72
1.89
2.03
2.06
1.97
1.76
1.48
1.17
0.89
0.64
0.41
0.17
-0.11
-0.45
-0.82
-1.19
-1.53
-1.83
-2.13
-2.47
-2.87
-3.34
-3.82
-4.28
-4.66
-4.96
-5.16
-5.24
-5.17
-4.85
-4.25
-3.37
-2.31
-1.24
-0.32
0.36
0.79
1.03
1.17
1.26
1.31
1.32
1.31
1.31
1.37
1.52
1.72
1.93
2.08
2.18
2.24
2.28
2.31
2.26
2.10
1.82
1.48
1.17
0.98
0.92
0.94
0.99
0.98
0.87
0.63
0.25
-0.28
-0.95
-1.70
-2.45
-3.11
-3.60
-3.90
-4.06
-4.17
-4.35
-4.68
-5.17
-5.70
-6.07
-6.04
-5.50
-4.46
-3.13
-1.76
-0.57
0.35
1.01
1.49
1.82
1.97
1.92
1.66
1.29
0.99
0.94
1.22
1.80
2.49
3.08
3.42
3.42
3.14
2.71
2.24
1.80
1.43
1.11
0.87
0.74
0.78
0.98
1.31
1.66
1.94
2.06
1.96
1.61
1.04
0.31
-0.48
-1.21
-1.82
-2.29
-2.67
-3.04
-3.41
-3.79
-4.11
-4.32
-4.38
-4.24
-3.88
-3.23
-2.28
-1.07
0.23
1.38
2.15
2.44
2.31
1.95
1.61
1.46
1.54
1.77
2.02
2.21
2.38
2.56
2.83
3.15
3.43
3.54
3.42
3.10
2.72
2.39
2.19
2.06
1.88
1.55
1.03
0.42
-0.17
-0.61
-0.88
-1.01
-1.11
-1.25
-1.49
-1.83
-2.24
-2.65
-3.04
-3.39
-3.72
-4.02
-4.24
-4.32
-4.19
-3.83
-3.27
-2.60
-1.90
-1.25
-0.67
-0.12
0.43
0.96
1.43
1.79
2.00
2.06
2.03
2.00
2.00
2.09
2.24
2.41
2.56
2.68
2.78
2.88
2.96
3.00
2.93
2.71
2.32
1.79
1.20
0.63
0.15
-0.20
-0.42
-0.52
-0.53
-0.55
-0.64
-0.92
-1.41
-2.09
-2.88
-3.64
-4.29
-4.77
-5.10
-5.34
-5.50
-5.58
-5.52
-5.27
-4.78
-4.11
-3.30
-2.43
-1.55
-0.65
0.26
1.16
1.96
2.54
2.79
2.66
2.24
1.71
1.30
1.22
1.52
2.10
2.73
3.19
3.36
3.27
3.05
2.87
2.79
2.79
2.76
2.62
2.33
1.94
1.52
1.12
0.73
0.36
0.02
-0.28
-0.53
-0.74
-0.96
-1.23
-1.53
-1.87
-2.25
-2.69
-3.25
-3.98
-4.84
-5.71
-6.45
-6.88
-6.92
-6.53
-5.78
-4.73
-3.48
-2.12
-0.75
0.48
1.47
2.14
2.46
2.52
2.46
2.43
2.56
2.87
3.31
3.78
4.20
4.53
4.79
4.96
5.01
4.88
4.54
4.07
3.61
3.31
3.21
3.24
3.23
3.02
2.59
2.03
1.52
1.19
1.05
0.97
0.81
0.48
0.02
-0.47
-0.88
-1.15
-1.33
-1.55
-1.91
-2.45
-3.14
-3.87
-4.50
-4.88
-4.95
-4.74
-4.31
-3.74
-3.10
-2.41
-1.69
-0.97
-0.27
0.37
0.93
1.40
1.77
2.02
2.14
2.12
2.01
1.87
1.81
1.90
2.14
2.47
2.81
3.07
3.18
3.16
3.03
2.84
2.66
2.47
2.25
1.95
1.55
1.12
0.72
0.45
0.32
0.26
0.19
0.01
-0.32
-0.77
-1.29
-1.82
-2.30
-2.69
-2.99
-3.19
-3.35
-3.52
-3.76
-4.10
-4.52
-4.94
-5.23
-5.30
-5.08
-4.53
-3.72
-2.74
-1.69
-0.67
0.25
1.04
1.69
2.17
2.44
2.46
2.26
1.93
1.66
1.58
1.78
2.23
2.77
3.26
3.54
3.58
3.42
3.13
2.81
2.51
2.24
2.01
1.79
1.56
1.37
1.25
1.24
1.32
1.40
1.36
1.06
0.50
-0.24
-0.98
-1.54
-1.84
-1.93
-1.99
-2.20
-2.61
-3.20
-3.85
-4.44
-4.93
-5.31
-5.59
-5.75
-5.71
-5.39
-4.78
-3.94
-3.01
-2.14
-1.41
-0.82
-0.31
0.18
0.69
1.15
1.47
1.61
1.58
1.46
1.40
1.50
1.79
2.22
2.67
3.07
3.34
3.48
3.54
3.54
3.54
3.55
3.58
3.61
3.58
3.44
3.14
2.71
2.21
1.73
1.31
0.95
0.62
0.28
-0.09
-0.44
-0.72
-0.89
-0.99
-1.08
-1.20
-1.36
-1.55
-1.74
-1.93
-2.18
-2.54
-3.04
-3.64
-4.22
-4.65
-4.80
-4.63
-4.15
-3.43
-2.52
-1.50
-0.45
0.55
1.38
1.96
2.24
2.28
2.20
2.12
2.15
2.33
2.59
2.88
3.11
3.26
3.31
3.30
3.28
3.29
3.34
3.42
3.47
3.41
3.20
2.85
2.43
2.04
1.77
1.61
1.51
1.38
1.12
0.71
0.21
-0.33
-0.80
-1.16
-1.45
-1.73
-2.06
-2.48
-2.95
-3.39
-3.74
-3.99
-4.20
-4.44
-4.73
-4.98
-5.07
-4.87
-4.32
-3.49
-2.51
-1.54
-0.71
-0.10
0.26
0.39
0.37
0.29
0.28
0.44
0.77
1.23
1.67
1.99
2.16
2.26
2.38
2.60
2.94
3.31
3.60
3.72
3.62
3.35
2.95
2.50
2.03
1.59
1.17
0.82
0.58
0.44
0.40
0.40
0.34
0.15
-0.24
-0.79
-1.44
-2.04
-2.46
-2.66
-2.69
-2.69
-2.83
-3.22
-3.87
-4.69
-5.50
-6.13
-6.46
-6.43
-6.05
-5.34
-4.39
-3.27
-2.11
-1.05
-0.23
0.29
0.55
0.65
0.73
0.86
1.07
1.29
1.41
1.40
1.27
1.14
1.10
1.22
1.46
1.75
1.98
2.09
2.11
2.08
2.07
2.08
2.06
1.95
1.70
1.33
0.95
0.67
0.57
0.64
0.78
0.85
0.75
0.46
0.06
-0.36
-0.72
-0.99
-1.22
-1.51
-1.93
-2.49
-3.14
-3.77
-4.25
-4.49
-4.49
-4.27
-3.88
-3.39
-2.83
-2.22
-1.57
-0.92
-0.30
0.28
0.81
1.32
1.78
2.16
2.42
2.51
2.43
2.25
2.10
2.08
2.23
2.49
2.76
2.92
2.92
2.79
2.61
2.46
2.38
2.35
2.36
2.36
2.35
2.31
2.18
1.94
1.54
1.06
0.59
0.27
0.16
0.17
0.15
-0.07
-0.56
-1.24
-1.96
-2.58
-3.07
-3.49
-3.93
-4.41
-4.82
-5.01
-4.82
-4.24
-3.39
-2.45
-1.62
-0.98
-0.54
-0.24
-0.02
0.14
0.28
0.42
0.61
0.92
1.34
1.86
2.38
2.77
2.97
2.95
2.75
2.47
2.18
1.95
1.80
1.73
1.74
1.83
1.96
2.10
2.17
2.11
1.89
1.53
1.08
0.55
-0.03
-0.66
-1.31
-1.92
-2.42
-2.76
-2.95
-3.03
-3.09
-3.22
-3.48
-3.86
-4.33
-4.84
-5.27
-5.51
-5.43
-4.99
-4.25
-3.31
-2.29
-1.30
-0.38
0.44
1.16
1.71
2.03
2.12
2.01
1.82
1.70
1.76
2.00
2.36
2.71
2.93
3.00
2.94
2.80
2.63
2.45
2.25
2.03
1.82
1.65
1.52
1.37
1.15
0.82
0.41
-0.00
-0.34
-0.54
-0.65
-0.72
-0.81
-0.95
-1.16
-1.43
-1.78
-2.22
-2.78
-3.43
-4.11
-4.74
-5.23
-5.53
-5.61
-5.47
-5.12
-4.58
-3.87
-3.02
-2.09
-1.15
-0.27
0.46
1.02
1.42
1.71
1.95
2.18
2.39
2.58
2.76
2.94
3.14
3.36
3.56
3.67
3.69
3.61
3.52
3.45
3.44
3.42
3.33
3.10
2.77
2.40
2.09
1.91
1.85
1.84
1.78
1.58
1.20
0.67
0.09
-0.44
-0.81
-1.03
-1.16
-1.36
-1.75
-2.37
-3.12
-3.84
-4.38
-4.63
-4.59
-4.29
-3.76
-3.01
-2.07
-1.00
0.07
0.97
1.54
1.71
1.57
1.28
1.03
0.97
1.12
1.45
1.85
2.28
2.69
3.09
3.45
3.72
3.81
3.67
3.32
2.88
2.51
2.34
2.37
2.49
2.55
2.41
2.06
1.59
1.13
0.81
0.65
0.60
0.57
0.47
0.24
-0.13
-0.65
-1.25
-1.88
-2.48
-3.00
-3.43
-3.81
-4.19
-4.55
-4.86
-4.99
-4.83
-4.31
-3.48
-2.42
-1.29
-0.23
0.69
1.40
1.87
2.08
2.01
1.72
1.32
0.96
0.81
1.00
1.53
2.30
3.09
3.71
3.97
3.85
3.44
2.90
2.43
2.13
2.01
1.95
1.86
1.64
1.31
0.95
0.65
0.48
0.41
0.36
0.25
0.06
-0.19
-0.47
-0.77
-1.12
-1.57
-2.15
-2.83
-3.52
-4.17
-4.73
-5.22
-5.61
-5.84
-5.80
-5.37
-4.54
-3.44
-2.24
-1.16
-0.30
0.31
0.73
1.02
1.22
1.37
1.53
1.73
1.98
2.28
2.54
2.73
2.84
2.93
3.04
3.18
3.30
3.34
3.27
3.17
3.10
3.11
3.16
3.15
2.97
2.60
2.10
1.55
1.02
0.55
0.15
-0.19
-0.40
-0.45
-0.35
-0.18
-0.08
-0.15
-0.44
-0.89
-1.39
-1.84
-2.18
-2.46
-2.77
-3.23
-3.90
-4.72
-5.54
-6.13
-6.26
-5.83
-4.84
-3.42
-1.84
-0.39
0.71
1.31
1.45
1.27
1.03
0.94
1.13
1.61
2.25
2.90
3.42
3.78
4.01
4.15
4.25
4.29
4.24
4.06
3.76
3.40
3.08
2.88
2.81
2.80
2.76
2.58
2.25
1.86
1.54
1.42
1.48
1.60
1.61
1.38
0.86
0.19
-0.47
-1.02
-1.44
-1.83
-2.32
-2.99
-3.80
-4.62
-5.26
-5.56
-5.47
-5.03
-4.36
-3.62
-2.89
-2.21
-1.55
-0.89
-0.25
0.31
0.67
0.81
0.77
0.69
0.72
0.95
1.36
1.81
2.15
2.31
2.30
2.23
2.21
2.31
2.47
2.63
2.70
2.63
2.44
2.22
2.00
1.82
1.67
1.51
1.30
0.99
0.58
0.10
-0.39
-0.80
-1.07
-1.18
-1.18
-1.16
-1.20
-1.37
-1.72
-2.26
-2.99
-3.86
-4.81
-5.69
-6.38
-6.72
-6.63
-6.11
-5.24
-4.12
-2.87
-1.59
-0.40
0.58
1.22
1.49
1.43
1.20
1.01
1.02
1.29
1.75
2.26
2.63
2.82
2.85
2.82
2.82
2.86
2.92
2.94
2.90
2.83
2.76
2.70
2.62
2.44
2.14
1.72
1.24
0.78
0.41
0.14
-0.05
-0.21
-0.42
-0.68
-1.00
-1.31
-1.56
-1.72
-1.83
-2.05
-2.50
-3.26
-4.27
-5.31
-6.14
-6.54
-6.44
-5.90
-5.05
-4.04
-3.04
-2.12
-1.37
-0.82
-0.44
-0.16
0.10
0.43
0.84
1.32
1.82
2.30
2.73
3.10
3.39
3.59
3.69
3.73
3.75
3.80
3.91
4.07
4.26
4.42
4.50
4.48
4.33
4.01
3.55
2.99
2.41
1.89
1.50
1.23
1.00
0.73
0.36
-0.11
-0.63
-1.15
-1.63
-2.09
-2.58
-3.15
-3.79
-4.43
-4.95
-5.27
-5.31
-5.08
-4.60
-3.92
-3.10
-2.15
-1.14
-0.12
0.79
1.51
1.96
2.15
2.13
1.99
1.83
1.67
1.53
1.37
1.21
1.09
1.08
1.26
1.60
2.02
2.37
2.54
2.47
2.20
1.85
1.55
1.37
1.34
1.37
1.36
1.26
1.01
0.63
0.16
-0.35
-0.88
-1.37
-1.79
-2.12
-2.35
-2.51
-2.71
-3.06
-3.64
-4.42
-5.26
-5.91
-6.15
-5.87
-5.13
-4.11
-3.04
-2.10
-1.36
-0.80
-0.35
0.04
0.34
0.55
0.68
0.78
0.92
1.13
1.39
1.65
1.87
2.04
2.21
2.41
2.63
2.79
2.79
2.57
2.14
1.63
1.17
0.88
0.78
0.80
0.85
0.84
0.76
0.61
0.43
0.20
-0.11
-0.53
-1.06
-1.60
-2.06
-2.39
-2.62
-2.85
-3.18
-3.65
-4.22
-4.79
-5.22
-5.43
-5.39
-5.08
-4.52
-3.74
-2.79
-1.72
-0.63
0.42
1.34
2.09
2.62
2.95
3.11
3.15
3.11
3.01
2.88
2.75
2.71
2.83
3.15
3.58
3.98
4.18
4.13
3.90
3.61
3.41
3.30
3.17
2.88
2.37
1.70
1.03
0.50
0.18
0.03
-0.07
-0.23
-0.50
-0.84
-1.22
-1.57
-1.87
-2.13
-2.38
-2.63
-2.88
-3.10
-3.20
-3.11
-2.81
-2.31
-1.68
-1.04
-0.45
0.07
0.53
0.98
1.43
1.83
2.11
2.20
2.08
1.81
1.48
1.21
1.07
1.10
1.32
1.70
2.18
2.65
3.02
3.19
3.11
2.80
2.28
1.65
0.96
0.29
-0.28
-0.69
-0.92
-1.00
-1.04
-1.12
-1.30
-1.57
-1.87
-2.18
-2.47
-2.80
-3.23
-3.82
-4.57
-5.41
-6.17
-6.64
-6.59
-5.94
-4.73
-3.19
-1.64
-0.37
0.45
0.82
0.89
0.87
0.92
1.11
1.40
1.69
1.89
1.93
1.83
1.66
1.52
1.54
1.76
2.14
2.59
2.96
3.16
3.14
2.93
2.58
2.15
1.69
1.27
0.87
0.48
0.09
-0.31
-0.72
-1.08
-1.35
-1.52
-1.62
-1.72
-1.89
-2.14
-2.49
-2.92
-3.39
-3.92
-4.46
-4.95
-5.29
-5.35
-5.06
-4.43
-3.53
-2.48
-1.42
-0.45
0.37
0.98
1.39
1.60
1.64
1.58
1.46
1.32
1.18
1.10
1.11
1.27
1.58
1.99
2.38
2.62
2.65
2.51
2.33
2.24
2.30
2.45
2.56
2.50
2.23
1.81
1.35
0.94
0.64
0.40
0.15
-0.17
-0.57
-1.03
-1.50
-1.93
-2.30
-2.61
-2.88
-3.12
-3.36
-3.60
-3.81
-3.91
-3.79
-3.43
-2.85
-2.17
-1.53
-1.02
-0.62
-0.23
0.30
1.00
1.79
2.47
2.85
2.84
2.52
2.08
1.76
1.69
1.88
2.26
2.70
3.07
3.33
3.45
3.42
3.26
2.96
2.58
2.15
1.73
1.39
1.15
1.02
0.98
0.98
0.97
0.92
0.79
0.59
0.33
0.00
-0.39
-0.86
-1.42
-2.06
-2.75
-3.43
-4.06
-4.58
-4.93
-5.08
-4.96
-4.52
-3.74
-2.68
-1.43
-0.18
0.93
1.77
2.29
2.53
2.57
2.48
2.32
2.15
2.00
1.87
1.78
1.72
1.68
1.68
1.76
1.95
2.23
2.52
2.72
2.70
2.45
2.01
1.52
1.09
0.79
0.62
0.51
0.39
0.21
-0.06
-0.41
-0.83
-1.30
-1.82
-2.36
-2.89
-3.39
-3.83
-4.20
-4.53
-4.80
-5.02
-5.16
-5.15
-4.93
-4.48
-3.80
-2.97
-2.11
-1.30
-0.61
-0.03
0.49
1.01
1.49
1.89
2.09
2.03
1.73
1.34
1.04
1.01
1.32
1.93
2.64
3.26
3.61
3.66
3.46
3.14
2.80
2.49
2.16
1.77
1.32
0.86
0.49
0.28
0.22
0.17
0.00
-0.39
-0.99
-1.64
-2.18
-2.47
-2.51
-2.39
-2.30
-2.35
-2.59
-3.00
-3.46
-3.87
-4.13
-4.16
-3.93
-3.44
-2.72
-1.86
-0.96
-0.12
0.60
1.18
1.59
1.83
1.90
1.83
1.67
1.50
1.39
1.41
1.56
1.85
2.20
2.59
2.96
3.26
3.48
3.59
3.59
3.48
3.29
3.02
2.69
2.35
2.04
1.83
1.73
1.71
1.68
1.53
1.20
0.70
0.16
-0.32
-0.61
-0.71
-0.69
-0.64
-0.65
-0.79
-1.07
-1.50
-2.09
-2.78
-3.54
-4.22
-4.68
-4.77
-4.44
-3.71
-2.69
-1.53
-0.40
0.57
1.26
1.63
1.74
1.69
1.62
1.65
1.84
2.16
2.51
2.79
2.91
2.89
2.77
2.65
2.60
2.65
2.75
2.83
2.82
2.69
2.45
2.14
1.80
1.45
1.12
0.83
0.61
0.51
0.50
0.51
0.45
0.22
-0.22
-0.81
-1.46
-2.11
-2.70
-3.26
-3.80
-4.29
-4.70
-4.97
-5.06
-4.97
-4.70
-4.27
-3.68
-2.94
-2.05
-1.07
-0.06
0.86
1.58
2.04
2.21
2.18
2.05
1.96
1.99
2.14
2.31
2.39
2.34
2.19
2.09
2.15
2.42
2.79
3.07
3.11
2.86
2.42
1.96
1.60
1.38
1.21
0.93
0.51
-0.03
-0.55
-0.94
-1.18
-1.30
-1.42
-1.57
-1.73
-1.85
-1.88
-1.88
-1.95
-2.25
-2.86
-3.76
-4.80
-5.79
-6.53
-6.90
-6.82
-6.29
-5.35
-4.10
-2.68
-1.27
-0.07
0.77
1.18
1.23
1.10
0.98
1.04
1.34
1.80
2.23
2.49
2.51
2.34
2.11
1.96
1.98
2.16
2.40
2.61
2.72
2.75
2.75
2.76
2.78
2.74
2.56
2.25
1.85
1.49
1.25
1.15
1.11
0.97
0.65
0.11
-0.53
-1.14
-1.62
-1.98
-2.31
-2.71
-3.24
-3.84
-4.37
-4.68
-4.71
-4.50
-4.14
-3.71
-3.21
-2.58
-1.75
-0.73
0.35
1.27
1.85
2.02
1.91
1.71
1.64
1.78
2.06
2.34
2.47
2.43
2.27
2.09
2.02
2.11
2.37
2.73
3.07
3.29
3.31
3.11
2.78
2.40
2.05
1.75
1.48
1.22
0.95
0.70
0.50
0.33
0.14
-0.14
-0.58
-1.14
-1.77
-2.36
-2.85
-3.20
-3.43
-3.57
-3.61
-3.54
-3.28
-2.83
-2.21
-1.50
-0.83
-0.27
0.13
0.43
0.65
0.82
0.90
0.83
0.60
0.29
0.01
-0.11
-0.03
0.24
0.60
0.95
1.25
1.50
1.73
1.94
2.13
2.21
2.12
1.86
1.49
1.12
0.84
0.69
0.63
0.56
0.45
0.27
0.09
-0.08
-0.24
-0.48
-0.90
-1.52
-2.30
-3.10
-3.81
-4.38
-4.79
-5.07
-5.21
-5.14
-4.76
-4.05
-3.09
-2.03
-1.08
-0.37
0.06
0.27
0.38
0.48
0.64
0.86
1.14
1.48
1.89
2.33
2.78
3.15
3.36
3.38
3.26
3.10
3.03
3.10
3.31
3.57
3.75
3.77
3.61
3.30
2.87
2.37
1.83
1.33
0.93
0.69
0.62
0.67
0.73
0.68
0.49
0.14
-0.35
-0.95
-1.68
-2.52
-3.42
-4.28
-4.97
-5.35
-5.39
-5.09
-4.54
-3.79
-2.92
-1.98
-1.04
-0.19
0.51
1.05
1.46
1.81
2.13
2.43
2.73
3.03
3.35
3.71
4.10
4.46
4.72
4.82
4.77
4.58
4.29
3.91
3.43
2.86
2.21
1.56
0.97
0.49
0.11
-0.22
-0.52
-0.84
-1.16
-1.45
-1.71
-1.94
-2.13
-2.33
-2.54
-2.82
-3.18
-3.63
-4.15
-4.65
-5.06
-5.30
-5.30
-5.03
-4.50
-3.75
-2.87
-1.90
-0.90
0.10
1.06
1.96
2.72
3.28
3.61
3.73
3.74
3.77
3.91
4.22
4.68
5.21
5.73
6.15
6.45
6.62
6.71
6.76
6.88
7.11
7.44
7.77
7.90
7.70
7.13
6.37
5.72
5.50
5.86
6.77
8.01
9.32
10.48
11.40
12.15
12.84
13.63
14.60
15.77
17.05
18.31
19.44
20.42
21.37
22.49
24.03
26.09
28.65
31.49
34.27
36.43
37.29
35.96
31.62
23.71
12.31
-1.77
-17.13
-32.15
-45.48
-56.28
-64.31
-69.64
-72.49
-72.99
-71.28
-67.63
-62.47
-56.36
-49.88
-43.43
-37.17
-31.17
-25.50
-20.40
-16.23
-13.36
-12.02
-12.15
-13.38
-15.17
-16.95
-18.24
-18.79
-18.52
-17.51
-15.94
-13.98
-11.77
-9.41
-6.95
-4.43
-1.91
0.50
2.70
4.60
6.14
7.32
8.19
8.82
9.27
9.62
9.93
10.26
10.62
10.99
11.30
11.50
11.56
11.48
11.29
10.98
10.55
9.97
9.26
8.47
7.71
7.07
6.60
6.26
5.97
5.63
5.14
4.49
3.74
2.98
2.30
1.70
1.10
0.43
-0.36
-1.18
-1.85
-2.14
-1.90
-1.19
-0.18
0.86
1.70
2.28
2.67
2.99
3.32
3.65
3.88
3.96
3.87
3.71
3.61
3.65
3.85
4.15
4.42
4.60
4.66
4.64
4.62
4.66
4.76
4.83
4.79
4.57
4.19
3.69
3.20
2.77
2.45
2.18
1.93
1.68
1.42
1.18
0.95
0.67
0.24
-0.42
-1.32
-2.36
-3.31
-3.97
-4.18
-3.89
-3.19
-2.28
-1.34
-0.47
0.28
0.95
1.59
2.19
2.74
3.15
3.38
3.46
3.42
3.35
3.30
3.28
3.32
3.43
3.63
3.92
4.28
4.61
4.82
4.82
4.62
4.28
3.89
3.54
3.24
3.01
2.82
2.63
2.43
2.18
1.84
1.40
0.85
0.24
-0.37
-0.93
-1.38
-1.75
-2.07
-2.39
-2.72
-3.00
-3.11
-2.95
-2.50
-1.83
-1.07
-0.38
0.16
0.56
0.88
1.18
1.47
1.72
1.88
1.93
1.91
1.84
1.77
1.73
1.72
1.78
1.91
2.10
2.28
2.39
2.36
2.23
2.04
1.85
1.65
1.35
0.91
0.32
-0.32
-0.83
-1.06
-1.00
-0.74
-0.45
-0.34
-0.54
-1.08
-1.88
-2.80
-3.68
-4.43
-4.96
-5.25
-5.31
-5.11
-4.64
-3.93
-3.06
-2.17
-1.35
-0.66
-0.09
0.42
0.89
1.28
1.55
1.66
1.66
1.65
1.74
1.96
2.27
2.56
2.69
2.62
2.32
1.85
1.29
0.74
0.31
0.08
0.05
0.15
0.26
0.25
0.04
-0.32
-0.76
-1.19
-1.54
-1.82
-2.09
-2.40
-2.74
-3.10
-3.45
-3.76
-4.09
-4.49
-5.01
-5.64
-6.24
-6.65
-6.66
-6.15
-5.17
-3.87
-2.49
-1.25
-0.27
0.45
1.00
1.48
1.91
2.25
2.48
2.60
2.65
2.71
2.83
3.04
3.29
3.54
3.74
3.87
3.94
3.91
3.78
3.53
3.18
2.80
2.44
2.16
1.97
1.84
1.75
1.66
1.53
1.34
1.05
0.63
0.08
-0.55
-1.20
-1.84
-2.43
-2.95
-3.44
-3.87
-4.24
-4.53
-4.69
-4.69
-4.50
-4.07
-3.40
-2.50
-1.43
-0.32
0.70
1.48
1.94
2.07
1.93
1.63
1.29
1.01
0.85
0.82
0.94
1.18
1.51
1.86
2.10
2.15
1.96
1.56
1.10
0.74
0.60
0.72
1.01
1.31
1.44
1.30
0.87
0.22
-0.52
-1.18
-1.65
-1.85
-1.82
-1.66
-1.57
-1.70
-2.15
-2.92
-3.82
-4.63
-5.12
-5.14
-4.71
-3.95
-3.03
-2.14
-1.36
-0.71
-0.18
0.24
0.55
0.73
0.79
0.85
1.03
1.45
2.14
3.01
3.87
4.55
4.91
4.93
4.69
4.31
3.91
3.58
3.35
3.26
3.28
3.37
3.41
3.32
3.03
2.57
2.03
1.54
1.23
1.08
1.03
0.94
0.70
0.29
-0.25
-0.81
-1.32
-1.78
-2.24
-2.76
-3.37
-4.07
-4.79
-5.41
-5.82
-5.90
-5.58
-4.86
-3.84
-2.69
-1.58
-0.64
0.11
0.70
1.19
1.61
1.93
2.12
2.19
2.17
2.17
2.27
2.51
2.89
3.32
3.71
3.95
4.01
3.88
3.64
3.40
3.20
3.06
2.93
2.76
2.50
2.18
1.82
1.45
1.07
0.69
0.30
-0.06
-0.34
-0.54
-0.73
-1.01
-1.47
-2.12
-2.87
-3.55
-4.00
-4.17
-4.12
-3.98
-3.86
-3.76
-3.60
-3.26
-2.68
-1.90
-1.09
-0.41
0.02
0.20
0.23
0.21
0.21
0.22
0.18
0.08
-0.01
0.01
0.24
0.72
1.33
1.93
2.36
2.54
2.50
2.33
2.11
1.87
1.61
1.30
0.95
0.62
0.39
0.34
0.49
0.77
1.06
1.23
1.15
0.78
0.15
-0.66
-1.54
-2.38
-3.12
-3.72
-4.19
-4.51
-4.65
-4.57
-4.28
-3.77
-3.11
-2.34
-1.49
-0.61
0.25
1.06
1.77
2.36
2.84
3.20
3.42
3.44
3.22
2.78
2.25
1.80
1.57
1.63
1.89
2.23
2.50
2.63
2.64
2.58
2.52
2.49
2.48
2.46
2.37
2.18
1.84
1.36
0.80
0.20
-0.35
-0.81
-1.17
-1.48
-1.77
-2.08
-2.43
-2.83
-3.26
-3.68
-4.06
-4.33
-4.45
-4.46
-4.45
-4.55
-4.83
-5.28
-5.79
-6.14
-6.15
-5.70
-4.81
-3.62
-2.31
-1.09
-0.06
0.71
1.22
1.52
1.67
1.76
1.88
2.09
2.38
2.70
2.95
3.08
3.11
3.12
3.22
3.48
3.87
4.29
4.58
4.69
4.60
4.39
4.16
3.96
3.80
3.64
3.45
3.20
2.92
2.66
2.44
2.22
1.93
1.50
0.90
0.21
-0.46
-0.96
-1.24
-1.37
-1.48
-1.72
-2.13
-2.68
-3.24
-3.66
-3.86
-3.80
-3.45
-2.82
-1.95
-0.90
0.17
1.11
1.80
2.20
2.36
2.38
2.35
2.32
2.31
2.30
2.29
2.26
2.21
2.16
2.12
2.09
2.08
2.06
1.99
1.83
1.60
1.35
1.16
1.09
1.12
1.16
1.11
0.91
0.56
0.13
-0.31
-0.71
-1.09
-1.45
-1.83
-2.18
-2.48
-2.68
-2.79
-2.80
-2.81
-2.86
-3.06
-3.43
-3.97
-4.58
-5.10
-5.32
-5.09
-4.37
-3.29
-2.10
-1.06
-0.34
0.02
0.16
0.24
0.42
0.75
1.19
1.62
1.94
2.07
2.02
1.83
1.60
1.45
1.46
1.67
2.02
2.40
2.70
2.82
2.75
2.54
2.25
1.96
1.67
1.38
1.10
0.85
0.64
0.48
0.32
0.07
-0.36
-1.00
-1.80
-2.63
-3.33
-3.76
-3.91
-3.80
-3.59
-3.42
-3.44
-3.76
-4.37
-5.18
-6.03
-6.70
-6.99
-6.83
-6.23
-5.29
-4.16
-2.93
-1.71
-0.53
0.53
1.43
2.10
2.49
2.59
2.45
2.17
1.89
1.75
1.82
2.13
2.60
3.11
3.53
3.81
3.95
4.00
4.00
3.97
3.88
3.69
3.39
3.00
2.53
2.01
1.44
0.88
0.38
0.01
-0.18
-0.24
-0.27
-0.40
-0.70
-1.16
-1.69
-2.19
-2.57
-2.79
-2.89
-2.92
-2.95
-3.03
-3.16
-3.35
-3.56
-3.74
-3.78
-3.61
-3.18
-2.50
-1.68
-0.84
-0.11
0.44
0.81
1.07
1.30
1.57
1.86
2.15
2.38
2.52
2.56
2.51
2.41
2.31
2.26
2.29
2.39
2.52
2.61
2.62
2.53
2.39
2.22
2.04
1.87
1.67
1.45
1.19
0.89
0.55
0.16
-0.30
-0.79
-1.26
-1.67
-1.97
-2.18
-2.35
-2.57
-2.90
-3.36
-3.86
-4.31
-4.57
-4.56
-4.27
-3.74
-3.05
-2.29
-1.51
-0.76
-0.07
0.51
0.95
1.24
1.41
1.51
1.55
1.57
1.54
1.45
1.34
1.27
1.28
1.39
1.55
1.68
1.74
1.74
1.73
1.78
1.87
1.95
1.92
1.73
1.39
1.00
0.64
0.32
0.03
-0.34
-0.84
-1.46
-2.10
-2.65
-3.04
-3.25
-3.31
-3.33
-3.38
-3.49
-3.70
-4.00
-4.40
-4.86
-5.32
-5.69
-5.82
-5.65
-5.15
-4.38
-3.47
-2.56
-1.77
-1.18
-0.81
-0.62
-0.59
-0.63
-0.66
-0.61
-0.43
-0.11
0.30
0.70
1.03
1.22
1.27
1.22
1.15
1.13
1.22
1.40
1.65
1.86
1.95
1.90
1.71
1.44
1.15
0.90
0.70
0.56
0.49
0.49
0.56
0.68
0.80
0.85
0.81
0.67
0.48
0.27
0.04
-0.23
-0.59
-1.05
-1.61
-2.19
-2.72
-3.17
-3.52
-3.81
-4.04
-4.18
-4.15
-3.82
-3.16
-2.23
-1.15
-0.09
0.81
1.51
2.02
2.40
2.68
2.86
2.92
2.85
2.70
2.55
2.46
2.51
2.68
2.96
3.24
3.46
3.54
3.45
3.19
2.83
2.43
2.07
1.81
1.68
1.68
1.74
1.81
1.81
1.73
1.57
1.37
1.16
0.92
0.64
0.28
-0.15
-0.63
-1.08
-1.46
-1.79
-2.09
-2.42
-2.83
-3.31
-3.78
-4.17
-4.35
-4.28
-3.95
-3.44
-2.84
-2.25
-1.69
-1.16
-0.64
-0.11
0.37
0.74
0.94
0.94
0.77
0.53
0.33
0.28
0.46
0.87
1.48
2.16
2.77
3.17
3.30
3.18
2.90
2.57
2.27
2.08
1.98
1.95
1.93
1.86
1.74
1.57
1.37
1.20
1.05
0.91
0.74
0.54
0.32
0.11
-0.11
-0.35
-0.65
-1.04
-1.52
-2.02
-2.51
-2.98
-3.46
-4.01
-4.61
-5.21
-5.69
-5.93
-5.89
-5.61
-5.16
-4.61
-4.00
-3.35
-2.65
-1.96
-1.30
-0.74
-0.29
0.04
0.27
0.43
0.55
0.66
0.79
0.99
1.29
1.65
2.04
2.37
2.63
2.80
2.91
3.01
3.08
3.13
3.14
3.11
3.08
3.11
3.21
3.39
3.53
3.53
3.33
2.95
2.50
2.14
1.94
1.91
1.91
1.81
1.53
1.13
0.75
0.57
0.67
0.99
1.36
1.56
1.47
1.07
0.47
-0.17
-0.74
-1.20
-1.59
-2.01
-2.55
-3.22
-3.90
-4.44
-4.64
-4.39
-3.68
-2.66
-1.53
-0.53
0.19
0.59
0.72
0.69
0.62
0.56
0.57
0.67
0.90
1.27
1.76
2.27
2.69
2.93
2.94
2.79
2.54
2.27
2.03
1.82
1.67
1.56
1.48
1.40
1.27
1.07
0.79
0.49
0.25
0.12
0.14
0.29
0.51
0.75
0.93
0.96
0.79
0.40
-0.18
-0.85
-1.52
-2.08
-2.47
-2.70
-2.78
-2.76
-2.68
-2.58
-2.46
-2.34
-2.19
-1.99
-1.72
-1.35
-0.88
-0.32
0.32
1.02
1.72
2.34
2.79
2.99
2.95
2.74
2.47
2.22
2.02
1.84
1.67
1.54
1.50
1.66
2.01
2.47
2.88
3.07
3.00
2.72
2.35
2.04
1.86
1.82
1.88
2.01
2.15
2.24
2.21
1.97
1.50
0.81
-0.01
-0.86
-1.64
-2.28
-2.77
-3.15
-3.45
-3.73
-3.99
-4.25
-4.51
-4.74
-4.93
-5.03
-5.03
-4.96
-4.83
-4.69
-4.51
-4.25
-3.84
-3.26
-2.52
-1.68
-0.82
-0.00
0.70
1.22
1.52
1.53
1.31
0.93
0.58
0.41
0.51
0.83
1.26
1.65
1.91
2.03
2.07
2.10
2.16
2.26
2.37
2.46
2.51
2.48
2.34
2.08
1.72
1.30
0.88
0.53
0.26
0.09
-0.01
-0.03
0.03
0.15
0.28
0.35
0.25
-0.05
-0.51
-1.00
-1.39
-1.61
-1.69
-1.79
-2.03
-2.46
-2.98
-3.43
-3.63
-3.51
-3.09
-2.49
-1.78
-1.04
-0.26
0.54
1.29
1.93
2.37
2.57
2.55
2.39
2.19
2.07
2.12
2.41
2.90
3.49
4.04
4.41
4.52
4.37
4.03
3.65
3.36
3.21
3.20
3.27
3.32
3.26
3.05
2.68
2.18
1.61
1.03
0.50
0.10
-0.17
-0.32
-0.44
-0.60
-0.87
-1.25
-1.63
-1.93
-2.09
-2.14
-2.15
-2.19
-2.27
-2.32
-2.28
-2.12
-1.89
-1.66
-1.49
-1.38
-1.26
-1.06
-0.77
-0.46
-0.24
-0.22
-0.42
-0.74
-1.04
-1.17
-1.06
-0.72
-0.23
0.30
0.80
1.20
1.46
1.53
1.40
1.13
0.80
0.57
0.55
0.74
1.08
1.39
1.53
1.39
0.97
0.36
-0.30
-0.89
-1.31
-1.53
-1.57
-1.51
-1.40
-1.32
-1.32
-1.43
-1.64
-1.92
-2.23
-2.54
-2.86
-3.24
-3.68
-4.17
-4.62
-4.90
-4.90
-4.58
-4.00
-3.28
-2.59
-2.03
-1.69
-1.53
-1.46
-1.37
-1.11
-0.67
-0.08
0.47
0.83
0.90
0.71
0.43
0.22
0.21
0.41
0.74
1.14
1.56
1.99
2.41
2.77
2.98
2.99
2.79
2.43
2.05
1.71
1.49
1.37
1.34
1.35
1.37
1.34
1.22
0.97
0.60
0.17
-0.23
-0.50
-0.61
-0.60
-0.58
-0.71
-1.07
-1.65
-2.33
-2.88
-3.13
-2.96
-2.42
-1.63
-0.78
-0.01
0.64
1.18
1.62
1.95
2.11
2.07
1.87
1.62
1.47
1.54
1.85
2.28
2.69
2.94
2.96
2.82
2.61
2.44
2.34
2.26
2.16
1.97
1.70
1.38
1.08
0.84
0.66
0.52
0.40
0.29
0.19
0.12
0.03
-0.14
-0.46
-0.96
-1.58
-2.16
-2.58
-2.76
-2.75
-2.72
-2.81
-3.09
-3.47
-3.78
-3.83
-3.50
-2.84
-1.98
-1.06
-0.24
0.42
0.85
1.05
1.06
0.93
0.80
0.77
0.90
1.20
1.57
1.91
2.16
2.31
2.40
2.42
2.35
2.13
1.78
1.39
1.12
1.09
1.35
1.75
2.11
2.23
2.04
1.64
1.20
0.86
0.66
0.50
0.26
-0.11
-0.58
-1.07
-1.49
-1.78
-2.01
-2.24
-2.55
-2.96
-3.40
-3.83
-4.21
-4.54
-4.83
-5.08
-5.26
-5.31
-5.14
-4.69
-3.96
-2.99
-1.92
-0.89
-0.01
0.64
1.08
1.33
1.40
1.36
1.23
1.11
1.06
1.17
1.43
1.78
2.10
2.27
2.27
2.12
1.95
1.83
1.80
1.80
1.75
1.60
1.37
1.17
1.10
1.22
1.47
1.73
1.87
1.78
1.44
0.92
0.34
-0.14
-0.41
-0.42
-0.21
0.08
0.28
0.25
-0.05
-0.53
-1.05
-1.50
-1.84
-2.13
-2.46
-2.87
-3.32
-3.68
-3.82
-3.70
-3.35
-2.86
-2.31
-1.76
-1.18
-0.51
0.25
1.08
1.88
2.54
2.97
3.16
3.15
3.01
2.82
2.64
2.50
2.46
2.55
2.79
3.14
3.50
3.78
3.92
3.91
3.81
3.67
3.54
3.46
3.41
3.39
3.39
3.35
3.23
2.94
2.42
1.70
0.88
0.12
-0.44
-0.77
-0.91
-0.98
-1.06
-1.18
-1.30
-1.41
-1.55
-1.82
-2.32
-3.06
-3.89
-4.58
-4.92
-4.78
-4.22
-3.39
-2.48
-1.63
-0.92
-0.35
0.10
0.43
0.65
0.78
0.85
0.93
1.08
1.34
1.70
2.11
2.47
2.67
2.65
2.43
2.07
1.72
1.50
1.51
1.76
2.20
2.72
3.17
3.42
3.40
3.09
2.53
1.83
1.10
0.45
-0.05
-0.38
-0.53
-0.54
-0.46
-0.33
-0.23
-0.23
-0.40
-0.77
-1.31
-1.93
-2.51
-2.93
-3.16
-3.23
-3.27
-3.40
-3.69
-4.14
-4.71
-5.29
-5.77
-6.06
-6.05
-5.73
-5.11
-4.30
-3.41
-2.58
-1.86
-1.28
-0.79
-0.35
0.05
0.43
0.78
1.08
1.35
1.58
1.77
1.89
1.93
1.92
1.92
2.02
2.27
2.64
3.06
3.39
3.54
3.49
3.33
3.18
3.12
3.17
3.30
3.41
3.44
3.36
3.19
2.96
2.74
2.52
2.34
2.19
2.07
1.93
1.72
1.36
0.80
0.06
-0.77
-1.53
-2.06
-2.29
-2.22
-2.00
-1.80
-1.79
-2.01
-2.39
-2.80
-3.09
-3.18
-3.07
-2.78
-2.38
-1.89
-1.31
-0.65
-0.01
0.50
0.77
0.75
0.53
0.28
0.20
0.39
0.83
1.40
1.90
2.20
2.26
2.12
1.92
1.77
1.74
1.83
2.00
2.19
2.32
2.33
2.21
1.95
1.58
1.11
0.60
0.13
-0.24
-0.43
-0.47
-0.40
-0.34
-0.37
-0.50
-0.73
-1.01
-1.31
-1.66
-2.07
-2.56
-3.10
-3.62
-4.06
-4.39
-4.62
-4.73
-4.70
-4.48
-4.04
-3.41
-2.68
-1.95
-1.33
-0.83
-0.46
-0.19
-0.01
0.08
0.11
0.14
0.24
0.46
0.75
1.04
1.23
1.28
1.23
1.17
1.20
1.34
1.55
1.73
1.83
1.84
1.82
1.84
1.98
2.27
2.69
3.17
3.63
4.00
4.20
4.15
3.81
3.18
2.36
1.48
0.71
0.14
-0.25
-0.55
-0.88
-1.31
-1.81
-2.32
-2.79
-3.20
-3.58
-3.96
-4.32
-4.61
-4.79
-4.84
-4.78
-4.64
-4.44
-4.17
-3.80
-3.35
-2.85
-2.31
-1.73
-1.09
-0.41
0.24
0.73
0.95
0.89
0.63
0.31
0.10
0.10
0.32
0.65
1.00
1.25
1.39
1.42
1.41
1.41
1.47
1.58
1.68
1.73
1.67
1.50
1.27
1.05
0.91
0.88
0.96
1.08
1.17
1.19
1.11
0.96
0.80
0.69
0.61
0.54
0.41
0.18
-0.12
-0.43
-0.66
-0.77
-0.75
-0.63
-0.44
-0.21
0.08
0.41
0.79
1.19
1.56
1.87
2.13
2.34
2.52
2.71
2.88
3.03
3.11
3.10
3.02
2.91
2.86
2.96
3.21
3.56
3.85
3.90
3.59
2.90
1.87
0.57
-0.90
-2.46
-4.03
-5.47
-6.63
-7.38
-7.65
-7.44
-6.79
-5.77
-4.45
-2.90
-1.23
0.38
1.72
2.64
3.04
2.95
2.45
1.65
0.65
-0.44
-1.49
-2.37
-3.00
-3.36
-3.50
-3.51
-3.42
-3.21
-2.83
-2.26
-1.53
-0.80
-0.25
0.00
-0.05
-0.33
-0.65
-0.87
-0.87
-0.62
-0.17
0.40
1.03
1.65
2.24
2.78
3.24
3.58
3.80
3.92
3.98
4.04
4.11
4.15
4.09
3.88
3.54
3.18
2.92
2.81
2.82
2.85
2.77
2.52
2.13
1.70
1.29
0.93
0.52
-0.05
-0.88
-1.98
-3.23
-4.46
-5.46
-6.14
-6.46
-6.47
-6.22
-5.77
-5.13
-4.33
-3.45
-2.61
-1.95
-1.54
-1.35
-1.30
-1.28
-1.24
-1.16
-1.06
-0.94
-0.75
-0.47
-0.10
0.27
0.55
0.65
0.59
0.47
0.43
0.56
0.82
1.12
1.30
1.29
1.08
0.77
0.49
0.34
0.35
0.44
0.48
0.35
0.01
-0.51
-1.05
-1.47
-1.68
-1.72
-1.74
-1.91
-2.32
-2.92
-3.57
-4.12
-4.47
-4.63
-4.61
-4.43
-4.05
-3.40
-2.48
-1.40
-0.32
0.55
1.08
1.26
1.18
1.00
0.89
0.92
1.11
1.40
1.74
2.05
2.32
2.50
2.60
2.61
2.54
2.42
2.24
2.03
1.81
1.56
1.30
0.99
0.60
0.15
-0.32
-0.73
-0.97
-0.97
-0.74
-0.43
-0.20
-0.24
-0.61
-1.27
-2.05
-2.82
-3.46
-3.97
-4.37
-4.72
-5.01
-5.23
-5.34
-5.34
-5.23
-5.01
-4.64
-4.08
-3.30
-2.31
-1.22
-0.17
0.73
1.41
1.90
2.26
2.55
2.75
2.81
2.71
2.49
2.21
1.97
1.84
1.84
1.92
2.06
2.21
2.41
2.67
2.99
3.33
3.56
3.55
3.25
2.73
2.19
1.82
1.73
1.85
1.98
1.89
1.46
0.78
0.01
-0.66
-1.16
-1.54
-1.91
-2.33
-2.76
-3.09
-3.25
-3.21
-3.02
-2.75
-2.45
-2.11
-1.72
-1.25
-0.67
-0.02
0.66
1.29
1.79
2.09
2.21
2.20
2.13
2.06
2.04
2.10
2.21
2.35
2.47
2.50
2.38
2.12
1.79
1.51
1.37
1.41
1.58
1.76
1.86
1.83
1.68
1.46
1.23
1.00
0.79
0.57
0.30
-0.06
-0.52
-1.05
-1.57
-1.96
-2.16
-2.16
-2.02
-1.87
-1.79
-1.78
-1.75
-1.60
-1.27
-0.77
-0.19
0.38
0.91
1.38
1.79
2.09
2.21
2.07
1.70
1.21
0.79
0.60
0.70
1.01
1.36
1.57
1.50
1.13
0.52
-0.17
-0.75
-1.07
-1.07
-0.81
-0.40
-0.01
0.27
0.41
0.44
0.41
0.30
0.06
-0.38
-1.02
-1.77
-2.52
-3.16
-3.63
-3.91
-4.02
-3.94
-3.66
-3.19
-2.60
-1.98
-1.40
-0.91
-0.46
-0.01
0.48
0.98
1.41
1.70
1.84
1.86
1.87
1.98
2.25
2.69
3.22
3.71
4.02
4.05
3.73
3.08
2.15
1.09
0.03
-0.87
-1.50
-1.87
-2.01
-2.05
-2.07
-2.14
-2.25
-2.35
-2.41
-2.41
-2.39
-2.42
-2.52
-2.68
-2.85
-3.00
-3.09
-3.16
-3.22
-3.25
-3.20
-2.99
-2.56
-1.92
-1.20
-0.53
-0.07
0.13
0.11
-0.00
-0.08
-0.01
0.21
0.55
0.93
1.30
1.61
1.84
2.00
2.11
2.17
2.18
2.12
1.98
1.79
1.59
1.43
1.36
1.34
1.30
1.11
0.69
0.04
-0.72
-1.37
-1.71
-1.64
-1.21
-0.66
-0.24
-0.20
-0.62
-1.41
-2.33
-3.11
-3.52
-3.45
-2.94
-2.15
-1.25
-0.41
0.29
0.82
1.19
1.44
1.59
1.67
1.70
1.68
1.65
1.63
1.65
1.75
1.93
2.17
2.42
2.64
2.82
2.97
3.14
3.33
3.50
3.56
3.43
3.06
2.50
1.89
1.38
1.06
0.95
0.97
0.97
0.83
0.50
0.02
-0.52
-0.97
-1.29
-1.52
-1.75
-2.09
-2.57
-3.12
-3.60
-3.86
-3.80
-3.41
-2.78
-2.07
-1.40
-0.87
-0.47
-0.13
0.23
0.65
1.10
1.52
1.82
1.97
1.97
1.88
1.75
1.62
1.52
1.46
1.45
1.51
1.62
1.79
1.96
2.07
2.09
2.00
1.83
1.65
1.48
1.33
1.17
0.95
0.64
0.26
-0.15
-0.53
-0.84
-1.07
-1.25
-1.39
-1.53
-1.67
-1.85
-2.09
-2.40
-2.76
-3.16
-3.56
-3.91
-4.19
-4.35
-4.32
-4.01
-3.37
-2.41
-1.27
-0.13
0.79
1.34
1.53
1.46
1.27
1.12
1.07
1.12
1.25
1.46
1.74
2.11
2.47
2.73
2.76
2.54
2.16
1.78
1.58
1.60
1.78
1.97
2.03
1.92
1.67
1.41
1.22
1.14
1.16
1.22
1.24
1.13
0.83
0.31
-0.39
-1.19
-1.98
-2.63
-3.11
-3.37
-3.46
-3.45
-3.39
-3.37
-3.46
-3.74
-4.18
-4.69
-5.12
-5.28
-5.05
-4.41
-3.44
-2.28
-1.07
0.08
1.05
1.74
2.05
1.93
1.45
0.81
0.25
-0.04
-0.04
0.14
0.31
0.37
0.39
0.57
1.03
1.79
2.66
3.37
3.71
3.67
3.40
3.11
2.98
3.03
3.15
3.22
3.11
2.82
2.35
1.81
1.30
0.96
0.87
1.02
1.32
1.59
1.67
1.50
1.14
0.77
0.56
0.58
0.80
1.05
1.17
1.08
0.79
0.39
-0.03
-0.38
-0.63
-0.73
-0.66
-0.35
0.20
0.91
1.63
2.17
2.38
2.19
1.68
1.01
0.34
-0.18
-0.49
-0.60
-0.57
-0.46
-0.36
-0.31
-0.29
-0.22
-0.02
0.36
0.88
1.40
1.74
1.80
1.58
1.16
0.66
0.18
-0.26
-0.70
-1.18
-1.69
-2.18
-2.58
-2.83
-2.96
-3.02
-3.05
-3.11
-3.20
-3.30
-3.37
-3.40
-3.39
-3.38
-3.42
-3.54
-3.76
-4.06
-4.39
-4.71
-4.98
-5.18
-5.30
-5.31
-5.14
-4.75
-4.07
-3.12
-1.99
-0.82
0.24
1.09
1.66
1.99
2.13
2.16
2.15
2.15
2.21
2.35
2.56
2.83
3.14
3.46
3.78
4.08
4.34
4.54
4.66
4.71
4.68
4.58
4.42
4.19
3.92
3.61
3.29
3.00
2.75
2.53
2.31
2.07
1.76
1.41
1.01
0.59
0.18
-0.21
-0.59
-1.00
-1.44
-1.88
-2.27
-2.54
-2.66
-2.66
-2.61
-2.63
-2.84
-3.25
-3.82
-4.45
-5.01
-5.38
-5.50
-5.33
-4.92
-4.32
-3.62
-2.88
-2.11
-1.34
-0.61
0.01
0.40
0.53
0.40
0.16
-0.05
-0.08
0.10
0.43
0.80
1.11
1.35
1.56
1.78
2.02
2.24
2.34
2.28
2.07
1.76
1.48
1.32
1.30
1.39
1.47
1.45
1.29
1.03
0.78
0.65
0.70
0.89
1.16
1.39
1.54
1.57
1.51
1.38
1.23
1.07
0.92
0.76
0.60
0.42
0.23
0.03
-0.19
-0.43
-0.75
-1.16
-1.65
-2.18
-2.65
-2.99
-3.15
-3.13
-2.95
-2.57
-1.96
-1.09
0.03
1.28
2.47
3.42
4.03
4.32
4.42
4.52
4.78
5.30
6.10
7.13
8.27
9.40
10.42
11.29
12.09
12.98
14.13
15.64
17.48
19.49
21.45
23.16
24.53
25.67
26.84
28.33
30.35
32.90
35.78
38.65
41.20
43.25
44.83
46.14
47.50
49.31
51.96
55.74
60.55
65.66
69.58
70.32
66.05
55.82
40.07
20.57
-0.18
-19.82
-36.78
-50.49
-61.03
-68.67
-73.57
-75.77
-75.45
-73.14
-69.68
-65.99
-62.69
-59.94
-57.45
-54.75
-51.53
-47.81
-43.94
-40.41
-37.59
-35.55
-34.04
-32.58
-30.63
-27.86
-24.19
-19.81
-15.11
-10.56
-6.51
-3.21
-0.71
1.05
2.25
3.08
3.72
4.29
4.83
5.28
5.59
5.68
5.53
5.18
4.71
4.22
3.74
3.25
2.71
2.09
1.38
0.63
-0.08
-0.71
-1.25
-1.71
-2.10
-2.40
-2.59
-2.62
-2.50
-2.29
-2.03
-1.79
-1.59
-1.41
-1.26
-1.19
-1.23
-1.42
-1.73
-2.03
-2.18
-2.08
-1.70
-1.10
-0.34
0.56
1.61
2.84
4.18
5.54
6.76
7.77
8.60
9.40
10.42
11.86
13.83
16.23
18.83
21.33
23.44
25.03
26.14
26.99
27.85
29.02
30.69
32.96
35.82
39.16
42.75
46.32
49.59
52.41
54.79
56.93
59.19
61.76
64.48
66.65
67.07
64.40
57.59
46.32
31.19
13.58
-4.79
-22.20
-37.36
-49.53
-58.50
-64.53
-68.16
-70.11
-71.10
-71.66
-72.09
-72.43
-72.62
-72.63
-72.59
-72.75
-73.39
-74.69
-76.53
-78.46
-79.66
-79.22
-76.48
-71.42
-64.84
-58.18
-53.00
-50.36
-50.39
-52.25
-54.62
-56.23
-56.35
-54.91
-52.33
-49.22
-46.15
-43.64
-42.16
-42.14
-43.86
-47.15
-51.29
-54.93
-56.40
-54.23
-47.69
-37.12
-23.87
-9.85
3.13
13.84
21.93
27.73
31.87
34.87
36.97
38.11
38.20
37.25
35.51
33.35
31.18
29.22
27.55
26.14
24.94
23.97
23.32
23.07
23.17
23.43
23.54
23.23
22.40
21.15
19.75
18.53
17.73
17.45
17.61
18.09
18.72
19.34
19.81
20.02
19.89
19.40
18.65
17.77
16.89
16.12
15.53
15.13
14.93
14.94
15.14
15.43
15.64
15.62
15.21
14.41
13.28
12.00
10.71
9.52
8.46
7.52
6.64
5.79
4.94
4.07
3.15
2.19
1.21
0.31
-0.41
-0.82
-0.89
-0.64
-0.20
0.27
0.63
0.82
0.90
0.98
1.20
1.58
2.12
2.69
3.22
3.64
3.97
4.20
4.35
4.40
4.32
4.09
3.76
3.40
3.10
2.88
2.76
2.72
2.75
2.87
3.09
3.44
3.90
4.42
4.92
5.31
5.54
5.59
5.52
5.40
5.34
5.41
5.68
6.13
6.71
7.30
7.76
7.96
7.82
7.35
6.64
5.80
4.96
4.16
3.37
2.55
1.71
0.92
0.34
0.12
0.33
0.93
1.81
2.82
3.84
4.82
5.74
6.54
7.15
7.50
7.56
7.37
7.01
6.54
6.01
5.46
4.94
4.57
4.46
4.73
5.38
6.28
7.20
7.88
8.15
7.97
7.42
6.66
5.82
5.00
4.22
3.48
2.79
2.19
1.71
1.40
1.26
1.26
1.36
1.51
1.69
1.83
1.83
1.57
0.94
-0.08
-1.40
-2.85
-4.22
-5.36
-6.13
-6.45
-6.27
-5.55
-4.38
-2.94
-1.46
-0.20
0.73
1.32
1.69
1.99
2.31
2.63
2.91
3.13
3.35
3.66
4.15
4.78
5.44
5.96
6.21
6.17
5.90
5.54
5.19
4.92
4.75
4.66
4.64
4.70
4.83
4.99
5.10
5.05
4.74
4.14
3.33
2.44
1.66
1.11
0.82
0.72
0.64
0.48
0.16
-0.26
-0.70
-1.08
-1.37
-1.64
-1.97
-2.49
-3.21
-4.11
-5.03
-5.76
-6.12
-6.00
-5.45
-4.61
-3.66
-2.74
-1.94
-1.24
-0.63
-0.08
0.45
0.97
1.52
2.11
2.76
3.40
3.97
4.38
4.58
4.59
4.50
4.42
4.42
4.58
4.87
5.23
5.54
5.71
5.66
5.42
5.03
4.58
4.14
3.79
3.59
3.58
3.75
4.01
4.23
4.28
4.09
3.70
3.24
2.85
2.60
2.49
2.42
2.30
2.07
1.72
1.25
0.70
0.10
-0.48
-0.98
-1.34
-1.56
-1.76
-2.07
-2.62
-3.46
-4.49
-5.54
-6.35
-6.71
-6.45
-5.55
-4.08
-2.26
-0.36
1.30
2.45
2.96
2.85
2.30
1.55
0.86
0.41
0.26
0.37
0.63
0.92
1.13
1.22
1.17
1.03
0.80
0.54
0.26
-0.01
-0.22
-0.35
-0.38
-0.29
-0.08
0.22
0.62
1.12
1.75
2.51
3.37
4.24
5.03
5.61
5.89
5.83
5.40
4.64
3.55
2.19
0.68
-0.87
-2.32
-3.57
-4.63
-5.57
-6.44
-7.24
-7.88
-8.22
-8.14
-7.59
-6.65
-5.49
-4.28
-3.18
-2.27
-1.59
-1.11
-0.75
-0.49
-0.29
-0.17
-0.13
-0.14
-0.16
-0.07
0.17
0.60
1.11
1.60
1.95
2.12
2.16
2.17
2.22
2.34
2.48
2.59
2.64
2.66
2.74
2.95
3.28
3.65
3.95
4.08
4.02
3.88
3.76
3.75
3.81
3.84
3.68
3.24
2.53
1.65
0.75
-0.05
-0.72
-1.26
-1.71
-2.09
-2.43
-2.76
-3.10
-3.46
-3.79
-4.02
-4.06
-3.87
-3.46
-2.92
-2.35
-1.83
-1.36
-0.95
-0.57
-0.23
-0.01
0.01
-0.23
-0.72
-1.39
-2.05
-2.52
-2.67
-2.50
-2.13
-1.76
-1.52
-1.45
-1.43
-1.33
-1.09
-0.80
-0.62
-0.73
-1.16
-1.80
-2.44
-2.90
-3.11
-3.19
-3.30
-3.55
-3.94
-4.36
-4.67
-4.79
-4.81
-4.85
-5.04
-5.35
-5.65
-5.74
-5.50
-4.99
-4.46
-4.18
-4.39
-5.13
-6.24
-7.44
-8.44
-9.05
-9.17
-8.79
-7.98
-6.78
-5.29
-3.64
-2.08
-0.87
-0.19
-0.12
-0.52
-1.11
-1.58
-1.69
-1.33
-0.55
0.51
1.67
2.78
3.75
4.51
5.03
5.32
5.37
5.23
4.94
4.60
4.30
4.14
4.21
4.51
4.99
5.56
6.11
6.57
6.89
7.05
7.02
6.80
6.41
5.88
5.25
4.56
3.84
3.08
2.32
1.61
1.07
0.80
0.84
1.14
1.54
1.87
1.96
1.73
1.16
0.29
-0.81
-2.03
-3.22
-4.22
-4.86
-5.03
-4.70
-3.94
-2.88
-1.67
-0.47
0.58
1.36
1.77
1.78
1.40
0.77
0.05
-0.55
-0.89
-0.91
-0.60
-0.04
0.69
1.48
2.24
2.89
3.35
3.55
3.47
3.15
2.63
2.02
1.39
0.81
0.32
-0.06
-0.33
-0.47
-0.51
-0.49
-0.48
-0.56
-0.74
-1.02
-1.38
-1.80
-2.29
-2.85
-3.46
-4.04
-4.51
-4.78
-4.87
-4.85
-4.83
-4.91
-5.07
-5.23
-5.25
-5.04
-4.59
-3.96
-3.25
-2.57
-1.94
-1.39
-0.93
-0.57
-0.30
-0.13
0.00
0.17
0.41
0.74
1.08
1.34
1.44
1.38
1.26
1.20
1.31
1.62
2.05
2.47
2.77
2.90
2.88
2.76
2.58
2.32
1.97
1.48
0.88
0.26
-0.25
-0.56
-0.66
-0.65
-0.68
-0.88
-1.31
-1.97
-2.73
-3.46
-4.01
-4.28
-4.27
-4.11
-3.97
-4.03
-4.35
-4.83
-5.28
-5.45
-5.23
-4.64
-3.86
-3.10
-2.47
-1.98
-1.59
-1.25
-0.94
-0.71
-0.54
-0.36
-0.06
0.42
1.03
1.66
2.16
2.46
2.59
2.67
2.78
2.96
3.15
3.28
3.29
3.17
2.98
2.78
2.61
2.49
2.44
2.43
2.48
2.56
2.65
2.72
2.75
2.73
2.61
2.34
1.85
1.11
0.21
-0.70
-1.37
-1.62
-1.37
-0.76
-0.06
0.42
0.37
-0.33
-1.65
-3.41
-5.29
-6.94
-8.04
-8.36
-7.80
-6.45
-4.55
-2.43
-0.44
1.14
2.12
2.45
2.21
1.56
0.77
0.06
-0.37
-0.43
-0.12
0.52
1.39
2.38
3.40
4.32
5.06
5.55
5.73
5.57
5.04
4.17
3.06
1.87
0.80
0.06
-0.26
-0.12
0.37
1.05
1.73
2.20
2.33
2.04
1.36
0.37
-0.74
-1.84
-2.76
-3.44
-3.85
-4.01
-3.95
-3.74
-3.45
-3.12
-2.77
-2.38
-1.94
-1.41
-0.85
-0.30
0.18
0.59
0.95
1.28
1.54
1.68
1.61
1.34
0.96
0.65
0.60
0.90
1.49
2.14
2.55
2.53
2.04
1.24
0.39
-0.26
-0.59
-0.61
-0.44
-0.18
0.13
0.50
0.93
1.38
1.71
1.76
1.42
0.69
-0.32
-1.39
-2.32
-2.94
-3.24
-3.30
-3.33
-3.53
-4.00
-4.72
-5.49
-6.09
-6.34
-6.20
-5.76
-5.18
-4.55
-3.90
-3.20
-2.44
-1.65
-0.90
-0.29
0.15
0.43
0.58
0.64
0.63
0.55
0.44
0.37
0.43
0.68
1.14
1.73
2.36
2.90
3.25
3.41
3.40
3.32
3.23
3.18
3.10
2.93
2.62
2.20
1.80
1.55
1.56
1.79
2.11
2.32
2.24
1.82
1.12
0.33
-0.36
-0.84
-1.08
-1.14
-1.13
-1.13
-1.17
-1.24
-1.33
-1.40
-1.44
-1.45
-1.36
-1.12
-0.68
-0.06
0.62
1.19
1.49
1.46
1.16
0.80
0.56
0.58
0.85
1.25
1.64
1.92
2.07
2.13
2.15
2.15
2.11
2.04
1.97
1.95
2.04
2.19
2.33
2.34
2.14
1.74
1.21
0.67
0.25
0.03
-0.01
0.08
0.19
0.23
0.16
-0.01
-0.25
-0.48
-0.71
-0.95
-1.23
-1.57
-1.93
-2.24
-2.45
-2.53
-2.51
-2.41
-2.23
-1.93
-1.50
-0.96
-0.38
0.14
0.51
0.73
0.84
0.92
1.05
1.24
1.46
1.64
1.72
1.70
1.58
1.43
1.30
1.27
1.36
1.54
1.75
1.91
1.96
1.87
1.67
1.43
1.19
0.98
0.82
0.69
0.58
0.50
0.41
0.24
-0.09
-0.64
-1.37
-2.19
-2.92
-3.42
-3.61
-3.53
-3.32
-3.13
-3.07
-3.22
-3.56
-4.00
-4.43
-4.69
-4.65
-4.22
-3.44
-2.47
-1.49
-0.69
-0.10
0.35
0.82
1.43
2.20
3.03
3.73
4.22
4.51
4.74
5.08
5.59
6.22
6.80
7.22
7.44
7.63
7.97
8.64
9.65
10.94
12.35
13.76
15.13
16.42
17.66
18.86
20.04
21.30
22.75
24.50
26.55
28.82
31.15
33.42
35.59
37.73
39.95
42.32
44.83
47.38
49.84
52.05
53.85
55.05
55.42
54.68
52.66
49.34
44.86
39.51
33.60
27.34
20.80
13.92
6.60
-1.25
-9.63
-18.51
-27.83
-37.48
-47.28
-56.85
-65.60
-72.86
-78.01
-80.80
-81.40
-80.37
-78.38
-75.94
-73.20
-69.93
-65.71
-60.26
-53.55
-45.83
-37.51
-28.88
-20.03
-10.80
-0.98
9.52
20.54
31.68
42.45
52.44
61.49
69.64
77.06
83.91
90.21
95.82
100.48
103.75
104.98
103.33
97.94
88.26
74.34
57.08
38.07
19.14
1.84
-12.95
-25.08
-34.90
-42.93
-49.63
-55.34
-60.46
-65.51
-71.13
-77.88
-86.01
-95.32
-105.16
-114.67
-123.13
-130.37
-136.93
-143.95
-152.70
-163.89
-177.12
-190.62
-201.70
-207.49
-205.90
-196.18
-179.07
-156.41
-130.51
-103.55
-77.12
-51.94
-27.94
-4.44
19.31
43.68
68.22
91.57
111.83
127.12
136.29
139.14
136.38
129.17
118.71
105.88
91.30
75.56
59.52
44.35
31.40
21.79
16.04
13.86
14.33
16.29
18.83
21.51
24.31
27.36
30.76
34.41
38.19
42.11
46.43
51.59
57.94
65.49
73.82
82.08
89.21
94.11
95.78
93.44
86.62
75.36
60.34
42.92
24.91
8.19
-5.86
-16.73
-24.84
-31.23
-37.00
-42.77
-48.46
-53.43
-56.89
-58.49
-58.50
-57.75
-57.23
-57.55
-58.65
-59.79
-59.93
-58.20
-54.28
-48.49
-41.55
-34.20
-26.93
-19.91
-13.13
-6.61
-0.60
4.53
8.48
11.18
12.92
14.17
15.41
16.85
18.37
19.55
19.93
19.14
17.05
13.80
9.67
5.05
0.28
-4.31
-8.45
-11.86
-14.31
-15.59
-15.64
-14.56
-12.64
-10.34
-8.15
-6.47
-5.47
-5.07
-4.97
-4.76
-4.03
-2.49
-0.07
3.10
6.66
10.10
12.93
14.73
15.33
14.83
13.53
11.82
9.97
8.12
6.25
4.35
2.46
0.77
-0.50
-1.21
-1.36
-1.13
-0.71
-0.25
0.20
0.65
1.12
1.53
1.72
1.50
0.78
-0.44
-2.06
-3.88
-5.69
-7.26
-8.36
-8.82
-8.54
-7.61
-6.24
-4.78
-3.58
-2.86
-2.67
-2.89
-3.31
-3.74
-4.11
-4.39
-4.58
-4.59
-4.26
-3.44
-2.05
-0.16
2.03
4.30
6.44
8.35
9.95
11.20
12.09
12.60
12.76
12.66
12.41
12.13
11.93
11.83
11.83
11.85
11.77
11.44
10.74
9.63
8.18
6.55
4.93
3.47
2.25
1.21
0.27
-0.68
-1.69
-2.76
-3.81
-4.72
-5.30
-5.41
-4.94
-3.92
-2.51
-1.01
0.29
1.18
1.57
1.52
1.16
0.61
-0.03
-0.68
-1.24
-1.59
-1.62
-1.21
-0.36
0.89
2.41
4.08
5.74
7.27
8.53
9.39
9.75
9.54
8.83
7.76
6.54
5.39
4.44
3.72
3.16
2.71
2.31
1.97
1.73
1.59
1.50
1.42
1.30
1.16
1.05
1.01
1.00
0.93
0.65
0.09
-0.73
-1.70
-2.64
-3.38
-3.82
-3.92
-3.68
-3.10
-2.14
-0.84
0.74
2.44
4.05
5.37
6.29
6.78
6.93
6.83
6.57
6.19
5.67
4.98
4.15
3.22
2.27
1.39
0.64
0.03
-0.48
-0.91
-1.25
-1.45
-1.44
-1.18
-0.66
0.01
0.71
1.28
1.58
1.50
1.05
0.30
-0.61
-1.49
-2.16
-2.46
-2.31
-1.69
-0.66
0.71
2.26
3.82
5.20
6.22
6.75
6.75
6.29
5.51
4.55
3.55
2.55
1.56
0.54
-0.50
-1.48
-2.29
-2.80
-2.94
-2.73
-2.21
-1.50
-0.70
0.09
0.80
1.34
1.70
1.91
2.03
2.13
2.25
2.34
2.34
2.15
1.73
1.06
0.21
-0.70
-1.52
-2.13
-2.44
-2.45
-2.23
-1.88
-1.52
-1.20
-0.94
-0.72
-0.54
-0.38
-0.24
-0.06
0.23
0.73
1.44
2.31
3.22
3.98
4.43
4.49
4.14
3.47
2.60
1.66
0.72
-0.20
-1.18
-2.34
-3.72
-5.30
-6.94
-8.41
-9.51
-10.14
-10.30
-10.12
-9.76
-9.27
-8.60
-7.60
-6.09
-4.02
-1.47
1.29
3.86
5.88
7.13
7.60
7.48
7.04
6.53
6.09
5.71
5.30
4.83
4.33
3.90
3.63
3.51
3.41
3.18
2.72
2.04
1.30
0.66
0.25
0.08
0.05
0.03
-0.09
-0.36
-0.76
-1.24
-1.73
-2.18
-2.56
-2.90
-3.23
-3.58
-3.92
-4.20
-4.30
-4.14
-3.71
-3.13
-2.55
-2.11
-1.86
-1.73
-1.61
-1.37
-0.99
-0.50
0.04
0.54
0.99
1.40
1.81
2.23
2.64
2.99
3.25
3.42
3.53
3.65
3.80
3.99
4.15
4.20
4.04
3.63
2.96
2.11
1.15
0.21
-0.68
-1.51
-2.31
-3.14
-3.99
-4.82
-5.57
-6.15
-6.47
-6.46
-6.13
-5.48
-4.60
-3.61
-2.63
-1.80
-1.18
-0.77
-0.50
-0.28
-0.05
0.18
0.32
0.32
0.16
-0.06
-0.15
0.00
0.42
0.95
1.38
1.48
1.22
0.71
0.21
-0.09
-0.09
0.12
0.40
0.60
0.68
0.68
0.64
0.59
0.50
0.28
-0.15
-0.82
-1.69
-2.63
-3.43
-3.85
-3.74
-3.06
-2.01
-0.88
0.01
0.51
0.63
0.56
0.46
0.41
0.40
0.37
0.27
0.20
0.21
0.35
0.53
0.59
0.41
-0.03
-0.62
-1.17
-1.50
-1.56
-1.37
-1.06
-0.77
-0.64
-0.74
-1.07
-1.54
-2.03
-2.41
-2.64
-2.76
-2.90
-3.17
-3.63
-4.25
-4.86
-5.26
-5.25
-4.73
-3.71
-2.34
-0.85
0.55
1.71
2.61
3.30
3.87
4.42
4.99
5.58
6.20
6.78
7.25
7.43
7.13
6.20
4.62
2.56
0.37
-1.58
-2.93
-3.56
-3.51
-2.98
-2.21
-1.39
-0.62
0.08
0.70
1.14
1.28
0.99
0.25
-0.78
-1.79
-2.46
-2.59
-2.17
-1.43
-0.66
-0.12
0.14
0.25
0.40
0.74
1.24
1.73
2.01
1.95
1.57
1.07
0.66
0.50
0.58
0.77
0.81
0.50
-0.25
-1.32
-2.43
-3.26
-3.54
-3.20
-2.35
-1.26
-0.21
0.64
1.20
1.50
1.55
1.33
0.79
-0.06
-1.10
-2.15
-3.04
-3.68
-4.08
-4.32
-4.44
-4.37
-4.02
-3.31
-2.27
-1.07
0.08
0.99
1.62
2.01
2.22
2.27
2.08
1.62
0.93
0.19
-0.40
-0.61
-0.37
0.25
1.04
1.75
2.14
2.03
1.42
0.45
-0.62
-1.47
-1.86
-1.73
-1.22
-0.57
-0.03
0.30
0.42
0.41
0.31
0.11
-0.24
-0.76
-1.35
-1.88
-2.19
-2.18
-1.82
-1.21
-0.50
0.13
0.58
0.80
0.87
0.87
0.91
1.00
1.09
1.07
0.87
0.51
0.07
-0.29
-0.47
-0.42
-0.17
0.15
0.40
0.43
0.17
-0.34
-0.92
-1.38
-1.56
-1.41
-1.01
-0.54
-0.14
0.08
0.10
-0.04
-0.34
-0.77
-1.33
-1.91
-2.38
-2.59
-2.46
-1.97
-1.24
-0.43
0.32
0.91
1.33
1.66
2.02
2.49
3.11
3.78
4.38
4.74
4.74
4.39
3.80
3.11
2.49
1.98
1.59
1.27
0.96
0.63
0.30
0.02
-0.15
-0.14
0.05
0.39
0.80
1.15
1.32
1.20
0.71
-0.16
-1.34
-2.69
-3.94
-4.84
-5.20
-4.97
-4.28
-3.32
-2.33
-1.43
-0.68
-0.09
0.31
0.47
0.38
0.12
-0.17
-0.29
-0.14
0.25
0.73
1.12
1.30
1.27
1.13
0.97
0.84
0.76
0.72
0.73
0.80
0.96
1.21
1.48
1.72
1.87
1.91
1.83
1.65
1.41
1.12
0.81
0.45
0.06
-0.38
-0.85
-1.35
-1.87
-2.44
-3.04
-3.63
-4.09
-4.27
-4.06
-3.44
-2.50
-1.43
-0.43
0.33
0.82
1.08
1.20
1.26
1.28
1.28
1.28
1.30
1.39
1.55
1.75
1.90
1.94
1.86
1.72
1.60
1.57
1.60
1.62
1.57
1.42
1.20
1.01
0.92
0.94
1.00
1.00
0.76
0.20
-0.72
-1.94
-3.22
-4.29
-4.87
-4.80
-4.10
-2.99
-1.77
-0.71
0.07
0.65
1.19
1.81
2.52
3.17
3.53
3.43
2.85
1.93
0.93
0.09
-0.40
-0.50
-0.24
0.28
0.94
1.66
2.34
2.87
3.17
3.17
2.88
2.37
1.78
1.25
0.91
0.79
0.84
0.99
1.15
1.29
1.42
1.56
1.74
1.90
1.96
1.82
1.41
0.73
-0.16
-1.15
-2.12
-2.99
-3.69
-4.19
-4.42
-4.37
-4.01
-3.37
-2.52
-1.58
-0.67
0.07
0.57
0.81
0.83
0.78
0.80
0.99
1.37
1.82
2.17
2.27
2.07
1.68
1.29
1.05
0.99
1.03
1.02
0.85
0.54
0.23
0.07
0.10
0.25
0.30
0.09
-0.44
-1.17
-1.89
-2.39
-2.59
-2.57
-2.48
-2.46
-2.57
-2.74
-2.86
-2.83
-2.60
-2.22
-1.75
-1.24
-0.72
-0.16
0.44
1.09
1.77
2.40
2.92
3.25
3.35
3.20
2.84
2.34
1.83
1.43
1.23
1.24
1.39
1.60
1.75
1.82
1.82
1.79
1.78
1.80
1.81
1.75
1.60
1.39
1.17
1.03
0.97
0.98
0.97
0.87
0.60
0.17
-0.37
-0.94
-1.45
-1.84
-2.07
-2.16
-2.12
-1.95
-1.68
-1.35
-1.01
-0.78
-0.71
-0.80
-0.99
-1.13
-1.06
-0.72
-0.14
0.52
1.08
1.40
1.44
1.27
1.02
0.83
0.79
0.90
1.15
1.48
1.81
2.07
2.20
2.16
1.96
1.65
1.28
0.94
0.68
0.53
0.51
0.61
0.84
1.14
1.43
1.59
1.52
1.18
0.65
0.10
-0.28
-0.34
-0.06
0.44
0.95
1.27
1.26
0.88
0.19
-0.68
-1.58
-2.38
-2.99
-3.39
-3.65
-3.85
-4.08
-4.35
-4.60
-4.72
-4.59
-4.13
-3.37
-2.40
-1.41
-0.54
0.09
0.46
0.62
0.67
0.70
0.76
0.86
0.97
1.04
1.06
1.08
1.12
1.19
1.24
1.19
0.98
0.62
0.23
-0.06
-0.14
0.02
0.34
0.71
1.02
1.20
1.23
1.08
0.76
0.32
-0.14
-0.51
-0.73
-0.80
-0.84
-0.96
-1.23
-1.64
-2.06
-2.33
-2.31
-1.90
-1.09
0.05
1.33
2.45
3.13
3.19
2.69
1.86
1.03
0.45
0.17
0.07
-0.08
-0.41
-1.00
-1.82
-2.82
-3.96
-5.13
-6.16
-6.77
-6.71
-5.91
-4.48
-2.74
-0.99
0.57
1.89
3.01
3.93
4.57
4.78
4.44
3.59
2.41
1.25
0.40
0.07
0.29
0.91
1.70
2.39
2.81
2.87
2.64
2.26
1.91
1.74
1.76
1.91
2.08
2.19
2.19
2.09
1.88
1.52
0.93
0.06
-1.08
-2.33
-3.56
-4.63
-5.51
-6.28
-7.05
-7.89
-8.77
-9.59
-10.19
-10.45
-10.28
-9.65
-8.53
-6.91
-4.86
-2.51
-0.06
2.22
4.15
5.61
6.64
7.35
7.85
8.23
8.52
8.67
8.62
8.34
7.88
7.31
6.70
6.13
5.63
5.21
4.84
4.49
4.12
3.72
3.29
2.88
2.52
2.24
2.05
1.93
1.81
1.62
1.35
1.01
0.70
0.45
0.31
0.24
0.18
0.03
-0.22
-0.58
-1.03
-1.50
-1.99
-2.45
-2.88
-3.23
-3.45
-3.49
-3.30
-2.87
-2.26
-1.53
-0.75
-0.02
0.60
1.07
1.37
1.50
1.50
1.40
1.28
1.19
1.17
1.23
1.36
1.52
1.69
1.86
2.05
2.27
2.47
2.59
2.56
2.35
1.98
1.52
1.03
0.55
0.10
-0.29
-0.55
-0.61
-0.41
-0.02
0.45
0.82
1.05
1.16
1.27
1.48
1.78
2.05
2.15
2.05
1.83
1.66
1.68
1.94
2.35
2.79
3.20
3.63
4.22
5.06
6.08
7.02
7.52
7.28
6.21
4.44
2.27
0.06
-1.86
-3.27
-4.04
-4.14
-3.63
-2.63
-1.29
0.28
2.07
4.17
6.66
9.50
12.43
15.01
16.75
17.31
16.59
14.73
12.05
8.97
5.90
3.23
1.27
0.18
-0.06
0.35
1.11
1.95
2.72
3.38
3.95
4.37
4.49
4.06
2.90
1.03
-1.26
-3.51
-5.27
-6.28
-6.62
-6.61
-6.67
-7.06
-7.82
-8.75
-9.55
-10.06
-10.25
-10.29
-10.36
-10.54
-10.75
-10.82
-10.57
-9.97
-9.13
-8.30
-7.74
-7.63
-7.98
-8.67
-9.48
-10.13
-10.41
-10.22
-9.57
-8.58
-7.46
-6.40
-5.57
-5.02
-4.72
-4.55
-4.43
-4.28
-4.13
-4.03
-4.02
-4.12
-4.25
-4.37
-4.46
-4.57
-4.82
-5.23
-5.74
-6.16
-6.25
-5.85
-4.99
-3.94
-3.13
-2.97
-3.72
-5.40
-7.80
-10.58
-13.38
-15.93
-18.03
-19.58
-20.49
-20.73
-20.36
-19.61
-18.80
-18.28
-18.23
-18.61
-19.16
-19.46
-19.12
-17.84
-15.44
-11.85
-7.01
-1.00
5.95
13.33
20.44
26.55
31.10
33.94
35.38
36.02
36.54
37.49
39.17
41.57
44.46
47.42
49.93
51.46
51.61
50.16
47.09
42.56
36.83
30.11
22.55
14.25
5.47
-3.37
-11.62
-18.57
-23.69
-26.79
-28.13
-28.17
-27.30
-25.64
-22.98
-18.96
-13.47
-6.86
0.02
6.18
10.89
13.99
15.97
17.56
19.37
21.52
23.62
25.05
25.28
24.07
21.55
18.01
13.73
8.85
3.48
-2.27
-8.08
-13.51
-18.06
-21.41
-23.49
-24.54
-24.95
-25.14
-25.33
-25.56
-25.67
-25.42
-24.62
-23.13
-20.93
-18.08
-14.70
-10.96
-7.06
-3.26
0.19
3.06
5.22
6.65
7.44
7.78
7.85
7.77
7.61
7.35
6.95
6.42
5.84
5.38
5.23
5.50
6.18
7.11
8.01
8.58
8.60
7.98
6.77
5.09
3.14
1.15
-0.69
-2.15
-3.12
-3.61
-3.74
-3.73
-3.81
-4.09
-4.55
-5.06
-5.45
-5.65
-5.72
-5.79
-5.97
-6.26
-6.57
-6.75
-6.73
-6.50
-6.14
-5.79
-5.53
-5.35
-5.21
-5.03
-4.77
-4.46
-4.14
-3.88
-3.68
-3.52
-3.33
-3.09
-2.81
-2.54
-2.32
-2.16
-2.01
-1.81
-1.53
-1.19
-0.85
-0.59
-0.45
-0.42
-0.44
-0.49
-0.56
-0.69
-0.86
-1.03
-1.15
-1.15
-1.01
-0.76
-0.48
-0.25
-0.14
-0.20
-0.40
-0.69
-0.99
-1.21
-1.28
-1.20
-1.00
-0.76
-0.56
-0.43
-0.34
-0.27
-0.20
-0.15
-0.18
-0.30
-0.49
-0.68
-0.76
-0.64
-0.34
0.08
0.49
0.75
0.78
0.59
0.26
-0.08
-0.30
-0.35
-0.23
-0.01
0.21
0.38
0.51
0.64
0.86
1.19
1.59
2.00
2.31
2.44
2.35
2.01
1.44
0.75
0.06
-0.48
-0.76
-0.76
-0.55
-0.27
-0.08
-0.08
-0.27
-0.58
-0.94
-1.25
-1.50
-1.70
-1.88
-2.08
-2.36
-2.69
-3.03
-3.30
-3.39
-3.23
-2.83
-2.25
-1.60
-1.00
-0.58
-0.38
-0.41
-0.62
-0.92
-1.18
-1.31
-1.21
-0.88
-0.38
0.16
0.62
0.94
1.06
1.03
0.89
0.75
0.72
0.84
1.07
1.29
1.36
1.15
0.68
0.05
-0.56
-1.02
-1.29
-1.43
-1.57
-1.81
-2.17
-2.58
-2.95
-3.18
-3.22
-3.04
-2.70
-2.23
-1.70
-1.18
-0.75
-0.45
-0.31
-0.25
-0.15
0.10
0.54
1.12
1.70
2.11
2.29
2.29
2.21
2.16
2.15
2.14
2.04
1.82
1.55
1.34
1.31
1.53
1.95
2.46
2.86
2.98
2.70
1.96
0.84
-0.46
-1.71
-2.64
-3.11
-3.11
-2.76
-2.28
-1.91
-1.86
-2.22
-2.99
-4.08
-5.42
-6.92
-8.49
-10.01
-11.44
-12.83
-14.20
-15.54
-16.74
-17.88
-19.03
-20.29
-21.65
-23.18
-24.89
-26.60
-27.97
-28.73
-29.01
-29.08
-29.29
-29.74
-30.54
-31.65
-32.76
-33.34
-32.81
-30.98
-27.77
-23.43
-18.29
-13.18
-8.93
-6.04
-4.34
-1.52
3.83
11.88
19.81
26.55
31.87
36.31
40.46
45.15
50.83
57.07
63.07
67.64
69.97
69.76
67.24
63.00
57.68
51.75
44.05
35.28
27.45
22.17
18.84
14.85
7.61
-3.60
-16.95
-29.14
-36.65
-37.88
-34.62
-28.94
-22.91
-17.67
-13.16
-8.67
-3.66
2.07
8.05
13.60
18.39
22.49
26.43
30.71
35.44
40.15
44.01
46.01
45.46
42.52
37.93
32.79
28.05
24.12
20.81
17.65
14.22
10.42
6.56
3.00
-0.12
-2.98
-5.97
-9.41
-13.26
-17.07
-20.24
-22.29
-23.21
-23.39
-23.38
-23.51
-23.72
-23.66
-23.04
-21.97
-21.01
-20.97
-22.39
-25.16
-28.44
-30.96
-31.66
-30.17
-27.06
-23.55
-20.93
-20.07
-21.03
-23.12
-25.34
-26.85
-27.37
-27.28
-27.35
-28.36
-30.81
-34.71
-39.68
-45.20
-50.81
-56.17
-61.01
-65.02
-67.76
-68.64
-67.02
-62.40
-54.65
-44.12
-31.67
-18.57
-6.15
4.52
12.95
19.31
24.26
28.56
32.79
37.06
41.02
44.19
46.22
47.28
48.11
49.88
53.77
60.52
70.06
81.43
92.95
102.74
109.18
111.36
109.27
103.67
95.75
86.62
77.05
67.25
57.11
46.47
35.47
24.67
14.96
7.27
2.24
0.05
0.42
2.76
6.33
10.36
14.10
16.84
18.03
17.44
15.24
11.99
8.46
5.43
3.53
3.14
4.47
7.63
12.56
19.00
26.33
33.63
39.75
43.61
44.48
42.24
37.41
30.96
23.91
17.00
10.40
3.81
-3.20
-10.76
-18.46
-25.39
-30.47
-32.92
-32.64
-30.24
-26.91
-24.00
-22.63
-23.33
-25.84
-29.18
-31.96
-33.01
-31.90
-29.18
-26.21
-24.46
-24.81
-27.14
-30.53
-33.81
-36.21
-37.63
-38.53
-39.42
-40.52
-41.63
-42.43
-42.71
-42.56
-42.27
-42.03
-41.76
-41.11
-39.59
-36.86
-32.90
-28.03
-22.80
-17.84
-13.56
-10.06
-7.11
-4.25
-1.14
2.24
5.55
8.27
10.04
10.83
10.98
10.86
10.64
10.11
8.85
6.53
3.19
-0.74
-4.59
-7.76
-9.80
-10.56
-9.98
-8.12
-5.17
-1.50
2.28
5.41
7.25
7.52
6.40
4.51
2.69
1.60
1.41
1.77
1.86
0.82
-1.92
-6.33
-11.87
-17.71
-23.12
-27.67
-31.28
-33.98
-35.78
-36.57
-36.23
-34.84
-32.74
-30.45
-28.37
-26.58
-24.82
-22.60
-19.56
-15.72
-11.51
-7.61
-4.68
-3.07
-2.72
-3.24
-4.11
-4.84
-5.20
-5.18
-4.96
-4.79
-4.86
-5.24
-5.89
-6.68
-7.43
-7.93
-8.00
-7.55
-6.58
-5.17
-3.52
-1.81
-0.15
1.47
3.22
5.35
8.05
11.36
15.06
18.73
21.91
24.25
25.65
26.22
26.22
25.86
25.24
24.35
23.15
21.64
19.91
18.06
16.16
14.20
12.18
10.08
7.95
5.85
3.79
1.76
-0.26
-2.25
-4.06
-5.44
-6.16
-6.12
-5.41
-4.29
-3.15
-2.30
-1.89
-1.91
-2.19
-2.55
-2.88
-3.16
-3.44
-3.76
-4.08
-4.36
-4.51
-4.51
-4.44
-4.37
-4.36
-4.39
-4.34
-4.09
-3.53
-2.68
-1.62
-0.46
0.66
1.66
2.49
3.12
3.54
3.73
3.71
3.48
3.11
2.64
2.18
1.78
1.47
1.23
0.96
0.61
0.13
-0.45
-1.10
-1.79
-2.49
-3.22
-3.90
-4.37
-4.44
-3.93
-2.81
-1.26
0.38
1.74
2.54
2.71
2.34
1.65
0.88
0.25
-0.04
0.08
0.63
1.49
2.44
3.19
3.53
3.35
2.73
1.86
0.95
0.21
-0.26
-0.39
-0.18
0.34
1.08
1.87
2.46
2.66
2.39
1.80
1.14
0.72
0.68
1.02
1.56
2.10
2.52
2.80
3.00
3.17
3.32
3.41
3.40
3.29
3.14
2.97
2.75
2.43
1.98
1.41
0.80
0.28
-0.02
-0.02
0.30
0.88
1.61
2.38
3.08
3.67
4.16
4.65
5.24
6.00
6.91
7.91
8.90
9.82
10.64
11.33
11.80
11.95
11.67
11.00
10.09
9.16
8.42
7.91
7.58
7.31
7.02
6.82
6.91
7.53
8.84
10.77
13.03
15.15
16.51
16.51
14.73
11.11
6.09
0.49
-4.62
-8.33
-10.20
-10.40
-9.55
-8.52
-7.94
-8.12
-8.90
-9.90
-10.70
-11.02
-10.74
-9.85
-8.40
-6.41
-3.97
-1.27
1.30
3.22
3.91
3.00
0.43
-3.47
-8.06
-12.57
-16.32
-18.92
-20.24
-20.45
-19.88
-18.99
-18.18
-17.76
-17.88
-18.49
-19.34
-20.12
-20.53
-20.35
-19.50
-18.01
-15.95
-13.43
-10.56
-7.53
-4.58
-1.96
0.13
1.58
2.42
2.80
2.88
2.84
2.79
2.81
2.87
2.95
2.94
2.83
2.63
2.40
2.26
2.29
2.55
3.00
3.60
4.29
5.02
5.74
6.38
6.88
7.18
7.26
7.19
7.03
6.86
6.66
6.38
5.98
5.43
4.79
4.15
3.58
3.17
2.95
2.95
3.16
3.54
4.00
4.39
4.53
4.24
3.39
2.03
0.40
-1.09
-1.98
-1.92
-0.79
1.20
3.65
6.05
7.95
9.07
9.31
8.71
7.43
5.67
3.70
1.80
0.20
-0.96
-1.70
-2.11
-2.32
-2.40
-2.36
-2.21
-1.98
-1.77
-1.74
-2.01
-2.60
-3.40
-4.21
-4.86
-5.23
-5.33
-5.17
-4.80
-4.20
-3.39
-2.45
-1.53
-0.85
-0.59
-0.83
-1.53
-2.51
-3.61
-4.67
-5.60
-6.35
-6.86
-7.08
-7.03
-6.81
-6.65
-6.84
-7.60
-8.92
-10.52
-11.91
-12.53
-11.96
-10.12
-7.25
-3.94
-0.87
1.38
2.45
2.29
1.13
-0.65
-2.67
-4.58
-6.14
-7.18
-7.53
-7.09
-5.74
-3.44
-0.27
3.59
7.91
12.42
16.86
20.95
24.34
26.69
27.71
27.24
25.38
22.49
19.08
15.69
12.71
10.34
8.56
7.31
6.48
6.00
5.78
5.70
5.64
5.51
5.32
5.10
4.92
4.78
4.59
4.22
3.58
2.68
1.66
0.75
0.12
-0.14
-0.08
0.12
0.32
0.43
0.46
0.48
0.54
0.59
0.51
0.16
-0.48
-1.31
-2.09
-2.58
-2.68
-2.44
-2.07
-1.81
-1.80
-2.03
-2.36
-2.59
-2.58
-2.33
-1.94
-1.57
-1.40
-1.46
-1.68
-1.88
-1.90
-1.69
-1.31
-0.91
-0.64
-0.56
-0.62
-0.70
-0.70
-0.61
-0.48
-0.37
-0.32
-0.28
-0.14
0.16
0.62
1.14
1.59
1.86
1.89
1.73
1.46
1.17
0.93
0.76
0.66
0.64
0.62
0.59
0.49
0.35
0.20
0.13
0.22
0.50
0.92
1.40
1.83
2.14
2.29
2.30
2.20
2.00
1.72
1.37
0.99
0.70
0.60
0.70
0.97
1.25
1.43
1.43
1.31
1.22
1.28
1.51
1.82
2.11
2.28
2.32
2.32
2.29
2.25
2.11
1.84
1.42
0.93
0.44
0.01
-0.35
-0.64
-0.87
-0.99
-0.95
-0.72
-0.35
0.06
0.38
0.52
0.46
0.26
0.04
-0.10
-0.09
0.08
0.35
0.68
1.02
1.33
1.63
1.90
2.14
2.32
2.40
2.35
2.16
1.79
1.25
0.56
-0.21
-1.00
-1.74
-2.40
-2.99
-3.53
-4.00
-4.39
-4.64
-4.68
-4.51
-4.13
-3.59
-2.89
-2.05
-1.07
-0.00
1.06
2.05
2.88
3.59
4.22
4.89
5.71
6.74
8.00
9.46
11.01
12.48
13.62
14.21
14.07
13.16
11.57
9.50
7.20
4.83
2.50
0.19
-2.10
-4.35
-6.41
-8.10
-9.27
-9.90
-10.11
-10.08
-10.01
-9.97
-9.94
-9.79
-9.45
-8.93
-8.31
-7.73
-7.28
-6.96
-6.74
-6.58
-6.53
-6.65
-7.04
-7.70
-8.54
-9.38
-10.01
-10.26
-10.06
-9.46
-8.59
-7.60
-6.67
-5.90
-5.35
-4.97
-4.65
-4.28
-3.74
-3.01
-2.11
-1.12
-0.07
1.03
2.21
3.47
4.76
5.98
7.00
7.75
8.25
8.60
8.94
9.36
9.84
10.25
10.40
10.13
9.33
7.94
5.97
3.48
0.68
-2.09
-4.35
-5.61
-5.54
-4.13
-1.74
1.01
3.42
4.92
5.18
4.16
2.03
-0.89
-4.23
-7.56
-10.48
-12.64
-13.81
-13.92
-13.08
-11.55
-9.69
-7.81
-6.12
-4.69
-3.47
-2.40
-1.41
-0.49
0.37
1.20
2.06
2.98
3.91
4.67
4.99
4.61
3.49
1.81
-0.01
-1.50
-2.29
-2.26
-1.58
-0.57
0.41
1.08
1.29
1.07
0.52
-0.16
-0.73
-0.98
-0.79
-0.18
0.72
1.66
2.43
2.90
3.07
3.03
2.87
2.65
2.36
2.01
1.58
1.13
0.70
0.30
-0.09
-0.50
-0.91
-1.27
-1.53
-1.67
-1.73
-1.78
-1.86
-1.97
-2.03
-1.95
-1.67
-1.19
-0.58
0.08
0.69
1.20
1.58
1.83
1.98
2.06
2.08
2.02
1.87
1.60
1.26
0.93
0.67
0.53
0.50
0.49
0.42
0.25
0.01
-0.19
-0.21
0.01
0.45
0.99
1.45
1.67
1.61
1.33
0.98
0.68
0.53
0.53
0.65
0.85
1.12
1.45
1.82
2.15
2.33
2.27
1.99
1.55
1.12
0.87
0.85
1.02
1.23
1.31
1.16
0.79
0.34
-0.04
-0.26
-0.28
-0.20
-0.11
-0.07
-0.06
-0.03
0.09
0.32
0.59
0.81
0.90
0.85
0.72
0.58
0.54
0.60
0.72
0.82
0.83
0.73
0.57
0.42
0.39
0.52
0.79
1.12
1.43
1.66
1.78
1.81
1.73
1.49
1.06
0.46
-0.20
-0.76
-1.04
-1.01
-0.77
-0.51
-0.43
-0.58
-0.92
-1.30
-1.59
-1.77
-1.86
-1.93
-2.01
-2.09
-2.07
-1.94
-1.71
-1.46
-1.30
-1.30
-1.48
-1.76
-2.03
-2.17
-2.09
-1.78
-1.29
-0.71
-0.16
0.27
0.54
0.65
0.68
0.66
0.65
0.64
0.57
0.39
0.06
-0.42
-0.99
-1.59
-2.17
-2.72
-3.23
-3.70
-4.05
-4.21
-4.10
-3.69
-3.02
-2.17
-1.23
-0.26
0.69
1.56
2.29
2.78
2.97
2.90
2.67
2.42
2.23
2.11
1.98
1.73
1.32
0.79
0.22
-0.27
-0.64
-0.90
-1.10
-1.31
-1.52
-1.68
-1.70
-1.49
-1.10
-0.66
-0.33
-0.30
-0.61
-1.17
-1.77
-2.19
-2.29
-2.06
-1.64
-1.19
-0.87
-0.73
-0.77
-0.91
-1.07
-1.17
-1.17
-1.01
-0.64
-0.09
0.57
1.24
1.79
2.16
2.38
2.57
2.85
3.31
3.94
4.62
5.16
5.39
5.23
4.71
3.95
3.14
2.44
1.95
1.69
1.56
1.46
1.27
0.97
0.60
0.25
0.03
-0.01
0.10
0.24
0.28
0.12
-0.28
-0.82
-1.37
-1.77
-1.94
-1.87
-1.65
-1.39
-1.18
-1.04
-1.00
-1.01
-1.08
-1.19
-1.32
-1.47
-1.63
-1.82
-2.10
-2.52
-3.08
-3.67
-4.17
-4.41
-4.33
-3.93
-3.27
-2.42
-1.35
-0.02
1.59
3.42
5.25
6.78
7.64
7.53
6.32
4.10
1.26
-1.64
-3.98
-5.27
-5.34
-4.35
-2.73
-0.98
0.38
0.99
0.64
-0.71
-2.83
-5.33
-7.64
-9.13
-9.33
-8.06
-5.44
-1.94
1.86
5.41
8.25
10.14
11.04
11.06
10.44
9.48
8.50
7.74
7.36
7.39
7.72
8.20
8.62
8.84
8.78
8.45
7.91
7.25
6.59
6.05
5.70
5.58
5.66
5.85
6.12
6.45
6.84
7.27
7.62
7.64
7.10
5.82
3.85
1.44
-1.03
-3.23
-4.96
-6.25
-7.24
-8.09
-8.85
-9.44
-9.71
-9.53
-8.86
-7.78
-6.42
-4.85
-3.08
-1.08
1.21
3.69
6.16
8.29
9.80
10.52
10.54
10.12
9.60
9.20
8.92
8.57
7.83
6.52
4.62
2.38
0.12
-1.87
-3.46
-4.71
-5.68
-6.42
-6.88
-6.96
-6.66
-6.13
-5.61
-5.39
-5.59
-6.12
-6.77
-7.24
-7.32
-6.94
-6.21
-5.36
-4.60
-4.09
-3.84
-3.75
-3.67
-3.45
-3.02
-2.39
-1.64
-0.87
-0.14
0.48
0.96
1.26
1.36
1.30
1.23
1.33
1.74
2.47
3.37
4.20
4.72
4.86
4.67
4.35
4.07
3.96
4.03
4.24
4.53
4.80
4.94
4.77
4.13
2.92
1.22
-0.69
-2.46
-3.77
-4.45
-4.53
-4.19
-3.64
-3.05
-2.56
-2.28
-2.28
-2.52
-2.85
-2.99
-2.63
-1.60
0.06
2.06
3.98
5.44
6.25
6.41
6.15
5.83
5.85
6.55
8.13
10.55
13.52
16.53
19.00
20.41
20.46
19.03
16.21
12.18
7.22
1.68
-4.00
-9.35
-13.97
-17.63
-20.34
-22.31
-23.81
-25.04
-26.04
-26.66
-26.71
-26.00
-24.51
-22.39
-19.93
-17.49
-15.35
-13.71
-12.58
-11.84
-11.31
-10.83
-10.30
-9.71
-9.12
-8.58
-8.14
-7.72
-7.25
-6.57
-5.60
-4.28
-2.63
-0.66
1.55
3.91
6.32
8.58
10.48
11.77
12.34
12.19
11.48
10.44
9.31
8.27
7.36
6.61
6.02
5.59
5.27
4.99
4.64
4.15
3.51
2.77
2.07
1.50
1.10
0.87
0.75
0.70
0.69
0.69
0.66
0.56
0.31
-0.12
-0.71
-1.36
-1.97
-2.41
-2.63
-2.64
-2.53
-2.42
-2.38
-2.43
-2.51
-2.58
-2.62
-2.68
-2.76
-2.83
-2.77
-2.41
-1.67
-0.60
0.56
1.52
2.01
1.96
1.53
0.99
0.64
0.64
0.96
1.43
1.89
2.24
2.52
2.80
3.13
3.46
3.67
3.60
3.21
2.58
1.88
1.30
0.96
0.88
0.96
1.05
1.07
1.03
1.05
1.26
1.74
2.43
3.11
3.52
3.47
2.97
2.20
1.43
0.89
0.63
0.60
0.65
0.70
0.71
0.75
0.81
0.86
0.78
0.49
0.03
-0.45
-0.74
-0.69
-0.29
0.33
0.98
1.47
1.75
1.82
1.78
1.71
1.63
1.55
1.40
1.16
0.86
0.54
0.29
0.18
0.24
0.40
0.56
0.58
0.43
0.12
-0.22
-0.48
-0.59
-0.52
-0.36
-0.18
-0.08
-0.09
-0.21
-0.43
-0.69
-0.93
-1.09
-1.16
-1.16
-1.16
-1.22
-1.40
-1.67
-2.00
-2.29
-2.48
-2.52
-2.41
-2.16
-1.82
-1.41
-0.96
-0.51
-0.12
0.19
0.38
0.49
0.60
0.81
1.18
1.70
2.27
2.73
2.98
2.95
2.70
2.35
2.00
1.75
1.62
1.63
1.75
1.95
2.14
2.24
2.17
1.89
1.45
0.98
0.61
0.45
0.49
0.64
0.76
0.75
0.59
0.38
0.31
0.53
1.06
1.77
2.39
2.70
2.60
2.19
1.72
1.43
1.42
1.58
1.65
1.43
0.85
0.05
-0.70
-1.15
-1.17
-0.85
-0.36
0.05
0.26
0.23
0.04
-0.25
-0.57
-0.91
-1.23
-1.49
-1.58
-1.43
-1.03
-0.44
0.19
0.72
1.05
1.13
1.03
0.80
0.53
0.29
0.13
0.06
0.05
0.04
-0.03
-0.18
-0.36
-0.46
-0.40
-0.20
0.08
0.33
0.47
0.49
0.43
0.34
0.22
0.05
-0.17
-0.44
-0.68
-0.84
-0.88
-0.84
-0.80
-0.82
-0.88
-0.95
-0.94
-0.84
-0.71
-0.62
-0.68
-0.87
-1.11
-1.31
-1.36
-1.26
-1.08
-0.94
-0.90
-0.91
-0.85
-0.59
-0.08
0.57
1.19
1.55
1.58
1.32
0.93
0.58
0.37
0.30
0.31
0.37
0.44
0.50
0.54
0.51
0.42
0.29
0.20
0.23
0.36
0.52
0.59
0.51
0.29
0.03
-0.15
-0.16
0.01
0.31
0.62
0.85
0.89
0.69
0.24
-0.44
-1.23
-2.02
-2.65
-2.99
-2.93
-2.47
-1.68
-0.78
-0.02
0.36
0.22
-0.39
-1.25
-2.11
-2.75
-3.06
-3.10
-3.00
-2.86
-2.72
-2.50
-2.08
-1.38
-0.42
0.71
1.83
2.79
3.54
4.05
4.36
4.51
4.47
4.27
3.92
3.51
3.13
2.90
2.85
2.94
3.10
3.20
3.18
3.04
2.85
2.71
2.71
2.82
2.95
2.94
2.67
2.11
1.31
0.41
-0.48
-1.26
-1.96
-2.64
-3.34
-4.06
-4.73
-5.26
-5.55
-5.55
-5.26
-4.76
-4.18
-3.65
-3.33
-3.26
-3.39
-3.61
-3.77
-3.77
-3.58
-3.25
-2.83
-2.41
-2.04
-1.77
-1.61
-1.57
-1.61
-1.63
-1.57
-1.38
-1.08
-0.76
-0.50
-0.36
-0.34
-0.38
-0.48
-0.66
-0.97
-1.43
-1.99
-2.51
-2.81
-2.76
-2.33
-1.57
-0.67
0.20
0.88
1.30
1.47
1.43
1.24
0.95
0.65
0.40
0.30
0.38
0.60
0.88
1.11
1.26
1.33
1.40
1.54
1.76
2.00
2.17
2.24
2.21
2.17
2.18
2.26
2.40
2.51
2.56
2.53
2.41
2.24
2.03
1.79
1.54
1.29
1.03
0.78
0.54
0.33
0.14
-0.01
-0.14
-0.26
-0.35
-0.37
-0.25
0.01
0.39
0.73
0.92
0.88
0.67
0.44
0.36
0.49
0.79
1.13
1.37
1.46
1.40
1.26
1.05
0.73
0.24
-0.42
-1.17
-1.85
-2.26
-2.29
-1.93
-1.30
-0.57
0.10
0.63
0.98
1.21
1.36
1.46
1.49
1.38
1.06
0.52
-0.19
-0.92
-1.54
-1.90
-1.96
-1.77
-1.42
-1.03
-0.69
-0.44
-0.32
-0.38
-0.64
-1.09
-1.66
-2.22
-2.61
-2.73
-2.57
-2.15
-1.59
-0.93
-0.21
0.54
1.29
1.97
2.52
2.89
3.05
3.04
2.91
2.73
2.55
2.40
2.31
2.26
2.27
2.32
2.39
2.46
2.51
2.51
2.46
2.36
2.19
1.94
1.55
1.03
0.41
-0.22
-0.75
-1.09
-1.22
-1.20
-1.16
-1.21
-1.37
-1.58
-1.70
-1.62
-1.34
-0.97
-0.65
-0.47
-0.44
-0.49
-0.52
-0.49
-0.42
-0.35
-0.28
-0.12
0.22
0.79
1.53
2.25
2.73
2.80
2.46
1.85
1.14
0.49
-0.04
-0.43
-0.69
-0.79
-0.72
-0.46
-0.07
0.40
0.88
1.33
1.72
1.97
2.02
1.81
1.38
0.84
0.37
0.08
-0.05
-0.18
-0.53
-1.23
-2.22
-3.28
-4.12
-4.53
-4.44
-3.96
-3.26
-2.54
-1.93
-1.52
-1.34
-1.41
-1.70
-2.17
-2.67
-3.06
-3.14
-2.82
-2.08
-1.07
-0.04
0.74
1.10
1.01
0.62
0.12
-0.28
-0.52
-0.59
-0.58
-0.56
-0.60
-0.70
-0.88
-1.12
-1.37
-1.56
-1.58
-1.37
-0.95
-0.38
0.18
0.66
0.99
1.19
1.28
1.30
1.28
1.25
1.26
1.34
1.45
1.49
1.34
0.91
0.27
-0.43
-0.97
-1.16
-1.00
-0.60
-0.18
0.09
0.14
0.00
-0.23
-0.48
-0.71
-0.91
-1.09
-1.20
-1.19
-1.02
-0.72
-0.33
0.06
0.38
0.54
0.50
0.23
-0.24
-0.83
-1.41
-1.86
-2.13
-2.25
-2.33
-2.44
-2.60
-2.75
-2.79
-2.65
-2.35
-1.94
-1.49
-1.03
-0.56
-0.05
0.49
1.01
1.46
1.80
2.01
2.14
2.21
2.24
2.24
2.20
2.13
2.05
1.98
1.91
1.84
1.72
1.56
1.38
1.29
1.36
1.62
2.04
2.52
2.97
3.34
3.60
3.79
3.90
3.92
3.83
3.61
3.30
2.97
2.68
2.49
2.38
2.33
2.27
2.17
1.97
1.68
1.30
0.85
0.37
-0.13
-0.58
-0.94
-1.17
-1.24
-1.16
-0.99
-0.78
-0.57
-0.37
-0.13
0.17
0.55
0.98
1.38
1.67
1.77
1.68
1.39
0.96
0.46
0.00
-0.35
-0.55
-0.65
-0.73
-0.92
-1.27
-1.73
-2.17
-2.45
-2.49
-2.33
-2.09
-1.89
-1.81
-1.84
-1.89
-1.89
-1.81
-1.69
-1.58
-1.54
-1.52
-1.44
-1.21
-0.82
-0.36
0.03
0.24
0.23
0.07
-0.09
-0.14
-0.04
0.12
0.25
0.27
0.19
0.10
0.08
0.13
0.23
0.30
0.31
0.27
0.20
0.08
-0.09
-0.36
-0.72
-1.10
-1.44
-1.70
-1.90
-2.09
-2.30
-2.53
-2.73
-2.84
-2.80
-2.57
-2.12
-1.45
-0.61
0.29
1.09
1.61
1.79
1.66
1.33
0.89
0.43
-0.03
-0.46
-0.79
-0.91
-0.75
-0.31
0.28
0.84
1.19
1.29
1.16
0.92
0.64
0.38
0.17
0.02
-0.02
0.08
0.37
0.85
1.47
2.18
2.86
3.43
3.77
3.82
3.57
3.12
2.64
2.28
2.10
2.04
1.96
1.72
1.32
0.85
0.51
0.39
0.50
0.72
0.89
0.97
0.97
1.01
1.17
1.43
1.70
1.87
1.88
1.74
1.55
1.37
1.23
1.07
0.79
0.35
-0.25
-0.88
-1.38
-1.62
-1.54
-1.24
-0.88
-0.62
-0.52
-0.53
-0.54
-0.45
-0.22
0.07
0.31
0.39
0.26
-0.03
-0.41
-0.78
-1.07
-1.24
-1.27
-1.17
-0.96
-0.67
-0.35
-0.07
0.11
0.15
0.02
-0.25
-0.59
-0.88
-1.03
-0.94
-0.59
-0.03
0.61
1.16
1.48
1.47
1.15
0.68
0.23
-0.04
-0.07
0.05
0.21
0.28
0.26
0.19
0.17
0.25
0.37
0.45
0.38
0.16
-0.11
-0.31
-0.33
-0.19
-0.01
0.06
-0.07
-0.36
-0.65
-0.79
-0.72
-0.50
-0.29
-0.23
-0.39
-0.71
-1.08
-1.34
-1.43
-1.33
-1.09
-0.75
-0.36
0.02
0.33
0.51
0.48
0.24
-0.14
-0.55
-0.86
-0.96
-0.84
-0.53
-0.12
0.30
0.65
0.85
0.85
0.66
0.35
0.07
-0.06
0.01
0.20
0.38
0.42
0.29
0.10
0.01
0.09
0.27
0.40
0.31
-0.04
-0.52
-0.91
-1.06
-0.93
-0.67
-0.50
-0.53
-0.74
-0.96
-0.99
-0.72
-0.26
0.20
0.46
0.45
0.30
0.20
0.35
0.76
1.31
1.79
2.01
1.92
1.56
1.08
0.63
0.30
0.14
0.15
0.30
0.48
0.60
0.53
0.24
-0.23
-0.76
-1.19
-1.41
-1.39
-1.22
-1.02
-0.86
-0.80
-0.80
-0.83
-0.86
-0.91
-0.96
-1.01
-1.00
-0.89
-0.71
-0.52
-0.42
-0.42
-0.43
-0.35
-0.08
0.33
0.70
0.84
0.68
0.28
-0.19
-0.52
-0.61
-0.51
-0.36
-0.25
-0.25
-0.31
-0.34
-0.30
-0.18
-0.01
0.14
0.24
0.27
0.23
0.17
0.15
0.21
0.34
0.49
0.56
0.52
0.37
0.21
0.13
0.20
0.39
0.62
0.78
0.77
0.58
0.20
-0.30
-0.84
-1.29
-1.51
-1.39
-0.93
-0.25
0.46
1.01
1.28
1.29
1.15
0.97
0.84
0.74
0.62
0.45
0.24
0.04
-0.13
-0.32
-0.60
-1.02
-1.55
-2.04
-2.31
-2.25
-1.90
-1.39
-0.93
-0.61
-0.42
-0.24
0.03
0.40
0.79
1.11
1.29
1.33
1.31
1.29
1.30
1.35
1.41
1.48
1.55
1.61
1.62
1.53
1.33
1.01
0.61
0.16
-0.28
-0.71
-1.07
-1.30
-1.36
-1.22
-0.97
-0.74
-0.63
-0.71
-0.91
-1.06
-0.97
-0.52
0.23
1.07
1.72
1.98
1.82
1.40
0.96
0.72
0.73
0.86
0.91
0.73
0.31
-0.24
-0.73
-1.05
-1.19
-1.22
-1.28
-1.44
-1.68
-1.97
-2.23
-2.38
-2.36
-2.14
-1.69
-1.01
-0.17
0.73
1.55
2.15
2.44
2.40
2.06
1.50
0.83
0.16
-0.40
-0.74
-0.81
-0.65
-0.33
0.02
0.34
0.58
0.74
0.80
0.69
0.36
-0.22
-0.96
-1.73
-2.36
-2.78
-3.00
-3.09
-3.12
-3.07
-2.91
-2.60
-2.16
-1.69
-1.29
-1.04
-0.96
-1.00
-1.13
-1.30
-1.48
-1.63
-1.70
-1.66
-1.51
-1.30
-1.09
-0.96
-0.99
-1.17
-1.46
-1.74
-1.89
-1.83
-1.55
-1.16
-0.79
-0.54
-0.42
-0.37
-0.27
-0.06
0.23
0.49
0.59
0.46
0.18
-0.09
-0.18
0.02
0.49
1.05
1.52
1.76
1.72
1.51
1.25
1.02
0.83
0.65
0.40
0.11
-0.17
-0.36
-0.43
-0.38
-0.25
-0.10
0.09
0.30
0.56
0.79
0.97
1.00
0.90
0.69
0.47
0.33
0.35
0.53
0.79
1.06
1.27
1.41
1.53
1.69
1.90
2.07
2.10
1.93
1.55
1.06
0.57
0.19
-0.03
-0.09
0.01
0.25
0.60
1.01
1.37
1.59
1.63
1.53
1.37
1.26
1.26
1.36
1.49
1.60
1.64
1.60
1.47
1.29
1.06
0.79
0.52
0.27
0.10
0.04
0.09
0.22
0.36
0.46
0.44
0.27
-0.05
-0.49
-0.97
-1.40
-1.69
-1.79
-1.69
-1.45
-1.10
-0.67
-0.19
0.33
0.79
1.09
1.09
0.75
0.14
-0.51
-0.96
-1.02
-0.69
-0.10
0.51
0.96
1.18
1.21
1.16
1.07
0.95
0.75
0.48
0.19
0.02
0.05
0.28
0.58
0.76
0.71
0.43
0.08
-0.18
-0.26
-0.16
-0.01
0.09
0.11
0.09
0.13
0.26
0.42
0.50
0.36
-0.01
-0.52
-0.99
-1.28
-1.31
-1.12
-0.87
-0.70
-0.69
-0.79
-0.85
-0.75
-0.42
0.07
0.57
0.90
0.97
0.82
0.59
0.44
0.46
0.59
0.69
0.62
0.33
-0.11
-0.52
-0.70
-0.58
-0.21
0.25
0.59
0.71
0.60
0.38
0.20
0.13
0.15
0.19
0.15
-0.02
-0.30
-0.59
-0.84
-0.99
-1.05
-1.05
-1.04
-1.02
-0.96
-0.85
-0.66
-0.42
-0.19
-0.06
-0.06
-0.18
-0.36
-0.48
-0.46
-0.29
-0.01
0.27
0.48
0.59
0.59
0.56
0.55
0.62
0.80
1.07
1.33
1.46
1.33
0.91
0.29
-0.34
-0.78
-0.91
-0.78
-0.54
-0.40
-0.46
-0.71
-1.01
-1.21
-1.25
-1.11
-0.91
-0.70
-0.56
-0.49
-0.50
-0.60
-0.76
-0.95
-1.08
-1.09
-0.95
-0.68
-0.37
-0.12
-0.01
-0.02
-0.12
-0.27
-0.39
-0.45
-0.43
-0.33
-0.19
-0.07
-0.02
-0.03
-0.05
0.05
0.38
0.94
1.62
2.19
2.44
2.25
1.68
0.96
0.35
0.01
-0.04
0.05
0.09
-0.04
-0.34
-0.69
-0.96
-1.10
-1.15
-1.19
-1.27
-1.36
-1.39
-1.28
-1.01
-0.67
-0.41
-0.35
-0.53
-0.88
-1.28
-1.58
-1.68
-1.57
-1.29
-0.97
-0.74
-0.69
-0.81
-1.03
-1.22
-1.32
-1.30
-1.21
-1.11
-1.02
-0.90
-0.69
-0.35
0.08
0.52
0.87
1.09
1.24
1.37
1.53
1.68
1.74
1.67
1.47
1.23
1.06
0.97
0.95
0.91
0.78
0.54
0.26
0.03
-0.09
-0.08
0.03
0.17
0.34
0.52
0.75
1.01
1.26
1.41
1.41
1.25
0.99
0.74
0.60
0.61
0.76
0.97
1.10
1.06
0.81
0.39
-0.06
-0.43
-0.62
-0.61
-0.48
-0.33
-0.22
-0.16
-0.11
-0.05
-0.01
-0.05
-0.23
-0.54
-0.89
-1.15
-1.25
-1.19
-1.05
-0.94
-0.92
-0.99
-1.05
-1.04
-0.89
-0.63
-0.33
-0.10
-0.01
-0.11
-0.41
-0.85
-1.35
-1.83
-2.26
-2.65
-3.01
-3.29
-3.43
-3.34
-2.99
-2.46
-1.91
-1.49
-1.31
-1.32
-1.42
-1.49
-1.47
-1.36
-1.21
-1.02
-0.80
-0.54
-0.25
0.01
0.21
0.36
0.48
0.64
0.82
1.00
1.12
1.16
1.16
1.19
1.29
1.43
1.55
1.62
1.64
1.69
1.84
2.10
2.45
2.81
3.14
3.44
3.80
4.29
4.98
5.89
6.97
8.11
9.15
9.89
10.16
9.85
9.01
7.82
6.52
5.35
4.46
3.86
3.50
3.32
3.27
3.32
3.44
3.58
3.66
3.63
3.51
3.38
3.35
3.54
3.99
4.67
5.49
6.33
7.13
7.86
8.53
9.18
9.79
10.29
10.54
10.37
9.63
8.26
6.32
3.98
1.46
-1.07
-3.51
-5.86
-8.15
-10.34
-12.35
-14.01
-15.18
-15.80
-15.97
-15.85
-15.65
-15.45
-15.30
-15.10
-14.77
-14.28
-13.65
-12.98
-12.35
-11.81
-11.38
-11.01
-10.68
-10.35
-10.06
-9.80
-9.58
-9.41
-9.24
-9.06
-8.85
-8.60
-8.32
-8.03
-7.73
-7.39
-6.94
-6.30
-5.42
-4.33
-3.15
-2.04
-1.13
-0.48
-0.06
0.23
0.51
0.86
1.31
1.84
2.41
2.95
3.38
3.66
3.79
3.80
3.74
3.66
3.64
3.74
3.99
4.40
4.90
5.40
5.77
5.94
5.89
5.68
5.44
5.22
5.02
4.80
4.48
4.07
3.62
3.22
2.91
2.64
2.29
1.75
1.06
0.35
-0.21
-0.51
-0.57
-0.51
-0.45
-0.38
-0.18
0.25
0.93
1.73
2.42
2.84
3.00
3.08
3.32
3.83
4.59
5.41
6.08
6.42
6.39
6.09
5.68
5.33
5.17
5.20
5.35
5.44
5.30
4.81
3.94
2.73
1.27
-0.37
-2.09
-3.76
-5.26
-6.42
-7.14
-7.41
-7.34
-7.12
-6.91
-6.79
-6.69
-6.50
-6.11
-5.54
-4.90
-4.38
-4.08
-3.99
-3.99
-3.89
-3.61
-3.18
-2.74
-2.38
-2.15
-1.96
-1.71
-1.33
-0.87
-0.48
-0.32
-0.45
-0.83
-1.26
-1.55
-1.56
-1.27
-0.78
-0.26
0.13
0.26
0.14
-0.16
-0.50
-0.75
-0.85
-0.79
-0.63
-0.40
-0.14
0.12
0.38
0.59
0.70
0.66
0.50
0.31
0.25
0.42
0.81
1.28
1.60
1.59
1.20
0.54
-0.14
-0.62
-0.83
-0.77
-0.59
-0.42
-0.32
-0.24
-0.13
0.08
0.40
0.77
1.12
1.39
1.59
1.73
1.83
1.91
2.02
2.19
2.45
2.79
3.18
3.54
3.81
3.89
3.76
3.42
2.90
2.24
1.51
0.73
-0.01
-0.64
-1.13
-1.42
-1.54
-1.53
-1.43
-1.28
-1.12
-0.97
-0.84
-0.74
-0.66
-0.63
-0.62
-0.65
-0.70
-0.74
-0.74
-0.64
-0.44
-0.14
0.17
0.40
0.46
0.35
0.13
-0.09
-0.24
-0.35
-0.46
-0.68
-1.03
-1.48
-1.89
-2.12
-2.09
-1.80
-1.36
-0.93
-0.65
-0.61
-0.79
-1.09
-1.39
-1.54
-1.49
-1.23
-0.86
-0.48
-0.21
-0.08
-0.07
-0.07
0.05
0.36
0.84
1.38
1.85
2.14
2.23
2.18
2.13
2.18
2.37
2.64
2.86
2.96
2.88
2.64
2.28
1.83
1.31
0.73
0.12
-0.41
-0.74
-0.80
-0.60
-0.25
0.07
0.21
0.15
-0.05
-0.24
-0.27
-0.08
0.28
0.70
1.08
1.37
1.64
1.97
2.40
2.86
3.19
3.26
3.03
2.61
2.20
1.92
1.82
1.79
1.73
1.57
1.38
1.26
1.29
1.44
1.60
1.65
1.55
1.32
1.03
0.77
0.54
0.33
0.13
-0.03
-0.12
-0.10
0.01
0.15
0.24
0.25
0.14
-0.06
-0.33
-0.61
-0.83
-0.96
-0.94
-0.76
-0.48
-0.21
-0.09
-0.19
-0.49
-0.87
-1.16
-1.23
-1.05
-0.69
-0.27
0.11
0.37
0.48
0.40
0.12
-0.32
-0.86
-1.36
-1.68
-1.73
-1.53
-1.19
-0.86
-0.66
-0.62
-0.68
-0.77
-0.80
-0.75
-0.65
-0.56
-0.53
-0.57
-0.66
-0.77
-0.89
-1.02
-1.13
-1.21
-1.22
-1.11
-0.90
-0.65
-0.45
-0.38
-0.44
-0.58
-0.72
-0.75
-0.67
-0.52
-0.38
-0.34
-0.41
-0.59
-0.79
-0.97
-1.10
-1.20
-1.30
-1.46
-1.66
-1.87
-2.00
-1.97
-1.79
-1.52
-1.25
-1.10
-1.13
-1.31
-1.51
-1.60
-1.47
-1.14
-0.71
-0.35
-0.16
-0.14
-0.17
-0.10
0.12
0.47
0.80
0.98
0.96
0.82
0.69
0.72
0.91
1.17
1.37
1.40
1.25
0.98
0.67
0.40
0.18
0.02
-0.11
-0.18
-0.18
-0.10
0.06
0.27
0.47
0.58
0.55
0.37
0.05
-0.32
-0.64
-0.81
-0.77
-0.54
-0.19
0.21
0.59
0.93
1.25
1.56
1.86
2.15
2.37
2.49
2.52
2.47
2.34
2.14
1.87
1.56
1.26
1.06
1.06
1.29
1.70
2.13
2.43
2.49
2.31
2.00
1.71
1.52
1.42
1.33
1.10
0.69
0.14
-0.39
-0.72
-0.72
-0.38
0.17
0.73
1.12
1.24
1.13
0.87
0.56
0.22
-0.20
-0.69
-1.20
-1.59
-1.74
-1.57
-1.12
-0.51
0.15
0.74
1.21
1.54
1.74
1.84
1.85
1.83
1.78
1.66
1.36
0.82
0.03
-0.88
-1.68
-2.17
-2.21
-1.86
-1.30
-0.76
-0.44
-0.41
-0.62
-0.95
-1.21
-1.27
-1.03
-0.50
0.24
1.06
1.83
2.42
2.77
2.90
2.83
2.61
2.25
1.80
1.28
0.78
0.40
0.20
0.15
0.19
0.22
0.18
0.07
-0.06
-0.18
-0.30
-0.48
-0.73
-1.05
-1.35
-1.55
-1.61
-1.59
-1.59
-1.68
-1.86
-2.07
-2.23
-2.29
-2.27
-2.23
-2.22
-2.25
-2.27
-2.23
-2.11
-1.96
-1.84
-1.83
-1.96
-2.17
-2.41
-2.59
-2.67
-2.63
-2.51
-2.33
-2.10
-1.79
-1.39
-0.91
-0.40
0.04
0.35
0.48
0.44
0.24
-0.05
-0.40
-0.75
-1.00
-1.07
-0.92
-0.57
-0.10
0.35
0.68
0.83
0.85
0.85
0.91
1.08
1.32
1.53
1.63
1.55
1.33
1.04
0.73
0.45
0.18
-0.09
-0.32
-0.45
-0.40
-0.14
0.29
0.77
1.19
1.46
1.55
1.51
1.38
1.21
1.02
0.84
0.70
0.64
0.69
0.84
1.02
1.18
1.22
1.11
0.87
0.56
0.28
0.14
0.19
0.44
0.81
1.21
1.58
1.86
2.05
2.13
2.06
1.81
1.33
0.65
-0.15
-0.95
-1.61
-1.98
-2.02
-1.72
-1.16
-0.44
0.32
1.02
1.61
2.06
2.37
2.55
2.62
2.62
2.57
2.51
2.45
2.44
2.49
2.64
2.93
3.36
3.87
4.35
4.67
4.72
4.47
4.00
3.44
2.91
2.51
2.25
2.11
2.05
2.08
2.25
2.65
3.33
4.27
5.35
6.39
7.24
7.80
8.11
8.29
8.50
8.92
9.63
10.64
11.81
12.87
13.46
13.22
11.88
9.41
5.99
1.98
-2.20
-6.20
-9.77
-12.77
-15.18
-17.00
-18.24
-18.96
-19.26
-19.24
-19.02
-18.63
-18.10
-17.37
-16.35
-15.04
-13.47
-11.80
-10.17
-8.71
-7.42
-6.24
-5.08
-3.88
-2.64
-1.44
-0.42
0.31
0.66
0.56
0.03
-0.87
-1.98
-3.12
-4.10
-4.76
-5.05
-4.95
-4.52
-3.88
-3.15
-2.47
-1.94
-1.61
-1.43
-1.27
-1.00
-0.54
0.09
0.77
1.30
1.56
1.51
1.21
0.85
0.58
0.54
0.70
0.97
1.21
1.33
1.33
1.30
1.33
1.44
1.57
1.58
1.42
1.09
0.73
0.45
0.34
0.37
0.45
0.49
0.43
0.33
0.24
0.24
0.35
0.56
0.84
1.13
1.39
1.61
1.77
1.90
2.04
2.22
2.43
2.63
2.75
2.78
2.73
2.67
2.67
2.74
2.87
2.96
2.99
2.96
2.93
2.97
3.09
3.22
3.25
3.04
2.58
1.89
1.07
0.23
-0.56
-1.28
-1.94
-2.51
-2.98
-3.28
-3.33
-3.13
-2.71
-2.19
-1.72
-1.42
-1.31
-1.31
-1.25
-1.00
-0.49
0.19
0.88
1.40
1.66
1.64
1.47
1.26
1.11
1.02
0.96
0.86
0.71
0.52
0.33
0.17
0.03
-0.12
-0.30
-0.50
-0.72
-0.97
-1.26
-1.56
-1.84
-1.97
-1.85
-1.44
-0.80
-0.09
0.54
1.01
1.31
1.53
1.76
2.00
2.20
2.27
2.14
1.80
1.35
0.90
0.57
0.42
0.45
0.54
0.56
0.43
0.16
-0.13
-0.32
-0.33
-0.20
-0.07
-0.03
-0.12
-0.27
-0.35
-0.32
-0.21
-0.13
-0.18
-0.34
-0.54
-0.64
-0.54
-0.28
0.04
0.27
0.31
0.16
-0.09
-0.31
-0.38
-0.27
-0.03
0.22
0.34
0.25
-0.03
-0.37
-0.65
-0.77
-0.74
-0.66
-0.62
-0.70
-0.83
-0.92
-0.83
-0.56
-0.20
0.07
0.08
-0.18
-0.59
-0.92
-0.97
-0.65
-0.06
0.57
1.03
1.19
1.10
0.91
0.77
0.76
0.86
0.97
1.04
1.06
1.08
1.16
1.26
1.34
1.34
1.24
1.08
0.94
0.86
0.86
0.88
0.87
0.80
0.68
0.55
0.49
0.51
0.59
0.69
0.75
0.78
0.81
0.92
1.18
1.55
1.92
2.11
2.02
1.62
1.03
0.41
-0.09
-0.43
-0.63
-0.74
-0.78
-0.74
-0.56
-0.25
0.13
0.44
0.59
0.55
0.40
0.31
0.43
0.81
1.37
1.95
2.37
2.54
2.53
2.47
2.47
2.60
2.77
2.89
2.87
2.74
2.54
2.36
2.20
2.00
1.70
1.27
0.75
0.21
-0.34
-0.95
-1.73
-2.77
-4.03
-5.37
-6.56
-7.44
-7.95
-8.12
-8.08
-7.89
-7.57
-7.06
-6.36
-5.55
-4.84
-4.43
-4.45
-4.86
-5.44
-5.95
-6.14
-5.95
-5.45
-4.82
-4.22
-3.75
-3.42
-3.20
-3.03
-2.88
-2.70
-2.38
-1.78
-0.78
0.66
2.41
4.18
5.56
6.20
5.89
4.60
2.52
0.00
-2.46
-4.40
-5.41
-5.27
-4.02
-1.93
0.58
3.07
5.16
6.56
7.14
6.91
6.01
4.71
3.40
2.43
2.03
2.26
2.97
3.95
5.01
6.01
6.89
7.56
7.94
7.96
7.64
7.10
6.52
6.06
5.73
5.46
5.11
4.59
3.92
3.20
2.55
1.99
1.48
0.91
0.23
-0.53
-1.29
-1.97
-2.53
-2.98
-3.31
-3.52
-3.56
-3.36
-2.94
-2.37
-1.75
-1.19
-0.73
-0.39
-0.15
0.00
0.09
0.11
0.11
0.09
0.07
0.03
-0.04
-0.16
-0.31
-0.43
-0.45
-0.37
-0.22
-0.09
-0.01
0.04
0.11
0.27
0.49
0.71
0.79
0.67
0.37
-0.04
-0.41
-0.66
-0.77
-0.79
-0.78
-0.76
-0.72
-0.58
-0.27
0.24
0.90
1.56
1.99
2.01
1.56
0.77
-0.10
-0.78
-1.13
-1.19
-1.17
-1.28
-1.63
-2.15
-2.67
-2.97
-2.98
-2.69
-2.26
-1.85
-1.58
-1.48
-1.49
-1.53
-1.47
-1.26
-0.89
-0.41
0.09
0.50
0.77
0.88
0.86
0.80
0.75
0.73
0.72
0.62
0.39
0.04
-0.31
-0.48
-0.33
0.13
0.75
1.26
1.47
1.33
0.96
0.55
0.26
0.18
0.25
0.39
0.53
0.64
0.70
0.70
0.56
0.27
-0.15
-0.60
-0.93
-1.05
-0.92
-0.63
-0.30
-0.02
0.18
0.32
0.42
0.52
0.59
0.64
0.67
0.69
0.71
0.73
0.70
0.60
0.42
0.22
0.06
0.01
0.06
0.18
0.31
0.41
0.45
0.45
0.42
0.35
0.23
0.02
-0.28
-0.67
-1.11
-1.50
-1.78
-1.88
-1.81
-1.59
-1.30
-1.01
-0.79
-0.67
-0.68
-0.81
-1.06
-1.37
-1.68
-1.91
-2.04
-2.03
-1.95
-1.82
-1.67
-1.50
-1.29
-1.03
-0.76
-0.55
-0.43
-0.44
-0.52
-0.61
-0.69
-0.77
-0.90
-1.15
-1.48
-1.78
-1.92
-1.77
-1.33
-0.70
-0.05
0.48
0.82
1.05
1.27
1.56
1.93
2.34
2.68
2.86
2.81
2.50
1.99
1.37
0.78
0.37
0.18
0.17
0.19
0.10
-0.19
-0.62
-1.06
-1.33
-1.38
-1.24
-1.07
-0.99
-1.08
-1.28
-1.51
-1.66
-1.68
-1.60
-1.47
-1.32
-1.15
-0.92
-0.60
-0.19
0.24
0.59
0.76
0.75
0.59
0.41
0.32
0.40
0.64
0.98
1.32
1.58
1.73
1.79
1.79
1.76
1.70
1.61
1.49
1.36
1.21
1.00
0.70
0.25
-0.37
-1.13
-1.91
-2.59
-3.04
-3.20
-3.09
-2.75
-2.26
-1.66
-0.99
-0.25
0.47
1.07
1.42
1.44
1.16
0.72
0.32
0.12
0.18
0.40
0.62
0.67
0.51
0.24
-0.02
-0.12
-0.07
0.08
0.21
0.27
0.28
0.30
0.39
0.56
0.76
0.90
0.97
1.03
1.19
1.52
2.02
2.57
3.02
3.20
3.07
2.72
2.27
1.86
1.57
1.35
1.12
0.77
0.28
-0.28
-0.78
-1.10
-1.19
-1.05
-0.79
-0.49
-0.23
-0.04
0.07
0.13
0.16
0.19
0.27
0.46
0.77
1.12
1.39
1.40
1.06
0.39
-0.46
-1.27
-1.85
-2.13
-2.14
-1.99
-1.81
-1.68
-1.65
-1.67
-1.71
-1.68
-1.54
-1.27
-0.89
-0.44
-0.00
0.37
0.65
0.80
0.81
0.70
0.54
0.41
0.41
0.55
0.79
0.99
1.02
0.85
0.54
0.23
0.05
0.03
0.12
0.23
0.27
0.30
0.39
0.61
0.93
1.21
1.30
1.11
0.70
0.23
-0.15
-0.35
-0.41
-0.46
-0.59
-0.78
-0.97
-1.06
-1.00
-0.81
-0.56
-0.33
-0.14
-0.00
0.07
0.00
-0.24
-0.66
-1.15
-1.51
-1.57
-1.23
-0.56
0.25
0.96
1.38
1.43
1.13
0.65
0.18
-0.11
-0.13
0.08
0.39
0.63
0.65
0.42
0.04
-0.36
-0.65
-0.82
-0.90
-0.98
-1.05
-1.08
-0.98
-0.77
-0.55
-0.49
-0.70
-1.16
-1.70
-2.09
-2.22
-2.06
-1.74
-1.35
-0.94
-0.49
-0.00
0.43
0.63
0.44
-0.16
-1.02
-1.85
-2.34
-2.39
-2.17
-1.97
-2.14
-2.87
-4.09
-5.52
-6.80
-7.66
-8.03
-8.07
-8.10
-8.45
-9.29
-10.54
-11.91
-13.01
-13.53
-13.38
-12.84
-12.45
-12.86
-14.59
-17.82
-22.30
-27.34
-32.00
-35.19
-35.88
-33.33
-27.24
-17.82
-5.86
7.49
21.00
33.58
44.50
53.36
60.01
64.36
66.34
65.96
63.37
58.97
53.35
47.13
40.74
34.35
27.88
21.16
14.19
7.18
0.68
-4.70
-8.40
-10.15
-10.10
-8.78
-6.97
-5.51
-5.05
-5.88
-7.89
-10.62
-13.46
-15.83
-17.35
-17.87
-17.40
-16.07
-14.02
-11.45
-8.56
-5.58
-2.73
-0.22
1.81
3.23
3.95
3.90
3.12
1.73
0.01
-1.73
-3.22
-4.30
-4.98
-5.34
-5.45
-5.36
-5.07
-4.59
-4.05
-3.61
-3.48
-3.75
-4.35
-5.08
-5.68
-5.95
-5.82
-5.41
-4.85
-4.29
-3.78
-3.30
-2.82
-2.32
-1.81
-1.36
-1.06
-0.94
-1.01
-1.23
-1.54
-1.87
-2.13
-2.26
-2.18
-1.88
-1.38
-0.79
-0.22
0.22
0.46
0.51
0.43
0.34
0.36
0.58
0.98
1.47
1.92
2.19
2.23
2.09
1.88
1.71
1.59
1.51
1.37
1.13
0.82
0.52
0.31
0.26
0.37
0.59
0.82
1.00
1.09
1.08
0.97
0.75
0.41
-0.02
-0.49
-0.87
-1.04
-0.91
-0.50
0.08
0.63
0.99
1.08
0.92
0.62
0.28
-0.01
-0.20
-0.30
-0.29
-0.20
-0.08
0.02
0.07
0.09
0.13
0.24
0.43
0.67
0.85
0.90
0.82
0.67
0.54
0.50
0.55
0.63
0.69
0.69
0.66
0.66
0.76
0.99
1.31
1.58
1.65
1.40
0.82
0.04
-0.72
-1.26
-1.49
-1.42
-1.22
-1.02
-0.93
-0.94
-1.00
-1.03
-1.03
-1.05
-1.18
-1.47
-1.89
-2.33
-2.66
-2.76
-2.59
-2.20
-1.69
-1.17
-0.76
-0.50
-0.42
-0.48
-0.58
-0.62
-0.50
-0.17
0.32
0.83
1.21
1.37
1.28
1.05
0.79
0.59
0.46
0.42
0.47
0.61
0.83
1.08
1.28
1.36
1.30
1.16
1.03
0.98
0.99
1.00
0.91
0.69
0.35
-0.01
-0.30
-0.47
-0.51
-0.43
-0.29
-0.19
-0.21
-0.43
-0.82
-1.27
-1.60
-1.66
-1.39
-0.89
-0.35
0.04
0.21
0.20
0.15
0.20
0.41
0.72
1.03
1.24
1.33
1.31
1.27
1.24
1.23
1.19
1.07
0.86
0.63
0.46
0.40
0.49
0.66
0.83
0.90
0.86
0.71
0.48
0.21
-0.11
-0.47
-0.85
-1.21
-1.46
-1.55
-1.46
-1.27
-1.08
-1.02
-1.16
-1.49
-1.88
-2.20
-2.29
-2.11
-1.69
-1.14
-0.59
-0.13
0.17
0.29
0.24
0.05
-0.20
-0.37
-0.34
-0.02
0.53
1.15
1.61
1.74
1.51
1.07
0.63
0.35
0.30
0.41
0.56
0.62
0.57
0.45
0.37
0.35
0.39
0.42
0.34
0.12
-0.21
-0.52
-0.69
-0.61
-0.27
0.29
0.91
1.45
1.80
1.89
1.72
1.34
0.81
0.22
-0.34
-0.80
-1.11
-1.26
-1.29
-1.24
-1.15
-1.05
-0.94
-0.84
-0.75
-0.67
-0.57
-0.46
-0.34
-0.21
-0.08
0.08
0.23
0.38
0.48
0.53
0.50
0.41
0.29
0.21
0.18
0.19
0.21
0.19
0.06
-0.17
-0.48
-0.76
-0.94
-0.95
-0.82
-0.62
-0.49
-0.52
-0.69
-0.93
-1.11
-1.17
-1.11
-1.00
-0.93
-0.96
-1.08
-1.24
-1.41
-1.55
-1.65
-1.68
-1.64
-1.50
-1.25
-0.94
-0.62
-0.33
-0.10
0.08
0.26
0.49
0.77
1.04
1.18
1.09
0.74
0.24
-0.23
-0.49
-0.44
-0.11
0.34
0.75
0.96
0.95
0.76
0.49
0.27
0.17
0.21
0.40
0.70
1.08
1.47
1.80
2.00
2.02
1.84
1.48
0.97
0.41
-0.15
-0.64
-1.04
-1.32
-1.45
-1.43
-1.28
-1.06
-0.87
-0.78
-0.79
-0.86
-0.92
-0.90
-0.83
-0.80
-0.88
-1.07
-1.31
-1.45
-1.42
-1.20
-0.87
-0.55
-0.29
-0.09
0.15
0.52
1.04
1.63
2.14
2.41
2.36
2.05
1.62
1.23
0.98
0.85
0.73
0.53
0.21
-0.17
-0.48
-0.62
-0.58
-0.48
-0.46
-0.61
-0.92
-1.30
-1.62
-1.75
-1.68
-1.45
-1.16
-0.86
-0.59
-0.32
-0.04
0.28
0.60
0.86
0.98
0.93
0.73
0.46
0.22
0.07
0.04
0.08
0.13
0.12
0.04
-0.10
-0.24
-0.33
-0.35
-0.30
-0.23
-0.15
-0.07
0.05
0.25
0.56
0.95
1.34
1.66
1.86
1.91
1.80
1.55
1.15
0.62
0.02
-0.55
-0.98
-1.21
-1.27
-1.22
-1.14
-1.06
-0.92
-0.68
-0.29
0.19
0.63
0.91
0.99
0.90
0.77
0.69
0.67
0.66
0.63
0.55
0.52
0.62
0.88
1.22
1.50
1.61
1.50
1.24
0.92
0.59
0.26
-0.09
-0.48
-0.86
-1.18
-1.38
-1.44
-1.35
-1.09
-0.64
-0.02
0.68
1.31
1.70
1.73
1.41
0.81
0.08
-0.67
-1.31
-1.76
-1.96
-1.90
-1.62
-1.21
-0.82
-0.54
-0.43
-0.50
-0.72
-1.08
-1.54
-2.05
-2.53
-2.91
-3.15
-3.25
-3.25
-3.18
-2.99
-2.60
-1.95
-1.05
-0.04
0.84
1.40
1.57
1.46
1.26
1.17
1.32
1.69
2.17
2.63
2.95
3.13
3.22
3.26
3.31
3.37
3.41
3.38
3.26
3.00
2.60
2.09
1.50
0.89
0.34
-0.07
-0.28
-0.30
-0.20
-0.11
-0.11
-0.26
-0.53
-0.82
-1.07
-1.23
-1.28
-1.30
-1.33
-1.40
-1.48
-1.51
-1.45
-1.27
-1.01
-0.73
-0.52
-0.44
-0.51
-0.68
-0.88
-1.02
-1.01
-0.81
-0.47
-0.08
0.26
0.43
0.41
0.23
-0.03
-0.26
-0.38
-0.33
-0.10
0.28
0.77
1.29
1.72
1.96
1.93
1.61
1.05
0.37
-0.29
-0.79
-1.05
-1.05
-0.85
-0.53
-0.21
0.03
0.15
0.15
0.07
-0.02
-0.06
-0.05
0.03
0.14
0.23
0.28
0.25
0.13
-0.10
-0.44
-0.83
-1.22
-1.52
-1.63
-1.51
-1.14
-0.62
-0.10
0.26
0.37
0.26
0.04
-0.13
-0.14
0.01
0.25
0.46
0.57
0.55
0.44
0.29
0.16
0.09
0.09
0.17
0.29
0.42
0.53
0.59
0.61
0.64
0.69
0.78
0.88
0.98
1.05
1.07
1.06
1.02
0.96
0.86
0.73
0.56
0.36
0.13
-0.09
-0.30
-0.47
-0.61
-0.74
-0.87
-0.97
-1.01
-0.94
-0.77
-0.58
-0.49
-0.59
-0.90
-1.27
-1.53
-1.53
-1.22
-0.73
-0.24
0.09
0.21
0.22
0.25
0.38
0.59
0.73
0.68
0.42
0.04
-0.27
-0.36
-0.17
0.18
0.53
0.73
0.74
0.62
0.48
0.38
0.34
0.28
0.16
-0.05
-0.26
-0.36
-0.28
-0.04
0.27
0.53
0.61
0.48
0.18
-0.23
-0.68
-1.11
-1.47
-1.71
-1.81
-1.76
-1.60
-1.38
-1.16
-0.98
-0.86
-0.78
-0.72
-0.64
-0.56
-0.48
-0.39
-0.27
-0.09
0.19
0.56
0.96
1.30
1.47
1.43
1.16
0.78
0.41
0.18
0.15
0.28
0.48
0.63
0.67
0.62
0.56
0.57
0.73
1.03
1.40
1.75
1.99
2.08
2.01
1.83
1.58
1.27
0.96
0.68
0.47
0.37
0.37
0.44
0.51
0.53
0.42
0.16
-0.22
-0.69
-1.13
-1.43
-1.50
-1.32
-0.94
-0.51
-0.20
-0.17
-0.43
-0.91
-1.51
-2.12
-2.67
-3.16
-3.58
-3.87
-3.99
-3.89
-3.60
-3.21
-2.81
-2.48
-2.22
-1.95
-1.57
-1.05
-0.45
0.13
0.58
0.86
1.02
1.14
1.30
1.53
1.76
1.90
1.87
1.67
1.35
1.01
0.71
0.53
0.46
0.48
0.58
0.72
0.92
1.17
1.46
1.76
1.98
2.06
1.95
1.69
1.38
1.11
0.92
0.82
0.78
0.78
0.87
1.08
1.42
1.83
2.18
2.28
2.02
1.42
0.65
-0.06
-0.48
-0.50
-0.16
0.38
0.93
1.33
1.50
1.46
1.26
0.98
0.65
0.32
0.00
-0.25
-0.38
-0.36
-0.21
-0.01
0.16
0.19
0.02
-0.35
-0.86
-1.38
-1.78
-1.92
-1.76
-1.36
-0.86
-0.44
-0.16
0.00
0.16
0.44
0.88
1.40
1.88
2.19
2.32
2.33
2.35
2.47
2.71
3.05
3.43
3.86
4.30
4.74
5.08
5.18
4.91
4.21
3.13
1.81
0.42
-0.95
-2.24
-3.48
-4.70
-5.87
-6.94
-7.80
-8.32
-8.45
-8.20
-7.62
-6.83
-5.93
-4.97
-3.99
-3.03
-2.10
-1.26
-0.52
0.11
0.64
1.06
1.33
1.41
1.28
0.97
0.57
0.20
-0.05
-0.16
-0.14
-0.06
0.06
0.22
0.43
0.69
0.95
1.14
1.21
1.14
0.97
0.75
0.49
0.18
-0.18
-0.60
-1.00
-1.28
-1.34
-1.16
-0.79
-0.37
-0.02
0.19
0.27
0.28
0.31
0.36
0.41
0.40
0.29
0.08
-0.19
-0.42
-0.55
-0.52
-0.35
-0.06
0.26
0.53
0.68
0.67
0.51
0.24
-0.03
-0.19
-0.17
0.05
0.39
0.75
1.00
1.10
1.03
0.87
0.69
0.57
0.54
0.58
0.68
0.78
0.84
0.86
0.83
0.75
0.66
0.54
0.39
0.22
0.03
-0.12
-0.21
-0.23
-0.19
-0.13
-0.10
-0.12
-0.18
-0.29
-0.46
-0.71
-1.07
-1.52
-1.99
-2.34
-2.46
-2.31
-1.90
-1.34
-0.74
-0.18
0.28
0.66
1.00
1.33
1.68
2.00
2.20
2.20
1.93
1.46
0.92
0.49
0.30
0.39
0.68
1.05
1.38
1.61
1.72
1.72
1.55
1.19
0.66
0.06
-0.45
-0.74
-0.76
-0.61
-0.46
-0.44
-0.59
-0.81
-0.98
-1.00
-0.88
-0.71
-0.59
-0.55
-0.60
-0.67
-0.74
-0.83
-0.97
-1.19
-1.43
-1.61
-1.64
-1.52
-1.34
-1.20
-1.18
-1.28
-1.39
-1.36
-1.15
-0.76
-0.28
0.20
0.67
1.11
1.55
1.93
2.14
2.08
1.72
1.15
0.53
0.04
-0.23
-0.29
-0.27
-0.29
-0.44
-0.68
-0.94
-1.09
-1.09
-0.93
-0.70
-0.50
-0.41
-0.44
-0.53
-0.62
-0.59
-0.40
-0.04
0.47
1.05
1.62
2.10
2.46
2.71
2.93
3.18
3.51
3.88
4.17
4.27
4.08
3.59
2.83
1.93
1.00
0.17
-0.49
-0.96
-1.24
-1.37
-1.41
-1.40
-1.40
-1.43
-1.51
-1.60
-1.63
-1.52
-1.20
-0.71
-0.16
0.35
0.69
0.82
0.78
0.65
0.49
0.35
0.23
0.13
-0.00
-0.19
-0.46
-0.80
-1.15
-1.44
-1.61
-1.63
-1.57
-1.53
-1.60
-1.81
-2.12
-2.39
-2.50
-2.42
-2.23
-2.05
-2.00
-2.06
-2.13
-2.05
-1.73
-1.19
-0.59
-0.08
0.26
0.47
0.67
0.95
1.30
1.59
1.68
1.53
1.20
0.86
0.62
0.52
0.46
0.36
0.16
-0.07
-0.21
-0.20
-0.03
0.16
0.24
0.11
-0.20
-0.54
-0.74
-0.71
-0.45
-0.07
0.25
0.40
0.33
0.11
-0.11
-0.20
-0.09
0.21
0.63
1.05
1.39
1.60
1.68
1.64
1.45
1.10
0.56
-0.14
-0.88
-1.52
-1.92
-2.01
-1.83
-1.52
-1.27
-1.22
-1.40
-1.68
-1.89
-1.89
-1.65
-1.28
-0.93
-0.72
-0.60
-0.45
-0.13
0.34
0.83
1.13
1.07
0.67
0.12
-0.35
-0.56
-0.46
-0.16
0.20
0.47
0.59
0.56
0.40
0.17
-0.10
-0.37
-0.59
-0.73
-0.72
-0.56
-0.24
0.19
0.64
1.02
1.28
1.40
1.43
1.41
1.36
1.30
1.24
1.22
1.25
1.28
1.24
1.03
0.63
0.15
-0.24
-0.35
-0.16
0.24
0.63
0.84
0.79
0.56
0.28
0.03
-0.17
-0.33
-0.44
-0.44
-0.27
0.08
0.50
0.79
0.77
0.38
-0.31
-1.10
-1.78
-2.24
-2.45
-2.49
-2.45
-2.36
-2.20
-1.90
-1.43
-0.82
-0.19
0.31
0.58
0.60
0.45
0.26
0.15
0.15
0.21
0.23
0.09
-0.27
-0.84
-1.54
-2.28
-2.95
-3.50
-3.89
-4.09
-4.11
-4.02
-3.92
-3.90
-4.03
-4.29
-4.59
-4.84
-4.94
-4.85
-4.55
-4.06
-3.38
-2.49
-1.39
-0.17
1.08
2.23
3.16
3.81
4.16
4.24
4.10
3.84
3.57
3.38
3.32
3.37
3.49
3.62
3.72
3.78
3.74
3.60
3.36
3.12
2.99
3.05
3.29
3.56
3.63
3.36
2.76
2.01
1.38
1.08
1.11
1.35
1.59
1.67
1.54
1.26
0.92
0.62
0.43
0.35
0.37
0.44
0.48
0.43
0.30
0.14
0.03
0.04
0.16
0.37
0.57
0.74
0.88
0.99
1.03
0.94
0.65
0.19
-0.30
-0.61
-0.58
-0.19
0.43
1.05
1.47
1.63
1.58
1.43
1.27
1.11
0.93
0.69
0.41
0.14
-0.09
-0.29
-0.46
-0.61
-0.72
-0.76
-0.71
-0.61
-0.50
-0.43
-0.36
-0.25
-0.01
0.34
0.75
1.09
1.27
1.26
1.12
0.92
0.77
0.72
0.78
0.88
0.97
0.97
0.86
0.65
0.38
0.08
-0.23
-0.55
-0.85
-1.08
-1.18
-1.11
-0.91
-0.69
-0.56
-0.60
-0.80
-1.06
-1.26
-1.29
-1.11
-0.75
-0.28
0.16
0.49
0.64
0.64
0.51
0.30
0.08
-0.13
-0.28
-0.38
-0.40
-0.35
-0.22
-0.04
0.14
0.29
0.40
0.51
0.65
0.88
1.19
1.54
1.87
2.09
2.15
2.03
1.75
1.36
0.93
0.54
0.23
0.04
-0.04
-0.07
-0.16
-0.36
-0.70
-1.10
-1.46
-1.64
-1.57
-1.28
-0.83
-0.32
0.17
0.61
0.95
1.16
1.20
1.02
0.61
0.02
-0.68
-1.36
-1.91
-2.24
-2.35
-2.29
-2.17
-2.12
-2.23
-2.47
-2.74
-2.82
-2.56
-1.90
-0.97
0.00
0.83
1.42
1.85
2.28
2.83
3.50
4.11
4.48
4.46
4.03
3.32
2.50
1.73
1.10
0.62
0.24
-0.07
-0.37
-0.65
-0.93
-1.21
-1.50
-1.80
-2.05
-2.23
-2.31
-2.29
-2.19
-2.05
-1.92
-1.85
-1.85
-1.97
-2.16
-2.41
-2.64
-2.76
-2.70
-2.41
-1.92
-1.32
-0.74
-0.29
-0.02
0.09
0.15
0.21
0.35
0.53
0.69
0.75
0.66
0.44
0.18
-0.03
-0.12
-0.07
0.10
0.30
0.45
0.55
0.59
0.63
0.68
0.72
0.72
0.65
0.54
0.48
0.52
0.66
0.76
0.70
0.35
-0.27
-1.03
-1.74
-2.24
-2.49
-2.51
-2.39
-2.21
-1.99
-1.71
-1.37
-0.96
-0.54
-0.19
0.04
0.10
0.00
-0.18
-0.38
-0.51
-0.52
-0.39
-0.15
0.14
0.39
0.56
0.61
0.57
0.48
0.39
0.29
0.15
-0.06
-0.36
-0.70
-0.98
-1.12
-1.09
-0.92
-0.70
-0.49
-0.30
-0.15
-0.06
-0.04
-0.16
-0.43
-0.82
-1.24
-1.58
-1.77
-1.77
-1.66
-1.54
-1.50
-1.56
-1.67
-1.75
-1.71
-1.49
-1.12
-0.68
-0.27
0.00
0.08
-0.02
-0.25
-0.53
-0.74
-0.83
-0.74
-0.47
-0.06
0.37
0.73
0.91
0.91
0.79
0.65
0.58
0.60
0.68
0.69
0.57
0.32
0.02
-0.18
-0.18
0.03
0.39
0.75
1.00
1.06
0.92
0.63
0.28
-0.07
-0.36
-0.56
-0.67
-0.71
-0.68
-0.61
-0.52
-0.46
-0.48
-0.57
-0.70
-0.78
-0.72
-0.51
-0.19
0.12
0.33
0.42
0.45
0.54
0.74
1.01
1.19
1.15
0.86
0.42
-0.01
-0.34
-0.57
-0.76
-0.97
-1.17
-1.20
-0.95
-0.42
0.20
0.63
0.64
0.21
-0.46
-1.03
-1.23
-0.99
-0.48
0.10
0.57
0.90
1.15
1.41
1.69
1.94
2.08
2.07
1.97
1.86
1.84
1.92
2.10
2.35
2.61
2.84
2.99
3.02
2.91
2.69
2.42
2.15
1.88
1.57
1.13
0.51
-0.23
-0.95
-1.50
-1.76
-1.74
-1.55
-1.33
-1.25
-1.34
-1.56
-1.80
-1.96
-1.98
-1.86
-1.65
-1.40
-1.14
-0.88
-0.65
-0.47
-0.40
-0.48
-0.70
-1.01
-1.30
-1.42
-1.26
-0.78
-0.06
0.75
1.44
1.85
1.91
1.65
1.19
0.68
0.22
-0.12
-0.33
-0.45
-0.53
-0.62
-0.76
-0.91
-1.08
-1.22
-1.27
-1.24
-1.12
-0.93
-0.70
-0.46
-0.23
-0.04
0.12
0.22
0.25
0.18
0.06
-0.06
-0.13
-0.07
0.10
0.33
0.53
0.63
0.63
0.59
0.63
0.81
1.10
1.40
1.53
1.39
0.99
0.42
-0.13
-0.54
-0.72
-0.71
-0.60
-0.50
-0.51
-0.63
-0.80
-0.92
-0.89
-0.69
-0.37
-0.06
0.15
0.23
0.22
0.19
0.20
0.17
0.02
-0.33
-0.85
-1.38
-1.76
-1.86
-1.67
-1.30
-0.89
-0.54
-0.27
-0.10
-0.02
-0.05
-0.17
-0.31
-0.38
-0.31
-0.12
0.08
0.19
0.14
-0.02
-0.15
-0.12
0.13
0.53
0.95
1.25
1.36
1.29
1.13
0.95
0.81
0.73
0.72
0.79
0.98
1.28
1.65
1.98
2.13
2.01
1.62
1.05
0.47
0.04
-0.20
-0.27
-0.27
-0.31
-0.48
-0.78
-1.18
-1.60
-1.97
-2.22
-2.29
-2.17
-1.93
-1.65
-1.38
-1.18
-1.02
-0.85
-0.64
-0.39
-0.13
0.09
0.28
0.44
0.61
0.81
1.01
1.18
1.29
1.32
1.30
1.29
1.33
1.42
1.49
1.52
1.45
1.31
1.15
1.03
0.95
0.88
0.75
0.50
0.11
-0.33
-0.72
-0.96
-1.01
-0.91
-0.78
-0.73
-0.85
-1.10
-1.41
-1.64
-1.66
-1.44
-1.01
-0.50
-0.04
0.25
0.34
0.23
-0.02
-0.35
-0.75
-1.20
-1.68
-2.14
-2.47
-2.57
-2.37
-1.87
-1.23
-0.61
-0.15
0.08
0.12
0.10
0.17
0.42
0.86
1.45
2.03
2.48
2.67
2.58
2.26
1.80
1.30
0.85
0.50
0.29
0.25
0.33
0.47
0.53
0.43
0.12
-0.31
-0.70
-0.90
-0.81
-0.46
0.01
0.46
0.77
0.90
0.83
0.59
0.20
-0.26
-0.72
-1.09
-1.30
-1.30
-1.12
-0.82
-0.46
-0.11
0.18
0.38
0.45
0.36
0.13
-0.23
-0.64
-1.00
-1.24
-1.30
-1.19
-1.02
-0.84
-0.69
-0.54
-0.32
0.01
0.41
0.77
0.97
0.93
0.69
0.35
0.06
-0.12
-0.17
-0.13
-0.03
0.14
0.39
0.73
1.06
1.29
1.34
1.21
0.96
0.68
0.46
0.31
0.19
0.04
-0.15
-0.35
-0.51
-0.59
-0.57
-0.51
-0.43
-0.35
-0.26
-0.16
-0.06
-0.01
-0.03
-0.13
-0.25
-0.36
-0.42
-0.45
-0.48
-0.54
-0.61
-0.63
-0.58
-0.48
-0.40
-0.41
-0.56
-0.80
-1.02
-1.11
-1.00
-0.68
-0.22
0.27
0.70
0.98
1.11
1.13
1.16
1.26
1.43
1.59
1.64
1.54
1.35
1.23
1.29
1.55
1.90
2.18
2.26
2.18
2.05
2.02
2.15
2.40
2.61
2.69
2.60
2.40
2.19
2.04
1.97
1.93
1.83
1.63
1.36
1.13
1.06
1.19
1.50
1.81
1.92
1.69
1.09
0.24
-0.68
-1.45
-1.96
-2.20
-2.20
-2.07
-1.89
-1.75
-1.67
-1.69
-1.75
-1.79
-1.72
-1.47
-0.99
-0.35
0.37
1.04
1.57
1.94
2.19
2.38
2.58
2.81
3.06
3.27
3.35
3.19
2.73
1.98
1.01
-0.03
-0.99
-1.75
-2.28
-2.60
-2.80
-2.93
-3.01
-3.05
-3.04
-2.97
-2.83
-2.62
-2.31
-1.84
-1.17
-0.34
0.52
1.23
1.63
1.60
1.15
0.42
-0.44
-1.25
-1.87
-2.23
-2.31
-2.14
-1.80
-1.38
-0.95
-0.49
-0.00
0.53
1.05
1.42
1.52
1.29
0.84
0.36
0.03
-0.12
-0.14
-0.15
-0.22
-0.28
-0.19
0.18
0.79
1.44
1.90
1.94
1.56
0.87
0.13
-0.47
-0.83
-0.99
-1.02
-1.03
-1.07
-1.12
-1.16
-1.17
-1.19
-1.26
-1.39
-1.58
-1.76
-1.83
-1.75
-1.50
-1.13
-0.72
-0.34
-0.06
0.12
0.21
0.26
0.29
0.32
0.34
0.34
0.32
0.30
0.34
0.47
0.69
0.93
1.09
1.08
0.92
0.67
0.45
0.34
0.35
0.42
0.52
0.62
0.72
0.83
0.91
0.89
0.72
0.40
0.04
-0.19
-0.18
0.07
0.45
0.75
0.81
0.60
0.22
-0.19
-0.50
-0.65
-0.72
-0.73
-0.72
-0.62
-0.37
0.02
0.45
0.78
0.92
0.87
0.76
0.73
0.83
0.98
1.06
0.94
0.60
0.14
-0.33
-0.68
-0.89
-1.01
-1.11
-1.24
-1.38
-1.48
-1.51
-1.43
-1.26
-1.05
-0.81
-0.55
-0.28
0.02
0.33
0.61
0.79
0.84
0.75
0.58
0.36
0.14
-0.08
-0.28
-0.44
-0.53
-0.50
-0.39
-0.25
-0.18
-0.23
-0.41
-0.65
-0.89
-1.06
-1.13
-1.11
-1.01
-0.86
-0.66
-0.41
-0.13
0.14
0.35
0.46
0.48
0.49
0.60
0.84
1.17
1.42
1.42
1.08
0.47
-0.16
-0.54
-0.54
-0.19
0.28
0.64
0.75
0.68
0.58
0.62
0.83
1.09
1.21
1.06
0.66
0.17
-0.17
-0.20
0.09
0.52
0.82
0.76
0.25
-0.56
-1.38
-1.95
-2.10
-1.89
-1.55
-1.29
-1.27
-1.44
-1.62
-1.62
-1.32
-0.79
-0.18
0.32
0.60
0.63
0.49
0.26
0.03
-0.17
-0.31
-0.38
-0.36
-0.21
0.08
0.49
0.97
1.44
1.82
2.05
2.08
1.90
1.50
0.91
0.18
-0.53
-1.07
-1.28
-1.12
-0.67
-0.11
0.37
0.64
0.70
0.61
0.46
0.33
0.23
0.20
0.25
0.40
0.60
0.72
0.60
0.16
-0.52
-1.23
-1.69
-1.72
-1.35
-0.81
-0.37
-0.27
