1528507357.00
64.000000
-0.00
-0.00
-0.00
-0.00
-0.00
-0.00
-0.00
-0.00
-0.00
-0.01
-0.00
0.00
0.01
0.01
-0.00
-0.03
-0.05
-0.05
-0.00
0.13
0.36
0.66
1.01
1.37
1.72
2.06
2.40
2.78
3.24
3.80
4.41
5.05
5.66
6.22
6.72
7.21
7.68
8.27
8.95
9.68
10.37
10.96
11.43
11.85
12.38
13.10
14.37
16.15
18.34
20.69
22.96
25.03
26.98
29.08
31.56
35.02
39.42
44.53
49.94
55.18
60.00
64.48
69.00
73.87
79.88
86.96
94.80
102.83
110.47
117.44
123.83
131.05
136.85
142.95
149.84
158.36
169.01
181.24
192.63
199.03
195.47
177.72
144.61
97.58
40.72
-21.03
-83.58
-144.59
-203.49
-260.62
-316.42
-370.54
-422.76
-472.82
-520.39
-564.34
-601.85
-628.18
-637.50
-624.74
-587.46
-527.57
-450.68
-364.49
-276.41
-191.83
-113.57
-42.61
20.79
76.41
123.72
162.38
192.66
215.47
232.08
243.67
250.97
254.23
253.47
248.75
240.53
229.66
217.30
204.50
192.01
180.06
168.47
156.89
145.05
132.96
120.90
109.26
98.36
88.34
79.12
70.47
62.11
53.89
45.78
37.90
30.46
23.60
17.41
11.90
7.14
3.05
-0.45
-3.39
-5.81
-7.77
-9.35
-10.64
-11.69
-12.51
-13.07
-13.33
-13.30
-13.03
-12.60
-12.09
-11.55
-11.00
-10.41
-9.81
-9.23
-8.74
-8.39
-8.19
-8.08
-7.94
-7.70
-7.33
-6.89
-6.51
-6.29
-6.28
-6.45
-6.69
-6.89
-7.02
-7.07
-7.17
-7.42
-7.88
-8.51
-9.18
-9.77
-10.20
-10.56
-10.96
-11.55
-12.39
-13.40
-14.40
-15.20
-15.72
-16.04
-16.33
-16.75
-17.37
-18.15
-18.90
-19.44
-19.63
-19.43
-18.83
-18.12
-17.39
-16.63
-15.76
-14.73
-13.58
-12.39
-11.28
-10.26
-9.34
-8.41
-7.44
-6.42
-5.38
-4.33
-3.27
-2.15
-1.00
0.12
1.13
2.00
2.72
3.35
3.93
4.51
5.11
5.74
6.41
7.17
8.01
8.86
9.64
10.19
10.41
10.17
9.32
7.74
5.36
2.27
-1.31
-5.03
-8.52
-11.53
-13.93
-15.72
-16.93
-17.60
-17.70
-17.21
-16.08
-14.34
-12.08
-9.49
-6.77
-4.16
-1.82
0.19
1.93
3.55
5.19
6.98
8.93
10.98
13.06
15.10
17.13
19.19
21.33
23.57
25.87
28.10
30.15
31.93
33.41
34.67
35.80
36.86
37.90
38.87
39.70
40.33
40.72
40.86
40.73
40.32
39.60
38.56
37.21
35.55
33.60
31.40
28.99
26.50
24.03
21.67
19.44
17.27
15.04
12.66
10.18
7.74
5.56
3.80
2.48
1.49
0.69
0.00
-0.53
-0.77
-0.58
0.03
0.90
1.75
2.26
2.24
1.63
0.56
-0.74
-2.04
-3.17
-4.06
-4.74
-5.33
-5.91
-6.54
-7.20
-7.82
-8.34
-8.73
-9.04
-9.33
-9.60
-9.82
-9.88
-9.72
-9.35
-8.89
-8.55
-8.46
-8.60
-8.82
-8.89
-8.61
-7.98
-7.14
-6.35
-5.82
-5.62
-5.65
-5.71
-5.60
-5.22
-4.59
-3.90
-3.37
-3.18
-3.40
-3.93
-4.56
-5.04
-5.20
-4.99
-4.52
-3.94
-3.41
-2.98
-2.62
-2.26
-1.87
-1.51
-1.26
-1.22
-1.39
-1.69
-1.97
-2.11
-2.11
-2.01
-1.93
-1.92
-1.99
-2.06
-2.07
-1.97
-1.77
-1.51
-1.24
-0.99
-0.79
-0.65
-0.57
-0.54
-0.56
-0.62
-0.69
-0.75
-0.75
-0.66
-0.47
-0.24
-0.08
-0.09
-0.32
-0.66
-0.97
-1.11
-1.06
-0.91
-0.81
-0.86
-1.06
-1.26
-1.36
-1.31
-1.20
-1.14
-1.23
-1.48
-1.78
-2.03
-2.17
-2.22
-2.24
-2.25
-2.22
-2.07
-1.73
-1.19
-0.53
0.12
0.64
0.99
1.18
1.26
1.28
1.27
1.24
1.15
1.02
0.83
0.64
0.47
0.39
0.41
0.51
0.64
0.72
0.70
0.51
0.16
-0.32
-0.91
-1.54
-2.16
-2.71
-3.12
-3.37
-3.47
-3.45
-3.37
-3.30
-3.25
-3.21
-3.13
-2.97
-2.67
-2.24
-1.74
-1.23
-0.80
-0.48
-0.28
-0.18
-0.18
-0.24
-0.32
-0.35
-0.25
0.04
0.51
1.05
1.51
1.73
1.69
1.47
1.21
1.05
1.05
1.20
1.43
1.69
1.93
2.13
2.24
2.20
1.93
1.44
0.83
0.27
-0.07
-0.14
-0.02
0.07
-0.05
-0.44
-1.02
-1.61
-2.08
-2.38
-2.56
-2.70
-2.84
-2.90
-2.80
-2.49
-2.04
-1.62
-1.38
-1.37
-1.48
-1.51
-1.33
-0.88
-0.30
0.24
0.57
0.65
0.54
0.36
0.19
0.02
-0.19
-0.46
-0.76
-0.98
-1.05
-0.95
-0.75
-0.59
-0.57
-0.71
-0.94
-1.17
-1.30
-1.32
-1.26
-1.18
-1.10
-1.01
-0.86
-0.61
-0.28
0.10
0.46
0.73
0.86
0.86
0.72
0.51
0.27
0.06
-0.08
-0.14
-0.13
-0.09
-0.08
-0.13
-0.21
-0.26
-0.24
-0.12
0.07
0.28
0.47
0.60
0.68
0.71
0.70
0.63
0.46
0.21
-0.10
-0.41
-0.68
-0.90
-1.08
-1.26
-1.42
-1.51
-1.47
-1.26
-0.89
-0.46
-0.09
0.10
0.09
-0.09
-0.32
-0.49
-0.52
-0.43
-0.25
-0.07
0.05
0.12
0.16
0.22
0.34
0.51
0.70
0.88
0.98
1.00
0.97
0.93
0.89
0.85
0.76
0.58
0.29
-0.05
-0.37
-0.58
-0.65
-0.58
-0.47
-0.39
-0.43
-0.61
-0.91
-1.27
-1.58
-1.77
-1.80
-1.65
-1.38
-1.06
-0.72
-0.41
-0.14
0.05
0.16
0.18
0.13
0.05
-0.01
0.02
0.11
0.24
0.35
0.41
0.39
0.30
0.15
-0.01
-0.14
-0.21
-0.23
-0.24
-0.31
-0.48
-0.71
-0.93
-1.05
-1.00
-0.81
-0.57
-0.37
-0.25
-0.19
-0.12
0.01
0.18
0.33
0.39
0.34
0.19
0.00
-0.14
-0.20
-0.18
-0.14
-0.10
-0.11
-0.16
-0.23
-0.31
-0.38
-0.41
-0.41
-0.40
-0.38
-0.37
-0.38
-0.41
-0.42
-0.36
-0.22
0.01
0.27
0.48
0.57
0.50
0.30
0.06
-0.12
-0.18
-0.11
0.05
0.23
0.39
0.51
0.56
0.51
0.33
-0.01
-0.44
-0.87
-1.19
-1.35
-1.36
-1.29
-1.19
-1.10
-0.98
-0.79
-0.54
-0.30
-0.13
-0.08
-0.10
-0.12
-0.09
-0.02
0.01
-0.09
-0.32
-0.62
-0.86
-0.92
-0.76
-0.46
-0.14
0.09
0.17
0.15
0.13
0.17
0.33
0.54
0.70
0.73
0.60
0.36
0.09
-0.12
-0.27
-0.39
-0.52
-0.65
-0.73
-0.67
-0.40
0.02
0.47
0.79
0.86
0.66
0.27
-0.14
-0.44
-0.55
-0.48
-0.31
-0.17
-0.15
-0.25
-0.41
-0.51
-0.47
-0.28
-0.06
0.04
-0.09
-0.44
-0.84
-1.09
-1.07
-0.78
-0.37
0.00
0.23
0.30
0.24
0.15
0.04
-0.06
-0.18
-0.31
-0.42
-0.49
-0.50
-0.42
-0.27
-0.05
0.22
0.52
0.83
1.09
1.26
1.30
1.19
0.92
0.54
0.13
-0.23
-0.45
-0.54
-0.55
-0.53
-0.54
-0.58
-0.59
-0.51
-0.33
-0.11
0.07
0.18
0.23
0.27
0.39
0.59
0.80
0.93
0.89
0.71
0.45
0.20
0.00
-0.16
-0.31
-0.45
-0.52
-0.43
-0.19
0.12
0.35
0.37
0.17
-0.10
-0.27
-0.21
0.04
0.34
0.52
0.50
0.31
0.09
-0.06
-0.14
-0.23
-0.42
-0.74
-1.08
-1.28
-1.20
-0.81
-0.26
0.26
0.53
0.51
0.31
0.11
0.06
0.22
0.46
0.63
0.60
0.36
0.06
-0.12
-0.04
0.26
0.63
0.88
0.89
0.68
0.35
0.05
-0.15
-0.25
-0.33
-0.49
-0.73
-1.04
-1.32
-1.51
-1.57
-1.52
-1.38
-1.17
-0.92
-0.64
-0.37
-0.15
-0.03
-0.03
-0.16
-0.34
-0.52
-0.64
-0.64
-0.52
-0.27
0.07
0.46
0.82
1.08
1.16
1.05
0.81
0.52
0.26
0.10
0.01
-0.05
-0.12
-0.23
-0.35
-0.44
-0.51
-0.57
-0.61
-0.63
-0.61
-0.55
-0.44
-0.32
-0.24
-0.20
-0.19
-0.18
-0.15
-0.11
-0.08
-0.09
-0.11
-0.12
-0.12
-0.12
-0.18
-0.36
-0.63
-0.89
-1.01
-0.90
-0.55
-0.08
0.38
0.69
0.81
0.80
0.72
0.62
0.49
0.29
-0.02
-0.39
-0.73
-0.94
-0.95
-0.77
-0.50
-0.20
0.04
0.20
0.28
0.29
0.25
0.14
-0.02
-0.19
-0.31
-0.32
-0.19
0.05
0.34
0.58
0.72
0.72
0.61
0.47
0.38
0.41
0.52
0.67
0.73
0.64
0.39
0.05
-0.25
-0.41
-0.36
-0.15
0.12
0.32
0.37
0.24
-0.04
-0.38
-0.69
-0.88
-0.94
-0.84
-0.62
-0.34
-0.07
0.15
0.28
0.31
0.27
0.17
0.02
-0.19
-0.45
-0.72
-0.96
-1.11
-1.14
-1.03
-0.80
-0.48
-0.16
0.12
0.33
0.49
0.61
0.74
0.88
1.00
1.06
1.01
0.86
0.61
0.31
-0.03
-0.39
-0.68
-0.85
-0.80
-0.51
-0.02
0.50
0.87
0.93
0.65
0.14
-0.44
-0.93
-1.21
-1.31
-1.29
-1.24
-1.19
-1.10
-0.91
-0.57
-0.12
0.31
0.55
0.48
0.10
-0.44
-0.92
-1.12
-0.98
-0.57
-0.07
0.33
0.54
0.59
0.56
0.56
0.62
0.72
0.78
0.75
0.63
0.44
0.23
0.06
-0.05
-0.09
-0.12
-0.18
-0.29
-0.43
-0.52
-0.48
-0.30
-0.03
0.21
0.31
0.20
-0.07
-0.37
-0.60
-0.69
-0.65
-0.54
-0.43
-0.37
-0.36
-0.36
-0.35
-0.31
-0.25
-0.19
-0.14
-0.10
-0.04
0.08
0.31
0.68
1.18
1.73
2.20
2.43
2.28
1.72
0.85
-0.08
-0.82
-1.14
-1.03
-0.61
-0.12
0.27
0.46
0.51
0.48
0.44
0.40
0.33
0.19
-0.02
-0.26
-0.49
-0.68
-0.82
-0.89
-0.93
-0.95
-0.97
-0.98
-0.96
-0.86
-0.68
-0.50
-0.42
-0.53
-0.84
-1.24
-1.56
-1.66
-1.48
-1.10
-0.65
-0.25
0.04
0.26
0.46
0.68
0.90
1.05
1.09
1.00
0.83
0.68
0.62
0.67
0.79
0.89
0.85
0.63
0.25
-0.19
-0.58
-0.83
-0.90
-0.83
-0.71
-0.63
-0.70
-0.92
-1.28
-1.71
-2.15
-2.56
-2.95
-3.34
-3.76
-4.15
-4.42
-4.48
-4.24
-3.66
-2.69
-1.28
0.59
2.88
5.46
8.09
10.49
12.44
13.84
14.69
15.05
15.00
14.59
13.89
13.01
12.13
11.38
10.77
10.25
9.73
9.13
8.32
7.24
5.78
3.86
1.47
-1.32
-4.29
-7.11
-9.51
-11.41
-12.93
-14.29
-15.68
-17.10
-18.39
-19.04
-18.40
-15.85
-11.11
-4.27
4.15
13.38
22.55
30.37
35.36
36.53
33.96
28.56
21.57
13.84
5.97
-1.65
-8.73
-14.99
-20.33
-24.76
-29.03
-32.88
-35.50
-35.59
-32.01
-24.12
-12.04
3.20
19.93
36.04
49.87
60.31
67.08
69.40
65.80
56.15
42.08
26.81
13.46
4.06
-2.17
-7.38
-13.88
-23.26
-35.84
-51.01
-65.93
-78.44
-87.16
-91.81
-92.72
-90.35
-84.74
-75.39
-61.88
-44.37
-24.26
-3.62
15.26
30.70
42.01
49.40
53.67
55.71
56.38
56.14
55.46
54.27
52.05
47.94
40.96
30.52
16.75
1.15
-14.17
-26.52
-34.05
-35.93
-32.27
-23.83
-11.88
1.88
15.82
27.86
36.14
38.49
33.15
19.55
-1.32
-27.21
-55.41
-82.92
-107.95
-124.68
-128.46
-118.98
-100.84
-79.95
-59.99
-44.52
-31.22
-18.43
-5.58
6.34
15.87
22.33
25.60
26.22
25.04
23.44
22.46
23.31
26.62
32.43
40.26
49.22
58.11
65.51
70.57
72.61
71.72
68.20
62.52
55.39
47.72
40.54
34.66
30.58
28.05
26.37
24.53
21.62
17.23
11.67
5.81
0.68
-2.79
-4.22
-3.73
-1.86
0.68
3.27
5.64
7.81
9.98
12.37
15.01
17.83
20.76
23.83
27.17
30.94
35.25
40.07
45.28
50.74
56.33
61.84
66.99
71.37
74.55
76.29
76.57
75.65
73.81
71.22
67.83
63.37
57.57
50.23
41.33
30.92
19.03
5.68
-8.94
-24.34
-39.64
-53.80
-65.87
-75.44
-82.75
-88.58
-93.92
-99.50
-105.54
-111.82
-117.89
-123.45
-128.50
-133.37
-138.44
-144.04
-150.23
-156.89
-163.73
-170.41
-176.48
-181.44
-184.80
-186.27
-185.82
-183.66
-180.07
-175.03
-167.90
-157.51
-142.55
-122.19
-96.78
-68.07
-38.75
-11.60
11.59
30.68
47.09
62.92
79.88
98.41
117.60
135.70
150.99
162.36
169.40
172.09
170.41
164.23
153.50
138.59
120.60
101.24
82.46
65.98
52.81
43.11
36.34
31.60
28.02
25.11
22.75
21.10
20.28
20.17
20.31
20.05
18.89
16.72
13.92
11.24
9.52
9.43
11.23
14.74
19.37
24.08
27.56
28.46
25.72
19.05
9.10
-2.58
-14.05
-23.51
-29.88
-32.95
-33.14
-31.24
-28.02
-24.11
-20.13
-16.62
-14.14
-12.98
-13.04
-13.79
-14.44
-14.27
-12.86
-10.32
-7.22
-4.31
-2.27
-1.44
-1.81
-3.05
-4.66
-6.13
-7.06
-7.21
-6.51
-5.06
-3.08
-0.85
1.35
3.34
5.06
6.52
7.77
8.86
9.81
10.63
11.31
11.91
12.46
12.98
13.43
13.80
14.04
14.12
14.01
13.71
13.22
12.58
11.87
11.19
10.61
10.15
9.75
9.30
8.67
7.81
6.74
5.59
4.50
3.63
3.08
2.85
2.86
2.93
2.92
2.73
2.33
1.86
1.47
1.36
1.66
2.39
3.46
4.69
5.89
6.89
7.63
8.11
8.38
8.48
8.43
8.20
7.76
7.18
6.57
6.10
5.89
5.93
6.10
6.21
6.09
5.67
5.04
4.31
3.64
3.08
2.60
2.13
1.57
0.85
-0.05
-1.05
-2.07
-2.98
-3.65
-4.02
-4.10
-3.98
-3.82
-3.74
-3.82
-4.05
-4.32
-4.52
-4.54
-4.29
-3.75
-2.89
-1.78
-0.52
0.73
1.81
2.60
3.08
3.34
3.49
3.62
3.77
3.88
3.88
3.75
3.50
3.19
2.91
2.71
2.62
2.60
2.62
2.62
2.58
2.47
2.31
2.12
1.89
1.63
1.33
1.00
0.67
0.35
0.07
-0.20
-0.47
-0.77
-1.11
-1.48
-1.86
-2.23
-2.60
-3.00
-3.43
-3.87
-4.24
-4.45
-4.40
-4.03
-3.32
-2.35
-1.21
-0.02
1.11
2.11
2.96
3.61
4.05
4.27
4.25
4.06
3.78
3.59
3.60
3.87
4.34
4.85
5.20
5.24
4.94
4.39
3.76
3.19
2.72
2.32
1.89
1.36
0.73
0.11
-0.36
-0.58
-0.57
-0.44
-0.41
-0.63
-1.18
-2.03
-2.99
-3.86
-4.44
-4.62
-4.36
-3.71
-2.80
-1.79
-0.82
-0.01
0.56
0.93
1.16
1.33
1.50
1.68
1.81
1.89
1.91
1.92
1.96
2.02
2.03
1.90
1.58
1.14
0.71
0.48
0.50
0.75
1.06
1.23
1.11
0.65
-0.07
-0.92
-1.72
-2.35
-2.78
-3.03
-3.20
-3.38
-3.65
-4.02
-4.45
-4.84
-5.10
-5.12
-4.84
-4.25
-3.38
-2.32
-1.19
-0.11
0.83
1.56
2.04
2.26
2.25
2.03
1.68
1.29
0.97
0.74
0.60
0.49
0.33
0.12
-0.10
-0.24
-0.22
-0.03
0.28
0.59
0.83
0.96
0.99
0.97
0.92
0.82
0.62
0.28
-0.25
-0.98
-1.85
-2.74
-3.46
-3.84
-3.70
-3.03
-1.91
-0.52
0.89
2.13
3.05
3.59
3.73
3.47
2.85
1.98
1.02
0.15
-0.47
-0.77
-0.80
-0.68
-0.57
-0.56
-0.70
-0.93
-1.16
-1.30
-1.33
-1.31
-1.30
-1.42
-1.68
-2.05
-2.45
-2.79
-3.01
-3.14
-3.24
-3.43
-3.77
-4.28
-4.96
-5.75
-6.57
-7.34
-7.96
-8.36
-8.51
-8.45
-8.27
-8.10
-8.05
-8.13
-8.32
-8.54
-8.74
-8.89
-8.94
-8.86
-8.54
-7.83
-6.56
-4.64
-2.09
0.91
4.08
7.11
9.75
11.82
13.25
14.00
14.04
13.41
12.17
10.46
8.51
6.56
4.84
3.48
2.48
1.77
1.22
0.71
0.16
-0.43
-1.00
-1.42
-1.59
-1.45
-1.08
-0.61
-0.22
-0.05
-0.14
-0.38
-0.63
-0.73
-0.63
-0.36
-0.01
0.28
0.43
0.38
0.14
-0.20
-0.51
-0.67
-0.60
-0.32
0.06
0.38
0.53
0.51
0.38
0.28
0.26
0.30
0.28
0.10
-0.25
-0.70
-1.11
-1.38
-1.46
-1.43
-1.41
-1.51
-1.76
-2.12
-2.45
-2.62
-2.53
-2.16
-1.56
-0.86
-0.20
0.30
0.58
0.63
0.50
0.30
0.13
0.04
0.05
0.09
0.08
-0.02
-0.21
-0.43
-0.61
-0.68
-0.66
-0.58
-0.48
-0.41
-0.40
-0.43
-0.51
-0.64
-0.81
-0.99
-1.19
-1.38
-1.59
-1.82
-2.06
-2.30
-2.51
-2.66
-2.74
-2.74
-2.69
-2.60
-2.49
-2.35
-2.16
-1.93
-1.67
-1.41
-1.15
-0.87
-0.53
-0.14
0.24
0.51
0.58
0.44
0.18
-0.06
-0.12
0.06
0.41
0.82
1.17
1.37
1.41
1.32
1.17
1.00
0.86
0.75
0.63
0.44
0.15
-0.23
-0.61
-0.88
-0.94
-0.78
-0.48
-0.18
0.00
0.02
-0.10
-0.27
-0.40
-0.46
-0.46
-0.43
-0.40
-0.36
-0.25
-0.05
0.23
0.53
0.74
0.76
0.56
0.21
-0.18
-0.48
-0.64
-0.65
-0.57
-0.43
-0.22
0.11
0.58
1.16
1.72
2.15
2.35
2.33
2.15
1.93
1.75
1.62
1.53
1.43
1.31
1.22
1.21
1.31
1.49
1.66
1.71
1.56
1.22
0.74
0.24
-0.18
-0.44
-0.46
-0.25
0.17
0.71
1.22
1.56
1.62
1.40
1.01
0.60
0.30
0.19
0.18
0.18
0.09
-0.11
-0.36
-0.55
-0.62
-0.56
-0.45
-0.41
-0.50
-0.72
-0.99
-1.16
-1.13
-0.89
-0.50
-0.11
0.18
0.31
0.33
0.31
0.31
0.34
0.34
0.23
-0.04
-0.43
-0.86
-1.18
-1.31
-1.18
-0.83
-0.31
0.26
0.81
1.27
1.60
1.76
1.75
1.59
1.30
0.97
0.67
0.47
0.38
0.34
0.29
0.16
-0.05
-0.29
-0.46
-0.51
-0.43
-0.29
-0.18
-0.17
-0.27
-0.44
-0.60
-0.71
-0.75
-0.76
-0.78
-0.79
-0.79
-0.72
-0.55
-0.33
-0.13
-0.07
-0.21
-0.54
-0.92
-1.19
-1.20
-0.91
-0.39
0.21
0.76
1.14
1.35
1.44
1.47
1.47
1.46
1.39
1.25
1.01
0.69
0.34
0.01
-0.25
-0.41
-0.43
-0.34
-0.19
-0.04
0.06
0.08
0.04
-0.04
-0.12
-0.17
-0.20
-0.25
-0.33
-0.44
-0.57
-0.68
-0.74
-0.73
-0.64
-0.51
-0.35
-0.23
-0.16
-0.14
-0.14
-0.11
0.00
0.20
0.45
0.71
0.92
1.02
1.00
0.87
0.68
0.49
0.36
0.33
0.41
0.58
0.77
0.94
1.00
0.91
0.66
0.28
-0.12
-0.43
-0.54
-0.42
-0.10
0.29
0.62
0.77
0.74
0.59
0.43
0.32
0.28
0.28
0.24
0.17
0.07
-0.04
-0.13
-0.22
-0.38
-0.61
-0.90
-1.12
-1.13
-0.82
-0.22
0.51
1.13
1.43
1.33
0.90
0.38
-0.00
-0.12
0.01
0.25
0.45
0.54
0.53
0.47
0.42
0.40
0.40
0.42
0.47
0.58
0.73
0.86
0.87
0.73
0.47
0.19
0.04
0.10
0.35
0.69
0.99
1.16
1.15
0.99
0.72
0.33
-0.13
-0.63
-1.06
-1.29
-1.24
-0.89
-0.38
0.11
0.38
0.41
0.25
0.09
0.09
0.32
0.72
1.15
1.47
1.61
1.62
1.58
1.55
1.52
1.42
1.21
0.86
0.45
0.10
-0.11
-0.13
-0.01
0.16
0.30
0.37
0.38
0.42
0.54
0.74
0.98
1.15
1.20
1.10
0.91
0.70
0.55
0.47
0.43
0.37
0.22
0.01
-0.20
-0.34
-0.35
-0.28
-0.19
-0.18
-0.28
-0.44
-0.58
-0.61
-0.51
-0.31
-0.08
0.13
0.30
0.42
0.48
0.45
0.30
0.06
-0.19
-0.31
-0.22
0.07
0.41
0.62
0.56
0.26
-0.15
-0.44
-0.52
-0.40
-0.21
-0.14
-0.28
-0.61
-1.01
-1.35
-1.56
-1.65
-1.69
-1.74
-1.83
-1.90
-1.91
-1.83
-1.70
-1.56
-1.47
-1.43
-1.39
-1.28
-1.05
-0.69
-0.29
0.07
0.30
0.38
0.37
0.34
0.34
0.37
0.40
0.38
0.27
0.08
-0.13
-0.29
-0.35
-0.31
-0.22
-0.13
-0.09
-0.08
-0.12
-0.20
-0.33
-0.52
-0.75
-0.94
-1.03
-0.98
-0.83
-0.66
-0.55
-0.51
-0.51
-0.48
-0.41
-0.36
-0.45
-0.72
-1.12
-1.52
-1.78
-1.81
-1.67
-1.45
-1.23
-1.04
-0.83
-0.57
-0.24
0.11
0.43
0.67
0.83
0.88
0.84
0.66
0.34
-0.10
-0.55
-0.91
-1.13
-1.22
-1.22
-1.20
-1.17
-1.10
-0.97
-0.83
-0.77
-0.92
-1.33
-1.94
-2.57
-3.05
-3.25
-3.20
-3.02
-2.91
-2.99
-3.30
-3.76
-4.28
-4.79
-5.30
-5.78
-6.25
-6.65
-6.92
-7.02
-6.94
-6.66
-6.22
-5.56
-4.59
-3.19
-1.30
1.02
3.58
6.13
8.35
10.02
11.04
11.46
11.39
11.01
10.42
9.65
8.70
7.54
6.22
4.87
3.65
2.66
1.94
1.44
1.07
0.80
0.61
0.53
0.58
0.71
0.84
0.90
0.79
0.49
0.03
-0.49
-0.95
-1.23
-1.28
-1.13
-0.88
-0.65
-0.54
-0.55
-0.62
-0.67
-0.65
-0.53
-0.32
-0.03
0.30
0.61
0.81
0.82
0.64
0.35
0.06
-0.09
-0.08
0.05
0.23
0.41
0.58
0.72
0.82
0.85
0.76
0.59
0.40
0.29
0.30
0.39
0.41
0.25
-0.09
-0.48
-0.70
-0.61
-0.21
0.36
0.86
1.07
0.95
0.59
0.19
-0.07
-0.13
-0.02
0.11
0.17
0.11
-0.03
-0.14
-0.19
-0.19
-0.18
-0.23
-0.35
-0.51
-0.61
-0.63
-0.54
-0.39
-0.21
-0.03
0.17
0.37
0.58
0.74
0.81
0.79
0.72
0.64
0.59
0.59
0.56
0.45
0.23
-0.08
-0.40
-0.64
-0.73
-0.67
-0.50
-0.29
-0.16
-0.14
-0.25
-0.43
-0.60
-0.67
-0.63
-0.49
-0.33
-0.19
-0.11
-0.09
-0.07
-0.03
0.06
0.19
0.32
0.39
0.38
0.26
0.07
-0.13
-0.26
-0.31
-0.27
-0.21
-0.20
-0.29
-0.49
-0.73
-0.90
-0.92
-0.73
-0.38
0.05
0.41
0.62
0.65
0.54
0.40
0.31
0.28
0.28
0.24
0.12
-0.04
-0.18
-0.26
-0.27
-0.26
-0.26
-0.25
-0.21
-0.07
0.13
0.32
0.43
0.42
0.35
0.31
0.34
0.42
0.46
0.38
0.20
0.01
-0.11
-0.14
-0.15
-0.29
-0.59
-0.99
-1.30
-1.34
-1.04
-0.47
0.16
0.63
0.84
0.80
0.63
0.47
0.39
0.39
0.41
0.39
0.32
0.22
0.17
0.21
0.35
0.53
0.68
0.73
0.62
0.40
0.13
-0.13
-0.30
-0.34
-0.26
-0.11
0.04
0.08
-0.01
-0.24
-0.51
-0.71
-0.73
-0.52
-0.12
0.35
0.75
0.98
0.96
0.71
0.34
-0.06
-0.38
-0.57
-0.61
-0.53
-0.35
-0.10
0.21
0.55
0.85
1.06
1.10
0.93
0.58
0.14
-0.25
-0.49
-0.54
-0.43
-0.26
-0.16
-0.19
-0.37
-0.62
-0.87
-1.03
-1.06
-0.98
-0.87
-0.76
-0.68
-0.61
-0.52
-0.37
-0.16
0.07
0.24
0.27
0.13
-0.15
-0.45
-0.67
-0.74
-0.68
-0.61
-0.67
-0.93
-1.33
-1.70
-1.85
-1.66
-1.15
-0.47
0.16
0.58
0.72
0.64
0.46
0.29
0.21
0.23
0.32
0.45
0.55
0.61
0.62
0.56
0.46
0.32
0.18
0.06
-0.04
-0.10
-0.16
-0.19
-0.19
-0.15
-0.05
0.08
0.18
0.21
0.12
-0.06
-0.28
-0.49
-0.64
-0.73
-0.77
-0.77
-0.73
-0.66
-0.57
-0.47
-0.38
-0.33
-0.33
-0.36
-0.38
-0.36
-0.27
-0.13
0.08
0.30
0.51
0.65
0.71
0.68
0.58
0.42
0.23
0.02
-0.19
-0.36
-0.46
-0.47
-0.36
-0.17
0.09
0.38
0.64
0.80
0.81
0.68
0.43
0.15
-0.07
-0.17
-0.13
-0.01
0.11
0.16
0.12
0.02
-0.06
-0.09
-0.06
0.00
0.05
0.05
-0.00
-0.07
-0.12
-0.14
-0.13
-0.10
-0.06
-0.01
0.06
0.16
0.30
0.44
0.53
0.55
0.46
0.28
0.05
-0.13
-0.19
-0.12
0.03
0.18
0.25
0.24
0.19
0.15
0.12
0.07
-0.06
-0.30
-0.59
-0.83
-0.95
-0.92
-0.78
-0.63
-0.50
-0.40
-0.30
-0.18
-0.03
0.10
0.18
0.21
0.21
0.21
0.20
0.17
0.08
-0.07
-0.22
-0.34
-0.39
-0.42
-0.45
-0.52
-0.59
-0.57
-0.40
-0.09
0.30
0.65
0.85
0.90
0.83
0.70
0.51
0.24
-0.15
-0.61
-1.05
-1.32
-1.33
-1.07
-0.69
-0.32
-0.07
0.07
0.19
0.37
0.61
0.84
0.93
0.84
0.61
0.36
0.19
0.15
0.17
0.13
-0.04
-0.33
-0.63
-0.81
-0.77
-0.53
-0.19
0.10
0.21
0.07
-0.24
-0.58
-0.77
-0.70
-0.42
-0.06
0.22
0.32
0.25
0.12
0.06
0.13
0.31
0.49
0.61
0.63
0.64
0.69
0.78
0.84
0.76
0.52
0.17
-0.11
-0.21
-0.11
0.08
0.17
0.02
-0.36
-0.80
-1.09
-1.07
-0.73
-0.26
0.12
0.26
0.11
-0.20
-0.54
-0.76
-0.81
-0.67
-0.40
-0.02
0.39
0.74
0.94
0.95
0.78
0.55
0.36
0.30
0.35
0.44
0.48
0.43
0.29
0.13
-0.03
-0.16
-0.26
-0.30
-0.30
-0.25
-0.20
-0.23
-0.37
-0.62
-0.88
-1.01
-0.94
-0.63
-0.20
0.22
0.47
0.49
0.28
-0.07
-0.48
-0.86
-1.16
-1.34
-1.40
-1.33
-1.12
-0.77
-0.33
0.14
0.58
0.92
1.14
1.22
1.17
0.99
0.71
0.43
0.23
0.18
0.31
0.53
0.75
0.85
0.82
0.72
0.62
0.59
0.58
0.52
0.34
0.03
-0.32
-0.64
-0.86
-0.97
-1.04
-1.07
-1.08
-1.01
-0.87
-0.66
-0.46
-0.30
-0.22
-0.15
-0.05
0.12
0.35
0.59
0.77
0.84
0.82
0.76
0.73
0.75
0.80
0.81
0.69
0.40
-0.02
-0.44
-0.75
-0.85
-0.75
-0.53
-0.28
-0.09
0.04
0.13
0.18
0.19
0.13
0.03
-0.06
-0.09
-0.02
0.15
0.35
0.50
0.54
0.48
0.35
0.20
0.07
0.02
0.03
0.09
0.19
0.31
0.43
0.53
0.59
0.59
0.50
0.33
0.11
-0.11
-0.28
-0.37
-0.41
-0.42
-0.45
-0.47
-0.43
-0.26
0.07
0.52
0.95
1.19
1.15
0.83
0.35
-0.14
-0.52
-0.74
-0.83
-0.86
-0.84
-0.77
-0.61
-0.39
-0.17
-0.07
-0.14
-0.36
-0.63
-0.80
-0.80
-0.62
-0.36
-0.15
-0.08
-0.15
-0.31
-0.50
-0.66
-0.79
-0.89
-0.96
-0.98
-0.91
-0.74
-0.52
-0.28
-0.08
0.06
0.17
0.27
0.35
0.42
0.45
0.46
0.45
0.46
0.53
0.63
0.72
0.72
0.60
0.38
0.14
-0.06
-0.17
-0.19
-0.17
-0.13
-0.09
-0.06
-0.03
-0.00
0.02
0.05
0.10
0.17
0.24
0.24
0.13
-0.11
-0.43
-0.72
-0.88
-0.85
-0.67
-0.43
-0.25
-0.21
-0.32
-0.53
-0.76
-0.95
-1.02
-0.95
-0.73
-0.39
0.00
0.36
0.62
0.72
0.66
0.46
0.18
-0.10
-0.32
-0.41
-0.36
-0.15
0.16
0.51
0.82
1.02
1.09
1.04
0.95
0.85
0.77
0.68
0.50
0.21
-0.20
-0.61
-0.91
-0.98
-0.80
-0.45
-0.06
0.25
0.41
0.42
0.32
0.16
-0.03
-0.25
-0.50
-0.79
-1.08
-1.30
-1.38
-1.24
-0.90
-0.42
0.05
0.39
0.52
0.48
0.32
0.13
-0.09
-0.36
-0.67
-0.99
-1.21
-1.22
-0.99
-0.61
-0.21
0.09
0.23
0.26
0.28
0.38
0.58
0.83
1.01
1.05
0.92
0.68
0.44
0.30
0.30
0.39
0.45
0.39
0.20
-0.07
-0.35
-0.58
-0.77
-0.94
-1.08
-1.15
-1.07
-0.83
-0.47
-0.10
0.13
0.15
-0.02
-0.29
-0.55
-0.72
-0.78
-0.76
-0.70
-0.62
-0.51
-0.35
-0.13
0.14
0.42
0.68
0.88
1.01
1.07
1.07
1.01
0.91
0.77
0.65
0.57
0.56
0.63
0.76
0.89
0.97
0.95
0.83
0.60
0.31
-0.00
-0.29
-0.51
-0.64
-0.68
-0.64
-0.55
-0.46
-0.40
-0.38
-0.40
-0.42
-0.43
-0.41
-0.35
-0.28
-0.19
-0.11
-0.01
0.10
0.19
0.25
0.26
0.26
0.32
0.47
0.70
0.94
1.03
0.91
0.59
0.22
-0.02
-0.01
0.24
0.62
0.95
1.11
1.09
0.98
0.85
0.74
0.61
0.43
0.19
-0.03
-0.16
-0.13
0.00
0.15
0.18
0.06
-0.17
-0.43
-0.61
-0.69
-0.67
-0.60
-0.52
-0.43
-0.35
-0.26
-0.21
-0.22
-0.35
-0.56
-0.78
-0.90
-0.82
-0.53
-0.10
0.35
0.69
0.85
0.84
0.76
0.69
0.69
0.74
0.77
0.69
0.46
0.12
-0.24
-0.51
-0.60
-0.52
-0.36
-0.24
-0.25
-0.41
-0.64
-0.84
-0.89
-0.77
-0.51
-0.24
-0.07
-0.05
-0.19
-0.40
-0.59
-0.66
-0.57
-0.36
-0.12
0.05
0.08
-0.06
-0.33
-0.66
-0.97
-1.23
-1.39
-1.42
-1.30
-1.02
-0.61
-0.13
0.33
0.69
0.92
1.01
0.97
0.83
0.62
0.37
0.14
-0.02
-0.09
-0.06
-0.01
-0.00
-0.09
-0.24
-0.39
-0.47
-0.44
-0.32
-0.17
-0.03
0.11
0.27
0.48
0.70
0.85
0.82
0.56
0.13
-0.36
-0.71
-0.80
-0.62
-0.26
0.12
0.38
0.44
0.32
0.07
-0.21
-0.46
-0.63
-0.69
-0.66
-0.58
-0.53
-0.56
-0.65
-0.74
-0.73
-0.55
-0.22
0.16
0.48
0.66
0.66
0.54
0.34
0.08
-0.24
-0.59
-0.90
-1.06
-1.02
-0.78
-0.44
-0.11
0.13
0.25
0.28
0.27
0.22
0.14
0.03
-0.09
-0.16
-0.10
0.07
0.32
0.53
0.62
0.54
0.29
-0.08
-0.52
-0.92
-1.18
-1.22
-1.01
-0.60
-0.10
0.36
0.70
0.90
1.00
1.03
1.03
0.99
0.92
0.86
0.83
0.85
0.88
0.85
0.70
0.45
0.15
-0.12
-0.28
-0.31
-0.25
-0.14
-0.03
0.06
0.11
0.10
0.01
-0.16
-0.38
-0.57
-0.68
-0.65
-0.49
-0.23
0.03
0.23
0.30
0.24
0.09
-0.09
-0.28
-0.42
-0.54
-0.60
-0.59
-0.48
-0.29
-0.03
0.23
0.41
0.46
0.41
0.31
0.23
0.22
0.28
0.36
0.39
0.34
0.20
0.03
-0.11
-0.18
-0.14
-0.02
0.18
0.40
0.59
0.65
0.52
0.18
-0.27
-0.66
-0.84
-0.76
-0.50
-0.24
-0.10
-0.13
-0.26
-0.38
-0.43
-0.44
-0.50
-0.66
-0.90
-1.11
-1.19
-1.09
-0.82
-0.46
-0.08
0.24
0.45
0.53
0.49
0.40
0.34
0.36
0.45
0.56
0.60
0.51
0.31
0.08
-0.11
-0.23
-0.29
-0.32
-0.33
-0.25
-0.01
0.40
0.89
1.27
1.36
1.11
0.58
0.00
-0.43
-0.60
-0.52
-0.28
-0.01
0.21
0.36
0.41
0.35
0.16
-0.17
-0.59
-1.02
-1.34
-1.48
-1.40
-1.14
-0.75
-0.34
0.00
0.22
0.30
0.30
0.27
0.28
0.34
0.40
0.40
0.30
0.12
-0.06
-0.18
-0.16
-0.04
0.12
0.24
0.27
0.23
0.19
0.17
0.19
0.22
0.21
0.11
-0.07
-0.30
-0.56
-0.80
-0.97
-1.05
-1.01
-0.82
-0.53
-0.20
0.06
0.17
0.11
-0.09
-0.38
-0.66
-0.87
-0.99
-1.02
-0.96
-0.81
-0.56
-0.22
0.20
0.63
0.99
1.23
1.31
1.24
1.06
0.83
0.63
0.46
0.36
0.33
0.36
0.43
0.52
0.60
0.63
0.57
0.45
0.30
0.16
0.09
0.10
0.18
0.28
0.36
0.41
0.39
0.26
0.01
-0.36
-0.78
-1.14
-1.31
-1.22
-0.86
-0.34
0.18
0.56
0.73
0.69
0.48
0.19
-0.11
-0.36
-0.52
-0.56
-0.47
-0.27
-0.02
0.24
0.45
0.61
0.70
0.76
0.81
0.86
0.94
1.01
1.04
0.99
0.83
0.57
0.28
0.02
-0.15
-0.19
-0.14
-0.02
0.10
0.20
0.25
0.21
0.09
-0.12
-0.37
-0.61
-0.78
-0.84
-0.76
-0.58
-0.33
-0.09
0.07
0.12
0.06
-0.09
-0.28
-0.46
-0.57
-0.58
-0.46
-0.24
0.03
0.28
0.42
0.40
0.24
0.03
-0.10
-0.09
0.06
0.27
0.42
0.43
0.31
0.11
-0.06
-0.17
-0.20
-0.17
-0.11
-0.05
0.01
0.08
0.13
0.15
0.14
0.12
0.09
0.07
0.03
-0.06
-0.21
-0.39
-0.52
-0.53
-0.39
-0.19
-0.07
-0.15
-0.45
-0.82
-1.04
-0.96
-0.54
0.03
0.55
0.83
0.85
0.69
0.50
0.33
0.19
0.02
-0.18
-0.38
-0.46
-0.39
-0.16
0.12
0.33
0.38
0.27
0.05
-0.22
-0.44
-0.60
-0.66
-0.66
-0.59
-0.47
-0.31
-0.11
0.10
0.28
0.34
0.26
0.04
-0.27
-0.54
-0.66
-0.58
-0.32
0.03
0.34
0.52
0.54
0.43
0.26
0.09
-0.07
-0.19
-0.24
-0.19
-0.02
0.27
0.59
0.81
0.81
0.53
0.03
-0.51
-0.90
-1.00
-0.76
-0.27
0.31
0.81
1.08
1.09
0.89
0.59
0.28
0.01
-0.18
-0.29
-0.32
-0.27
-0.19
-0.17
-0.25
-0.46
-0.75
-0.99
-1.06
-0.91
-0.55
-0.09
0.33
0.62
0.69
0.51
0.13
-0.37
-0.84
-1.09
-1.00
-0.55
0.12
0.77
1.18
1.24
0.99
0.60
0.27
0.10
0.09
0.17
0.25
0.31
0.34
0.36
0.34
0.26
0.11
-0.09
-0.27
-0.36
-0.31
-0.17
-0.01
0.08
0.06
-0.06
-0.24
-0.42
-0.58
-0.65
-0.64
-0.53
-0.37
-0.19
-0.09
-0.09
-0.17
-0.28
-0.35
-0.34
-0.26
-0.15
-0.03
0.07
0.18
0.28
0.36
0.36
0.24
0.01
-0.27
-0.50
-0.62
-0.58
-0.42
-0.17
0.10
0.36
0.59
0.76
0.82
0.76
0.54
0.20
-0.19
-0.52
-0.72
-0.76
-0.67
-0.50
-0.32
-0.18
-0.08
-0.03
-0.02
-0.05
-0.14
-0.27
-0.42
-0.52
-0.54
-0.45
-0.26
0.00
0.29
0.56
0.77
0.90
0.91
0.81
0.61
0.39
0.24
0.22
0.32
0.51
0.70
0.82
0.82
0.72
0.53
0.30
0.07
-0.14
-0.32
-0.48
-0.63
-0.76
-0.87
-0.93
-0.89
-0.74
-0.49
-0.20
0.05
0.21
0.24
0.17
0.03
-0.12
-0.25
-0.35
-0.41
-0.40
-0.30
-0.10
0.19
0.47
0.65
0.62
0.40
0.05
-0.26
-0.40
-0.30
0.00
0.41
0.81
1.09
1.23
1.21
1.07
0.82
0.51
0.19
-0.07
-0.22
-0.22
-0.10
0.06
0.17
0.17
0.04
-0.19
-0.41
-0.55
-0.58
-0.54
-0.50
-0.53
-0.63
-0.74
-0.75
-0.62
-0.36
-0.07
0.16
0.25
0.19
0.05
-0.09
-0.14
-0.08
0.06
0.18
0.21
0.11
-0.08
-0.26
-0.29
-0.12
0.22
0.61
0.90
1.00
0.92
0.73
0.52
0.35
0.23
0.15
0.09
0.06
0.07
0.12
0.23
0.36
0.51
0.65
0.76
0.82
0.81
0.68
0.43
0.06
-0.37
-0.76
-1.02
-1.07
-0.95
-0.74
-0.52
-0.37
-0.29
-0.22
-0.11
0.05
0.19
0.25
0.17
-0.01
-0.21
-0.32
-0.29
-0.16
-0.04
-0.02
-0.12
-0.25
-0.29
-0.17
0.12
0.44
0.67
0.70
0.53
0.23
-0.13
-0.49
-0.82
-1.08
-1.23
-1.19
-0.94
-0.53
-0.10
0.20
0.29
0.19
0.01
-0.13
-0.18
-0.15
-0.10
-0.07
-0.06
0.00
0.15
0.34
0.47
0.45
0.20
-0.21
-0.62
-0.87
-0.84
-0.51
-0.01
0.52
0.93
1.13
1.13
0.98
0.78
0.62
0.53
0.53
0.57
0.60
0.60
0.55
0.46
0.38
0.32
0.28
0.21
0.09
-0.06
-0.19
-0.22
-0.16
-0.05
-0.01
-0.11
-0.37
-0.72
-1.03
-1.20
-1.24
-1.19
-1.14
-1.14
-1.17
-1.16
-1.06
-0.87
-0.63
-0.40
-0.23
-0.12
-0.04
0.08
0.28
0.56
0.88
1.17
1.30
1.21
0.89
0.45
0.03
-0.22
-0.23
-0.04
0.24
0.48
0.62
0.65
0.58
0.46
0.27
0.02
-0.26
-0.55
-0.78
-0.92
-0.96
-0.94
-0.88
-0.79
-0.66
-0.45
-0.15
0.18
0.46
0.59
0.49
0.17
-0.27
-0.69
-0.98
-1.06
-0.96
-0.76
-0.56
-0.40
-0.29
-0.16
0.03
0.28
0.54
0.70
0.71
0.56
0.31
0.10
0.00
0.06
0.20
0.34
0.36
0.26
0.06
-0.17
-0.35
-0.46
-0.49
-0.50
-0.56
-0.69
-0.88
-1.07
-1.16
-1.07
-0.74
-0.22
0.38
0.91
1.24
1.33
1.20
0.96
0.65
0.31
-0.08
-0.54
-0.99
-1.35
-1.51
-1.41
-1.11
-0.72
-0.39
-0.21
-0.16
-0.16
-0.12
-0.02
0.08
0.14
0.13
0.10
0.13
0.27
0.48
0.65
0.69
0.57
0.35
0.16
0.12
0.29
0.59
0.93
1.16
1.21
1.06
0.71
0.24
-0.24
-0.60
-0.77
-0.73
-0.54
-0.28
-0.06
0.06
0.04
-0.13
-0.42
-0.77
-1.10
-1.32
-1.34
-1.15
-0.80
-0.37
0.02
0.28
0.39
0.38
0.32
0.27
0.27
0.28
0.25
0.11
-0.13
-0.38
-0.51
-0.43
-0.13
0.31
0.74
1.03
1.16
1.15
1.08
0.99
0.84
0.58
0.22
-0.17
-0.48
-0.59
-0.50
-0.29
-0.12
-0.08
-0.19
-0.36
-0.50
-0.55
-0.51
-0.43
-0.37
-0.33
-0.29
-0.21
-0.10
0.03
0.12
0.16
0.16
0.14
0.15
0.19
0.27
0.39
0.53
0.64
0.71
0.74
0.78
0.87
1.01
1.15
1.22
1.14
0.90
0.54
0.15
-0.19
-0.46
-0.70
-0.91
-1.08
-1.17
-1.13
-0.92
-0.57
-0.16
0.23
0.53
0.67
0.62
0.38
0.01
-0.42
-0.76
-0.92
-0.83
-0.54
-0.15
0.19
0.42
0.51
0.52
0.54
0.60
0.69
0.74
0.71
0.57
0.37
0.22
0.20
0.35
0.66
0.99
1.19
1.14
0.79
0.22
-0.41
-0.91
-1.12
-1.02
-0.69
-0.29
0.01
0.15
0.17
0.15
0.17
0.26
0.33
0.32
0.16
-0.13
-0.47
-0.76
-0.93
-0.94
-0.84
-0.66
-0.46
-0.26
-0.05
0.17
0.41
0.66
0.87
0.98
0.94
0.74
0.42
0.07
-0.22
-0.36
-0.34
-0.24
-0.13
-0.07
-0.07
-0.07
-0.01
0.14
0.35
0.54
0.62
0.55
0.36
0.12
-0.08
-0.19
-0.22
-0.21
-0.22
-0.30
-0.42
-0.56
-0.65
-0.70
-0.74
-0.82
-1.00
-1.26
-1.50
-1.62
-1.52
-1.23
-0.83
-0.40
-0.03
0.28
0.54
0.78
1.00
1.15
1.18
1.08
0.90
0.72
0.63
0.64
0.69
0.70
0.59
0.39
0.22
0.20
0.39
0.74
1.07
1.21
1.05
0.65
0.18
-0.20
-0.39
-0.43
-0.42
-0.45
-0.56
-0.68
-0.74
-0.72
-0.64
-0.60
-0.65
-0.79
-0.98
-1.14
-1.18
-1.09
-0.84
-0.45
0.07
0.68
1.28
1.74
1.92
1.75
1.29
0.71
0.19
-0.09
-0.12
0.05
0.28
0.47
0.57
0.57
0.48
0.34
0.15
-0.03
-0.14
-0.14
-0.01
0.19
0.41
0.58
0.67
0.64
0.50
0.28
0.04
-0.17
-0.31
-0.38
-0.43
-0.54
-0.73
-0.97
-1.17
-1.25
-1.18
-1.01
-0.80
-0.59
-0.37
-0.12
0.20
0.54
0.82
0.93
0.85
0.61
0.31
0.04
-0.13
-0.21
-0.24
-0.25
-0.26
-0.24
-0.17
-0.01
0.22
0.47
0.68
0.77
0.74
0.59
0.38
0.15
-0.06
-0.25
-0.43
-0.60
-0.71
-0.70
-0.54
-0.22
0.16
0.46
0.55
0.36
-0.05
-0.55
-0.94
-1.09
-0.96
-0.63
-0.25
0.03
0.16
0.14
0.04
-0.05
-0.08
-0.05
0.01
0.07
0.14
0.21
0.30
0.40
0.48
0.50
0.42
0.25
0.04
-0.13
-0.15
0.01
0.26
0.47
0.49
0.28
-0.10
-0.46
-0.63
-0.56
-0.35
-0.16
-0.13
-0.25
-0.43
-0.55
-0.53
-0.43
-0.38
-0.47
-0.70
-0.98
-1.14
-1.08
-0.78
-0.31
0.23
0.73
1.15
1.41
1.49
1.36
1.01
0.54
0.06
-0.31
-0.49
-0.50
-0.41
-0.30
-0.21
-0.16
-0.13
-0.11
-0.10
-0.12
-0.16
-0.19
-0.17
-0.11
-0.03
-0.02
-0.10
-0.28
-0.51
-0.76
-0.98
-1.14
-1.23
-1.22
-1.09
-0.82
-0.48
-0.14
0.12
0.26
0.30
0.30
0.34
0.44
0.57
0.68
0.72
0.66
0.54
0.40
0.29
0.25
0.28
0.38
0.51
0.63
0.70
0.71
0.70
0.69
0.71
0.73
0.68
0.49
0.16
-0.22
-0.52
-0.64
-0.58
-0.42
-0.26
-0.19
-0.20
-0.25
-0.30
-0.36
-0.45
-0.60
-0.75
-0.79
-0.63
-0.26
0.20
0.56
0.65
0.44
0.03
-0.38
-0.60
-0.55
-0.27
0.12
0.49
0.75
0.88
0.91
0.86
0.75
0.61
0.47
0.34
0.25
0.19
0.14
0.07
-0.02
-0.14
-0.25
-0.34
-0.40
-0.43
-0.45
-0.43
-0.37
-0.27
-0.19
-0.17
-0.27
-0.51
-0.84
-1.17
-1.40
-1.45
-1.31
-1.01
-0.63
-0.25
0.09
0.37
0.60
0.80
0.96
1.06
1.07
0.99
0.82
0.60
0.41
0.27
0.23
0.24
0.28
0.30
0.28
0.21
0.14
0.10
0.08
0.08
0.04
-0.05
-0.18
-0.30
-0.36
-0.30
-0.16
-0.03
0.01
-0.06
-0.21
-0.33
-0.34
-0.22
-0.04
0.10
0.16
0.14
0.11
0.15
0.32
0.57
0.83
1.01
1.02
0.84
0.51
0.12
-0.22
-0.42
-0.44
-0.35
-0.23
-0.19
-0.25
-0.38
-0.48
-0.47
-0.34
-0.15
0.03
0.12
0.13
0.08
0.02
-0.01
-0.00
0.03
0.08
0.13
0.19
0.22
0.19
0.08
-0.14
-0.43
-0.71
-0.88
-0.88
-0.69
-0.39
-0.08
0.19
0.37
0.52
0.66
0.81
0.95
1.02
1.01
0.94
0.82
0.66
0.50
0.30
0.07
-0.15
-0.34
-0.44
-0.41
-0.26
-0.02
0.27
0.57
0.82
0.97
0.95
0.73
0.38
0.01
-0.25
-0.29
-0.11
0.19
0.47
0.63
0.63
0.52
0.37
0.20
0.01
-0.23
-0.50
-0.71
-0.80
-0.72
-0.52
-0.30
-0.16
-0.11
-0.11
-0.05
0.10
0.31
0.47
0.49
0.36
0.17
0.07
0.17
0.46
0.80
0.98
0.87
0.46
-0.11
-0.62
-0.90
-0.90
-0.69
-0.38
-0.10
0.08
0.18
0.21
0.19
0.12
-0.01
-0.18
-0.36
-0.51
-0.58
-0.57
-0.51
-0.45
-0.44
-0.52
-0.62
-0.66
-0.54
-0.22
0.25
0.75
1.13
1.30
1.29
1.13
0.90
0.65
0.38
0.10
-0.15
-0.32
-0.36
-0.24
-0.05
0.12
0.19
0.13
-0.02
-0.20
-0.35
-0.45
-0.50
-0.55
-0.60
-0.66
-0.68
-0.65
-0.53
-0.39
-0.26
-0.22
-0.29
-0.44
-0.65
-0.83
-0.96
-1.00
-0.93
-0.75
-0.46
-0.13
0.17
0.37
0.43
0.38
0.28
0.18
0.06
-0.10
-0.33
-0.57
-0.75
-0.81
-0.73
-0.56
-0.39
-0.26
-0.16
-0.05
0.09
0.21
0.25
0.20
0.12
0.14
0.36
0.75
1.16
1.41
1.41
1.18
0.85
0.57
0.41
0.32
0.23
0.06
-0.21
-0.53
-0.83
-1.05
-1.17
-1.17
-1.08
-0.95
-0.83
-0.80
-0.91
-1.14
-1.39
-1.51
-1.36
-0.90
-0.23
0.47
1.00
1.24
1.17
0.92
0.65
0.45
0.36
0.33
0.32
0.33
0.40
0.59
0.88
1.18
1.33
1.25
0.95
0.53
0.15
-0.08
-0.15
-0.11
-0.00
0.12
0.24
0.33
0.36
0.26
0.04
-0.27
-0.55
-0.72
-0.70
-0.52
-0.26
-0.01
0.14
0.16
0.04
-0.18
-0.44
-0.67
-0.79
-0.75
-0.58
-0.33
-0.10
-0.01
-0.09
-0.33
-0.59
-0.71
-0.55
-0.11
0.51
1.09
1.40
1.33
0.91
0.32
-0.22
-0.55
-0.65
-0.58
-0.45
-0.31
-0.19
-0.07
0.05
0.12
0.12
0.05
-0.06
-0.13
-0.14
-0.10
-0.09
-0.15
-0.27
-0.41
-0.49
-0.51
-0.52
-0.60
-0.79
-1.05
-1.24
-1.24
-1.01
-0.62
-0.25
-0.05
-0.08
-0.28
-0.48
-0.53
-0.34
0.01
0.41
0.70
0.79
0.74
0.64
0.64
0.83
1.17
1.55
1.80
1.81
1.56
1.13
0.65
0.23
-0.07
-0.23
-0.28
-0.26
-0.20
-0.16
-0.19
-0.30
-0.52
-0.79
-1.08
-1.31
-1.45
-1.47
-1.34
-1.06
-0.68
-0.26
0.11
0.35
0.43
0.41
0.37
0.37
0.46
0.57
0.65
0.61
0.46
0.22
0.01
-0.10
-0.02
0.22
0.56
0.87
1.05
1.02
0.77
0.36
-0.13
-0.61
-1.02
-1.29
-1.42
-1.40
-1.23
-0.97
-0.68
-0.42
-0.23
-0.11
-0.01
0.09
0.20
0.31
0.38
0.43
0.45
0.47
0.47
0.40
0.20
-0.10
-0.40
-0.55
-0.40
0.06
0.72
1.34
1.70
1.67
1.31
0.76
0.23
-0.16
-0.36
-0.41
-0.37
-0.26
-0.10
0.11
0.36
0.58
0.70
0.72
0.67
0.66
0.75
0.93
1.12
1.17
1.00
0.61
0.12
-0.31
-0.54
-0.53
-0.32
-0.04
0.18
0.24
0.14
-0.09
-0.35
-0.58
-0.71
-0.74
-0.68
-0.54
-0.36
-0.19
-0.05
0.03
0.01
-0.08
-0.19
-0.23
-0.16
0.00
0.22
0.39
0.46
0.43
0.33
0.25
0.22
0.25
0.29
0.31
0.27
0.18
0.05
-0.05
-0.10
-0.08
-0.04
-0.02
-0.09
-0.27
-0.52
-0.73
-0.80
-0.67
-0.38
-0.03
0.27
0.45
0.53
0.52
0.47
0.36
0.16
-0.13
-0.45
-0.72
-0.83
-0.78
-0.63
-0.47
-0.38
-0.36
-0.38
-0.39
-0.41
-0.44
-0.53
-0.64
-0.69
-0.62
-0.38
-0.01
0.36
0.62
0.65
0.47
0.14
-0.20
-0.44
-0.50
-0.42
-0.24
-0.07
0.05
0.09
0.05
-0.04
-0.18
-0.33
-0.45
-0.52
-0.51
-0.41
-0.26
-0.09
0.05
0.15
0.16
0.09
-0.07
-0.30
-0.53
-0.70
-0.77
-0.69
-0.51
-0.27
-0.06
0.09
0.19
0.27
0.34
0.39
0.40
0.32
0.15
-0.04
-0.18
-0.18
-0.08
0.06
0.15
0.15
0.07
0.01
-0.02
-0.04
-0.15
-0.41
-0.77
-1.09
-1.21
-1.04
-0.61
-0.08
0.37
0.66
0.79
0.82
0.82
0.81
0.77
0.66
0.52
0.37
0.27
0.23
0.26
0.35
0.48
0.65
0.84
1.01
1.11
1.11
1.00
0.80
0.57
0.36
0.19
0.08
0.07
0.15
0.27
0.36
0.30
0.07
-0.31
-0.68
-0.91
-0.92
-0.73
-0.49
-0.31
-0.27
-0.32
-0.37
-0.32
-0.16
0.05
0.23
0.31
0.31
0.23
0.10
-0.06
-0.26
-0.47
-0.64
-0.73
-0.68
-0.50
-0.22
0.07
0.30
0.42
0.40
0.26
0.04
-0.19
-0.37
-0.45
-0.43
-0.36
-0.31
-0.31
-0.41
-0.58
-0.77
-0.95
-1.05
-1.04
-0.91
-0.67
-0.36
-0.04
0.21
0.33
0.29
0.13
-0.07
-0.22
-0.24
-0.13
0.08
0.30
0.48
0.58
0.63
0.63
0.58
0.45
0.19
-0.20
-0.65
-1.04
-1.25
-1.23
-1.00
-0.63
-0.24
0.09
0.31
0.44
0.50
0.55
0.61
0.69
0.78
0.82
0.75
0.54
0.22
-0.12
-0.40
-0.51
-0.43
-0.21
0.06
0.29
0.42
0.43
0.36
0.26
0.14
0.02
-0.07
-0.14
-0.16
-0.11
-0.02
0.08
0.15
0.20
0.22
0.25
0.28
0.31
0.32
0.31
0.31
0.33
0.38
0.43
0.42
0.32
0.14
-0.07
-0.24
-0.31
-0.30
-0.29
-0.32
-0.40
-0.45
-0.41
-0.20
0.15
0.56
0.85
0.95
0.83
0.60
0.40
0.33
0.42
0.56
0.67
0.68
0.59
0.47
0.37
0.29
0.20
0.04
-0.17
-0.37
-0.45
-0.37
-0.15
0.09
0.26
0.28
0.15
-0.06
-0.29
-0.47
-0.53
-0.45
-0.22
0.11
0.46
0.72
0.81
0.71
0.50
0.28
0.18
0.23
0.40
0.60
0.76
0.82
0.78
0.66
0.49
0.26
0.02
-0.22
-0.39
-0.45
-0.41
-0.32
-0.22
-0.17
-0.16
-0.17
-0.16
-0.12
-0.07
-0.06
-0.12
-0.30
-0.59
-0.95
-1.30
-1.56
-1.61
-1.41
-0.98
-0.45
-0.00
0.23
0.22
0.04
-0.13
-0.17
-0.05
0.13
0.22
0.10
-0.18
-0.50
-0.68
-0.62
-0.35
0.02
0.35
0.55
0.65
0.68
0.69
0.68
0.59
0.41
0.13
-0.18
-0.43
-0.56
-0.53
-0.36
-0.10
0.19
0.42
0.54
0.53
0.42
0.27
0.15
0.11
0.15
0.23
0.27
0.25
0.14
-0.01
-0.15
-0.19
-0.13
0.01
0.20
0.39
0.55
0.67
0.74
0.73
0.59
0.30
-0.09
-0.49
-0.80
-0.96
-0.99
-0.97
-1.00
-1.10
-1.25
-1.37
-1.38
-1.26
-1.00
-0.66
-0.29
0.05
0.33
0.53
0.63
0.64
0.59
0.52
0.46
0.40
0.31
0.16
-0.05
-0.27
-0.44
-0.48
-0.39
-0.21
-0.02
0.12
0.20
0.30
0.48
0.74
1.01
1.15
1.05
0.74
0.31
-0.05
-0.22
-0.19
-0.03
0.14
0.25
0.30
0.30
0.28
0.23
0.12
-0.05
-0.23
-0.37
-0.41
-0.37
-0.31
-0.28
-0.29
-0.27
-0.16
0.08
0.39
0.62
0.62
0.34
-0.20
-0.84
-1.40
-1.71
-1.68
-1.31
-0.69
0.03
0.68
1.12
1.29
1.23
1.02
0.80
0.61
0.46
0.31
0.12
-0.07
-0.23
-0.32
-0.32
-0.29
-0.25
-0.22
-0.16
-0.03
0.21
0.53
0.88
1.15
1.29
1.27
1.13
0.90
0.64
0.41
0.24
0.15
0.15
0.23
0.35
0.45
0.48
0.38
0.12
-0.28
-0.74
-1.18
-1.51
-1.70
-1.75
-1.68
-1.52
-1.28
-0.98
-0.64
-0.31
-0.07
0.03
0.00
-0.08
-0.10
0.06
0.38
0.79
1.12
1.23
1.10
0.82
0.56
0.43
0.45
0.52
0.53
0.40
0.19
-0.01
-0.12
-0.14
-0.14
-0.21
-0.37
-0.57
-0.70
-0.69
-0.54
-0.32
-0.15
-0.10
-0.20
-0.41
-0.64
-0.79
-0.80
-0.66
-0.43
-0.20
-0.05
-0.02
-0.09
-0.19
-0.25
-0.21
-0.09
0.07
0.22
0.34
0.43
0.53
0.63
0.72
0.77
0.77
0.72
0.68
0.67
0.67
0.64
0.50
0.22
-0.16
-0.57
-0.91
-1.10
-1.13
-1.02
-0.78
-0.44
-0.05
0.31
0.56
0.63
0.49
0.25
0.02
-0.10
-0.09
-0.02
0.03
-0.03
-0.17
-0.33
-0.42
-0.36
-0.16
0.15
0.50
0.86
1.15
1.32
1.30
1.08
0.72
0.31
-0.02
-0.21
-0.24
-0.18
-0.11
-0.06
-0.03
0.03
0.15
0.32
0.47
0.53
0.44
0.23
-0.08
-0.40
-0.64
-0.76
-0.74
-0.59
-0.42
-0.28
-0.24
-0.28
-0.35
-0.40
-0.36
-0.24
-0.07
0.06
0.13
0.10
-0.02
-0.19
-0.38
-0.53
-0.58
-0.49
-0.28
-0.02
0.18
0.26
0.17
-0.02
-0.23
-0.37
-0.44
-0.44
-0.39
-0.31
-0.19
-0.05
0.05
0.04
-0.12
-0.40
-0.69
-0.89
-0.94
-0.84
-0.66
-0.48
-0.30
-0.10
0.14
0.39
0.58
0.65
0.57
0.41
0.24
0.10
-0.02
-0.15
-0.33
-0.53
-0.69
-0.71
-0.56
-0.27
0.09
0.42
0.61
0.63
0.48
0.24
0.00
-0.16
-0.19
-0.10
0.05
0.20
0.27
0.26
0.16
0.03
-0.09
-0.16
-0.16
-0.09
-0.03
0.00
-0.02
-0.07
-0.11
-0.12
-0.13
-0.19
-0.32
-0.50
-0.64
-0.62
-0.43
-0.12
0.17
0.30
0.19
-0.13
-0.54
-0.94
-1.23
-1.36
-1.31
-1.08
-0.67
-0.11
0.56
1.23
1.77
2.04
1.94
1.50
0.84
0.17
-0.30
-0.46
-0.36
-0.17
-0.08
-0.15
-0.32
-0.41
-0.28
0.09
0.57
0.98
1.14
1.02
0.69
0.26
-0.12
-0.37
-0.47
-0.38
-0.13
0.26
0.70
1.11
1.38
1.44
1.30
1.01
0.70
0.48
0.43
0.56
0.81
1.06
1.17
1.09
0.84
0.50
0.18
-0.02
-0.08
0.00
0.14
0.28
0.33
0.23
-0.05
-0.52
-1.09
-1.63
-1.98
-2.05
-1.81
-1.36
-0.81
-0.31
0.06
0.25
0.29
0.21
0.07
-0.08
-0.21
-0.30
-0.35
-0.34
-0.23
-0.01
0.30
0.61
0.79
0.75
0.48
0.07
-0.30
-0.45
-0.35
-0.06
0.28
0.50
0.56
0.51
0.45
0.47
0.56
0.69
0.77
0.77
0.68
0.55
0.39
0.20
-0.07
-0.46
-0.92
-1.37
-1.70
-1.84
-1.75
-1.47
-1.05
-0.56
-0.04
0.45
0.85
1.09
1.14
1.00
0.72
0.38
0.06
-0.18
-0.35
-0.44
-0.43
-0.30
-0.07
0.24
0.51
0.63
0.53
0.23
-0.14
-0.41
-0.46
-0.28
0.02
0.30
0.41
0.32
0.11
-0.09
-0.18
-0.09
0.10
0.30
0.40
0.36
0.19
-0.04
-0.24
-0.40
-0.51
-0.61
-0.74
-0.91
-1.05
-1.11
-1.05
-0.85
-0.54
-0.16
0.22
0.56
0.79
0.88
0.82
0.64
0.42
0.19
-0.01
-0.18
-0.36
-0.55
-0.70
-0.76
-0.65
-0.37
0.05
0.49
0.85
1.04
1.03
0.85
0.55
0.23
-0.05
-0.24
-0.31
-0.28
-0.23
-0.23
-0.31
-0.45
-0.61
-0.70
-0.67
-0.51
-0.29
-0.07
0.06
0.09
0.06
0.02
0.04
0.17
0.42
0.77
1.15
1.48
1.68
1.70
1.51
1.12
0.59
0.00
-0.52
-0.87
-0.97
-0.78
-0.39
0.07
0.46
0.63
0.55
0.26
-0.13
-0.49
-0.73
-0.78
-0.69
-0.50
-0.32
-0.25
-0.33
-0.53
-0.74
-0.82
-0.68
-0.34
0.08
0.38
0.44
0.26
-0.02
-0.24
-0.29
-0.20
-0.09
-0.09
-0.22
-0.41
-0.54
-0.53
-0.41
-0.28
-0.27
-0.39
-0.59
-0.75
-0.77
-0.61
-0.31
0.03
0.32
0.49
0.51
0.39
0.16
-0.09
-0.27
-0.30
-0.15
0.12
0.40
0.55
0.52
0.32
-0.01
-0.36
-0.69
-0.96
-1.14
-1.22
-1.16
-0.94
-0.59
-0.17
0.22
0.50
0.63
0.63
0.59
0.57
0.63
0.74
0.84
0.83
0.67
0.38
0.06
-0.19
-0.32
-0.35
-0.32
-0.26
-0.20
-0.11
-0.00
0.08
0.08
-0.02
-0.19
-0.36
-0.42
-0.35
-0.16
0.05
0.20
0.25
0.19
0.10
0.01
-0.07
-0.13
-0.18
-0.23
-0.26
-0.26
-0.23
-0.20
-0.20
-0.27
-0.40
-0.55
-0.68
-0.71
-0.62
-0.41
-0.10
0.22
0.50
0.65
0.66
0.57
0.46
0.39
0.42
0.53
0.64
0.70
0.66
0.51
0.35
0.23
0.24
0.40
0.71
1.12
1.54
1.89
2.06
1.99
1.68
1.23
0.75
0.38
0.22
0.28
0.48
0.72
0.87
0.84
0.63
0.30
-0.03
-0.28
-0.42
-0.50
-0.57
-0.67
-0.79
-0.85
-0.77
-0.53
-0.20
0.11
0.29
0.32
0.22
0.07
-0.06
-0.15
-0.18
-0.13
0.01
0.18
0.32
0.34
0.20
-0.04
-0.28
-0.40
-0.33
-0.14
0.04
0.08
-0.09
-0.39
-0.71
-0.90
-0.92
-0.82
-0.67
-0.54
-0.44
-0.32
-0.15
0.06
0.27
0.43
0.49
0.47
0.40
0.35
0.32
0.30
0.26
0.13
-0.08
-0.35
-0.61
-0.78
-0.77
-0.54
-0.10
0.45
0.99
1.39
1.52
1.38
1.00
0.50
0.03
-0.32
-0.48
-0.49
-0.42
-0.34
-0.34
-0.45
-0.62
-0.81
-0.94
-0.99
-0.99
-0.99
-1.04
-1.17
-1.32
-1.41
-1.34
-1.05
-0.56
0.02
0.57
0.94
1.09
1.00
0.74
0.43
0.19
0.09
0.14
0.30
0.47
0.55
0.50
0.30
0.00
-0.30
-0.50
-0.52
-0.37
-0.10
0.17
0.32
0.31
0.15
-0.09
-0.31
-0.46
-0.56
-0.63
-0.71
-0.76
-0.77
-0.71
-0.58
-0.44
-0.33
-0.28
-0.27
-0.28
-0.24
-0.15
-0.03
0.05
0.05
-0.02
-0.12
-0.14
-0.02
0.27
0.64
0.96
1.12
1.06
0.79
0.44
0.13
-0.03
0.00
0.19
0.43
0.63
0.70
0.66
0.56
0.47
0.47
0.55
0.65
0.68
0.58
0.36
0.09
-0.15
-0.32
-0.43
-0.57
-0.77
-1.00
-1.16
-1.16
-0.93
-0.51
0.03
0.56
0.99
1.25
1.28
1.05
0.60
0.02
-0.50
-0.79
-0.76
-0.46
-0.04
0.30
0.42
0.32
0.08
-0.18
-0.36
-0.47
-0.54
-0.60
-0.64
-0.64
-0.56
-0.41
-0.23
-0.07
0.05
0.14
0.23
0.34
0.43
0.43
0.29
-0.01
-0.38
-0.70
-0.89
-0.95
-0.95
-0.98
-1.08
-1.17
-1.15
-0.96
-0.62
-0.27
-0.05
-0.03
-0.15
-0.28
-0.29
-0.15
0.08
0.27
0.36
0.35
0.35
0.42
0.61
0.82
0.98
1.03
0.98
0.93
0.93
1.01
1.11
1.12
0.99
0.69
0.27
-0.17
-0.53
-0.76
-0.86
-0.88
-0.90
-0.96
-1.10
-1.27
-1.39
-1.38
-1.25
-1.03
-0.81
-0.66
-0.59
-0.57
-0.53
-0.41
-0.17
0.12
0.39
0.55
0.58
0.52
0.46
0.45
0.54
0.69
0.84
0.92
0.92
0.83
0.69
0.54
0.38
0.26
0.18
0.16
0.20
0.28
0.37
0.46
0.55
0.62
0.65
0.62
0.52
0.38
0.26
0.20
0.21
0.26
0.32
0.35
0.35
0.32
0.26
0.19
0.07
-0.07
-0.20
-0.27
-0.26
-0.21
-0.18
-0.25
-0.45
-0.71
-0.94
-1.02
-0.87
-0.53
-0.08
0.36
0.68
0.87
0.94
0.97
0.98
0.97
0.88
0.71
0.49
0.28
0.15
0.10
0.08
-0.00
-0.18
-0.42
-0.60
-0.61
-0.39
0.00
0.42
0.70
0.75
0.61
0.41
0.29
0.35
0.60
0.94
1.22
1.32
1.18
0.84
0.40
-0.01
-0.26
-0.31
-0.18
0.03
0.19
0.19
-0.00
-0.32
-0.66
-0.92
-1.07
-1.13
-1.17
-1.20
-1.26
-1.29
-1.26
-1.13
-0.89
-0.56
-0.18
0.21
0.57
0.89
1.15
1.32
1.39
1.34
1.15
0.79
0.30
-0.26
-0.79
-1.18
-1.35
-1.27
-0.98
-0.60
-0.27
-0.11
-0.16
-0.38
-0.59
-0.65
-0.47
-0.09
0.34
0.65
0.74
0.60
0.33
0.03
-0.19
-0.29
-0.31
-0.28
-0.25
-0.27
-0.37
-0.54
-0.71
-0.79
-0.70
-0.42
0.01
0.44
0.78
0.93
0.93
0.84
0.71
0.60
0.48
0.33
0.15
-0.04
-0.18
-0.25
-0.25
-0.23
-0.27
-0.39
-0.58
-0.77
-0.86
-0.81
-0.65
-0.43
-0.24
-0.11
-0.01
0.11
0.30
0.53
0.70
0.75
0.61
0.34
0.04
-0.19
-0.27
-0.20
-0.02
0.17
0.29
0.31
0.24
0.10
-0.06
-0.20
-0.29
-0.30
-0.24
-0.10
0.06
0.17
0.17
0.02
-0.27
-0.60
-0.85
-0.96
-0.92
-0.81
-0.67
-0.55
-0.42
-0.22
0.05
0.36
0.63
0.79
0.83
0.82
0.83
0.89
0.98
1.03
0.95
0.74
0.47
0.25
0.14
0.17
0.28
0.40
0.49
0.51
0.47
0.38
0.24
0.09
-0.06
-0.15
-0.17
-0.13
-0.10
-0.13
-0.26
-0.45
-0.64
-0.75
-0.75
-0.64
-0.48
-0.31
-0.16
-0.02
0.09
0.14
0.09
-0.08
-0.34
-0.59
-0.73
-0.70
-0.50
-0.23
0.01
0.12
0.05
-0.17
-0.44
-0.68
-0.76
-0.65
-0.36
0.02
0.37
0.59
0.62
0.47
0.26
0.05
-0.10
-0.16
-0.16
-0.10
0.00
0.14
0.27
0.29
0.16
-0.10
-0.41
-0.61
-0.60
-0.38
-0.04
0.27
0.41
0.33
0.08
-0.23
-0.49
-0.62
-0.58
-0.37
-0.03
0.37
0.75
1.02
1.12
1.02
0.74
0.34
-0.11
-0.52
-0.81
-0.91
-0.86
-0.70
-0.52
-0.37
-0.25
-0.14
-0.02
0.11
0.22
0.26
0.24
0.21
0.24
0.34
0.49
0.59
0.60
0.49
0.32
0.15
0.03
-0.04
-0.10
-0.21
-0.38
-0.60
-0.81
-0.94
-0.96
-0.85
-0.66
-0.42
-0.19
-0.00
0.16
0.32
0.50
0.72
0.95
1.15
1.26
1.25
1.11
0.86
0.57
0.33
0.24
0.31
0.48
0.65
0.69
0.55
0.29
-0.00
-0.20
-0.24
-0.17
-0.07
-0.03
-0.09
-0.23
-0.39
-0.53
-0.62
-0.66
-0.65
-0.59
-0.50
-0.40
-0.33
-0.29
-0.25
-0.19
-0.06
0.17
0.44
0.70
0.90
1.00
1.01
0.95
0.86
0.72
0.51
0.22
-0.12
-0.49
-0.81
-1.05
-1.17
-1.16
-0.99
-0.68
-0.26
0.18
0.55
0.76
0.77
0.63
0.42
0.24
0.11
0.01
-0.11
-0.27
-0.43
-0.51
-0.42
-0.16
0.19
0.49
0.59
0.41
-0.01
-0.50
-0.85
-0.93
-0.74
-0.41
-0.13
-0.02
-0.12
-0.32
-0.45
-0.40
-0.17
0.14
0.40
0.54
0.56
0.51
0.45
0.38
0.28
0.14
-0.02
-0.12
-0.11
0.03
0.24
0.45
0.56
0.53
0.39
0.21
0.09
0.08
0.20
0.40
0.62
0.76
0.77
0.60
0.30
-0.10
-0.49
-0.82
-1.03
-1.14
-1.15
-1.08
-0.94
-0.70
-0.40
-0.07
0.18
0.28
0.18
-0.05
-0.26
-0.32
-0.16
0.15
0.45
0.58
0.44
0.07
-0.42
-0.84
-1.08
-1.12
-1.01
-0.85
-0.69
-0.54
-0.37
-0.13
0.18
0.52
0.84
1.08
1.18
1.10
0.86
0.50
0.07
-0.33
-0.62
-0.74
-0.68
-0.46
-0.13
0.22
0.51
0.66
0.68
0.57
0.39
0.19
0.03
-0.11
-0.24
-0.37
-0.49
-0.55
-0.53
-0.42
-0.26
-0.08
0.07
0.21
0.33
0.40
0.43
0.39
0.30
0.20
0.13
0.11
0.15
0.20
0.20
0.14
0.02
-0.08
-0.09
0.02
0.26
0.57
0.88
1.14
1.32
1.39
1.34
1.16
0.84
0.41
-0.05
-0.48
-0.79
-0.98
-1.05
-1.07
-1.08
-1.09
-1.09
-1.10
-1.11
-1.15
-1.21
-1.22
-1.13
-0.89
-0.52
-0.10
0.23
0.40
0.40
0.27
0.14
0.09
0.15
0.28
0.44
0.60
0.74
0.88
1.00
1.05
0.97
0.77
0.47
0.15
-0.11
-0.29
-0.40
-0.48
-0.57
-0.68
-0.81
-0.97
-1.14
-1.31
-1.39
-1.31
-1.03
-0.60
-0.15
0.18
0.31
0.25
0.11
-0.01
-0.05
-0.01
0.06
0.13
0.20
0.30
0.45
0.61
0.70
0.67
0.49
0.21
-0.06
-0.23
-0.25
-0.17
-0.06
0.00
-0.01
-0.08
-0.13
-0.11
-0.02
0.10
0.20
0.24
0.22
0.16
0.09
0.02
-0.02
-0.02
0.02
0.11
0.23
0.38
0.55
0.71
0.81
0.81
0.67
0.40
0.07
-0.23
-0.42
-0.46
-0.43
-0.39
-0.43
-0.54
-0.67
-0.76
-0.78
-0.75
-0.68
-0.57
-0.40
-0.15
0.16
0.46
0.65
0.70
0.63
0.52
0.44
0.42
0.43
0.44
0.42
0.37
0.33
0.32
0.34
0.35
0.36
0.34
0.31
0.26
0.21
0.14
0.06
-0.05
-0.18
-0.33
-0.48
-0.60
-0.61
-0.47
-0.18
0.20
0.56
0.82
0.92
0.86
0.68
0.44
0.22
0.06
-0.04
-0.07
-0.06
-0.06
-0.06
-0.05
0.02
0.17
0.37
0.54
0.59
0.48
0.23
-0.10
-0.41
-0.63
-0.76
-0.82
-0.83
-0.80
-0.71
-0.53
-0.27
0.02
0.24
0.35
0.35
0.30
0.28
0.34
0.48
0.63
0.75
0.80
0.77
0.69
0.56
0.39
0.16
-0.12
-0.45
-0.79
-1.10
-1.35
-1.51
-1.56
-1.50
-1.36
-1.16
-0.91
-0.60
-0.19
0.31
0.85
1.31
1.56
1.54
1.29
0.97
0.73
0.69
0.82
0.99
1.06
0.97
0.70
0.33
-0.07
-0.46
-0.80
-1.06
-1.18
-1.08
-0.75
-0.24
0.32
0.76
0.94
0.79
0.34
-0.32
-1.02
-1.63
-2.03
-2.14
-2.01
-1.72
-1.39
-1.11
-0.92
-0.82
-0.73
-0.59
-0.38
-0.10
0.18
0.42
0.56
0.63
0.64
0.61
0.54
0.43
0.27
0.10
-0.02
-0.01
0.13
0.39
0.66
0.85
0.91
0.82
0.64
0.41
0.18
-0.02
-0.19
-0.32
-0.43
-0.48
-0.47
-0.36
-0.14
0.16
0.46
0.65
0.64
0.42
0.07
-0.22
-0.31
-0.13
0.24
0.64
0.89
0.91
0.73
0.45
0.16
-0.06
-0.22
-0.35
-0.47
-0.55
-0.56
-0.44
-0.15
0.29
0.80
1.28
1.61
1.72
1.59
1.25
0.77
0.25
-0.22
-0.57
-0.77
-0.85
-0.83
-0.78
-0.73
-0.71
-0.66
-0.53
-0.31
-0.00
0.31
0.55
0.67
0.66
0.55
0.36
0.11
-0.14
-0.37
-0.54
-0.63
-0.63
-0.57
-0.50
-0.43
-0.37
-0.30
-0.24
-0.20
-0.25
-0.39
-0.58
-0.74
-0.78
-0.65
-0.38
-0.05
0.25
0.44
0.48
0.35
0.09
-0.22
-0.48
-0.59
-0.52
-0.29
-0.00
0.22
0.33
0.31
0.22
0.12
0.04
-0.03
-0.08
-0.11
-0.06
0.11
0.41
0.77
1.11
1.31
1.29
1.02
0.52
-0.09
-0.66
-1.05
-1.17
-1.04
-0.77
-0.50
-0.35
-0.34
-0.40
-0.40
-0.28
-0.06
0.16
0.26
0.23
0.12
0.06
0.11
0.25
0.38
0.40
0.25
0.01
-0.22
-0.35
-0.40
-0.40
-0.41
-0.44
-0.41
-0.29
-0.04
0.29
0.63
0.87
0.98
0.94
0.80
0.62
0.44
0.28
0.12
-0.05
-0.26
-0.50
-0.75
-0.96
-1.09
-1.18
-1.23
-1.28
-1.29
-1.25
-1.14
-1.02
-0.95
-0.95
-0.99
-0.95
-0.75
-0.37
0.11
0.58
0.93
1.16
1.33
1.47
1.56
1.56
1.42
1.19
0.96
0.81
0.77
0.77
0.72
0.56
0.36
0.21
0.18
0.29
0.41
0.45
0.35
0.17
0.04
0.07
0.26
0.53
0.74
0.76
0.59
0.30
0.00
-0.24
-0.39
-0.51
-0.61
-0.70
-0.73
-0.66
-0.49
-0.25
-0.05
0.06
0.03
-0.10
-0.25
-0.36
-0.37
-0.24
-0.02
0.24
0.49
0.65
0.69
0.61
0.46
0.30
0.17
0.10
0.07
0.06
0.07
0.10
0.16
0.25
0.32
0.33
0.27
0.17
0.06
-0.04
-0.13
-0.21
-0.27
-0.26
-0.15
0.06
0.31
0.47
0.45
0.24
-0.06
-0.32
-0.42
-0.34
-0.19
-0.09
-0.16
-0.42
-0.78
-1.11
-1.24
-1.12
-0.76
-0.30
0.09
0.26
0.15
-0.17
-0.55
-0.80
-0.81
-0.57
-0.19
0.19
0.41
0.43
0.31
0.14
0.01
-0.04
-0.05
-0.05
-0.08
-0.07
0.03
0.25
0.57
0.87
1.02
0.94
0.65
0.28
-0.03
-0.21
-0.25
-0.24
-0.25
-0.32
-0.43
-0.55
-0.67
-0.78
-0.88
-0.97
-1.00
-0.93
-0.72
-0.42
-0.09
0.19
0.38
0.49
0.54
0.61
0.72
0.85
0.98
1.04
0.98
0.78
0.48
0.12
-0.20
-0.44
-0.55
-0.51
-0.31
0.01
0.40
0.76
0.97
0.97
0.76
0.44
0.10
-0.19
-0.44
-0.67
-0.90
-1.08
-1.10
-0.90
-0.49
-0.01
0.37
0.53
0.47
0.28
0.06
-0.11
-0.28
-0.50
-0.80
-1.11
-1.30
-1.24
-0.92
-0.42
0.08
0.43
0.57
0.59
0.61
0.73
0.96
1.18
1.23
1.03
0.62
0.18
-0.10
-0.10
0.12
0.42
0.60
0.57
0.35
0.05
-0.22
-0.40
-0.51
-0.59
-0.61
-0.53
-0.28
0.14
0.62
0.99
1.11
0.91
0.48
-0.03
-0.45
-0.67
-0.72
-0.65
-0.56
-0.52
-0.53
-0.54
-0.51
-0.42
-0.33
-0.27
-0.29
-0.36
-0.40
-0.31
-0.03
0.42
0.94
1.40
1.66
1.68
1.46
1.07
0.58
0.11
-0.28
-0.53
-0.64
-0.65
-0.58
-0.49
-0.39
-0.28
-0.17
-0.06
0.01
0.01
-0.06
-0.17
-0.24
-0.25
-0.20
-0.16
-0.18
-0.27
-0.40
-0.52
-0.59
-0.65
-0.74
-0.89
-1.09
-1.28
-1.35
-1.24
-0.97
-0.61
-0.25
0.04
0.26
0.42
0.60
0.88
1.26
1.72
2.12
2.33
2.24
1.83
1.21
0.54
-0.01
-0.35
-0.49
-0.48
-0.42
-0.36
-0.31
-0.25
-0.18
-0.14
-0.14
-0.20
-0.30
-0.38
-0.37
-0.24
-0.01
0.25
0.49
0.63
0.68
0.65
0.55
0.38
0.13
-0.21
-0.61
-1.03
-1.42
-1.74
-1.94
-1.99
-1.85
-1.49
-0.94
-0.28
0.35
0.84
1.14
1.25
1.20
1.05
0.85
0.63
0.46
0.41
0.52
0.72
0.91
0.94
0.75
0.38
0.02
-0.16
-0.06
0.26
0.66
0.95
1.04
0.97
0.83
0.71
0.63
0.55
0.38
0.10
-0.24
-0.52
-0.69
-0.74
-0.80
-0.99
-1.38
-1.91
-2.39
-2.65
-2.55
-2.12
-1.48
-0.82
-0.28
0.11
0.35
0.50
0.59
0.62
0.60
0.56
0.60
0.78
1.11
1.50
1.80
1.85
1.58
1.03
0.36
-0.27
-0.73
-0.91
-0.83
-0.52
-0.07
0.41
0.82
1.08
1.16
1.07
0.87
0.64
0.40
0.18
-0.00
-0.16
-0.27
-0.34
-0.38
-0.44
-0.54
-0.71
-0.90
-1.07
-1.14
-1.07
-0.88
-0.63
-0.39
-0.21
-0.12
-0.08
-0.06
-0.04
0.01
0.07
0.16
0.28
0.41
0.54
0.62
0.61
0.49
0.31
0.17
0.14
0.22
0.35
0.46
0.46
0.37
0.25
0.18
0.19
0.26
0.33
0.34
0.27
0.13
-0.06
-0.26
-0.41
-0.46
-0.38
-0.19
0.02
0.09
-0.09
-0.57
-1.22
-1.85
-2.25
-2.31
-2.04
-1.59
-1.10
-0.70
-0.41
-0.22
-0.06
0.09
0.25
0.43
0.62
0.79
0.94
1.05
1.13
1.16
1.14
1.06
0.93
0.76
0.59
0.46
0.40
0.42
0.50
0.61
0.69
0.68
0.54
0.28
-0.03
-0.28
-0.36
-0.25
-0.01
0.23
0.33
0.21
-0.15
-0.64
-1.12
-1.46
-1.58
-1.48
-1.23
-0.94
-0.74
-0.71
-0.88
-1.18
-1.48
-1.63
-1.55
-1.23
-0.75
-0.25
0.16
0.42
0.55
0.63
0.75
0.96
1.20
1.37
1.35
1.09
0.68
0.25
-0.05
-0.14
-0.05
0.17
0.46
0.77
1.06
1.28
1.35
1.23
0.96
0.61
0.29
0.08
-0.06
-0.15
-0.23
-0.29
-0.28
-0.18
0.01
0.23
0.39
0.42
0.29
0.03
-0.28
-0.53
-0.68
-0.71
-0.67
-0.63
-0.63
-0.65
-0.64
-0.53
-0.34
-0.10
0.07
0.14
0.14
0.13
0.18
0.29
0.36
0.31
0.11
-0.19
-0.46
-0.54
-0.38
-0.01
0.44
0.83
1.03
1.02
0.86
0.64
0.44
0.29
0.19
0.11
0.04
-0.01
-0.04
-0.07
-0.13
-0.22
-0.33
-0.39
-0.35
-0.24
-0.11
-0.06
-0.16
-0.40
-0.70
-0.95
-1.11
-1.18
-1.22
-1.20
-1.10
-0.86
-0.44
0.10
0.65
1.06
1.23
1.14
0.92
0.71
0.65
0.78
1.02
1.23
1.28
1.09
0.70
0.19
-0.27
-0.61
-0.76
-0.75
-0.63
-0.48
-0.34
-0.26
-0.23
-0.21
-0.19
-0.16
-0.13
-0.11
-0.09
-0.05
0.04
0.16
0.29
0.37
0.37
0.27
0.06
-0.22
-0.53
-0.82
-1.03
-1.11
-1.06
-0.89
-0.66
-0.41
-0.17
0.06
0.29
0.51
0.74
0.94
1.10
1.18
1.17
1.05
0.81
0.48
0.13
-0.19
-0.39
-0.46
-0.40
-0.27
-0.15
-0.09
-0.10
-0.18
-0.28
-0.33
-0.31
-0.24
-0.17
-0.22
-0.44
-0.86
-1.41
-1.97
-2.42
-2.69
-2.81
-2.81
-2.76
-2.68
-2.57
-2.43
-2.27
-2.19
-2.27
-2.56
-3.02
-3.56
-4.05
-4.39
-4.55
-4.53
-4.42
-4.30
-4.22
-4.18
-4.13
-3.97
-3.61
-2.96
-2.01
-0.76
0.74
2.39
4.11
5.79
7.29
8.50
9.31
9.65
9.53
9.00
8.18
7.17
6.06
4.92
3.82
2.80
1.91
1.18
0.65
0.32
0.18
0.17
0.25
0.34
0.35
0.22
-0.05
-0.37
-0.61
-0.67
-0.48
-0.14
0.20
0.37
0.28
-0.01
-0.37
-0.66
-0.80
-0.76
-0.61
-0.42
-0.24
-0.07
0.13
0.36
0.61
0.81
0.90
0.83
0.64
0.38
0.14
0.02
0.02
0.10
0.16
0.18
0.17
0.25
0.48
0.85
1.22
1.41
1.31
0.92
0.41
-0.06
-0.36
-0.48
-0.49
-0.47
-0.46
-0.44
-0.41
-0.39
-0.43
-0.57
-0.74
-0.86
-0.83
-0.66
-0.44
-0.29
-0.31
-0.50
-0.77
-0.99
-1.09
-1.04
-0.90
-0.72
-0.52
-0.30
-0.03
0.32
0.72
1.10
1.37
1.42
1.24
0.89
0.54
0.32
0.32
0.49
0.69
0.75
0.59
0.24
-0.15
-0.44
-0.56
-0.56
-0.56
-0.65
-0.82
-0.99
-1.06
-0.97
-0.77
-0.56
-0.40
-0.32
-0.27
-0.18
-0.04
0.06
0.06
-0.09
-0.35
-0.58
-0.69
-0.61
-0.40
-0.19
-0.06
-0.02
-0.00
0.09
0.31
0.59
0.84
0.93
0.82
0.53
0.18
-0.10
-0.21
-0.13
0.14
0.51
0.90
1.21
1.37
1.34
1.13
0.81
0.47
0.21
0.07
0.02
0.01
-0.02
-0.11
-0.24
-0.34
-0.36
-0.31
-0.21
-0.14
-0.12
-0.17
-0.28
-0.43
-0.62
-0.84
-1.08
-1.33
-1.53
-1.66
-1.68
-1.60
-1.44
-1.21
-0.92
-0.56
-0.14
0.35
0.84
1.26
1.54
1.61
1.45
1.13
0.76
0.46
0.31
0.33
0.44
0.55
0.56
0.44
0.21
-0.05
-0.26
-0.35
-0.30
-0.14
0.09
0.35
0.55
0.64
0.57
0.33
-0.04
-0.44
-0.78
-0.98
-0.97
-0.79
-0.50
-0.18
0.11
0.29
0.34
0.25
0.08
-0.12
-0.28
-0.38
-0.42
-0.43
-0.42
-0.36
-0.21
0.08
0.47
0.89
1.23
1.37
1.28
0.98
0.58
0.21
-0.04
-0.11
-0.02
0.17
0.36
0.50
0.55
0.51
0.44
0.36
0.30
0.25
0.23
0.23
0.23
0.22
0.18
0.11
0.03
-0.01
0.02
0.11
0.23
0.32
0.32
0.26
0.16
0.10
0.07
0.02
-0.13
-0.46
-0.92
-1.40
-1.73
-1.76
-1.46
-0.90
-0.25
0.30
0.63
0.70
0.57
0.34
0.14
0.02
0.00
0.06
0.13
0.17
0.15
0.08
0.00
-0.01
0.08
0.25
0.45
0.60
0.61
0.47
0.21
-0.07
-0.26
-0.29
-0.17
0.04
0.21
0.22
0.02
-0.39
-0.89
-1.33
-1.58
-1.59
-1.38
-1.05
-0.71
-0.42
-0.21
-0.06
0.07
0.20
0.32
0.42
0.47
0.46
0.41
0.37
0.38
0.44
0.54
0.63
0.67
0.67
0.64
0.62
0.59
0.51
0.34
0.10
-0.16
-0.35
-0.41
-0.35
-0.27
-0.26
-0.35
-0.49
-0.61
-0.62
-0.53
-0.39
-0.29
-0.25
-0.23
-0.17
-0.02
0.23
0.52
0.75
0.87
0.82
0.62
0.31
-0.05
-0.39
-0.67
-0.84
-0.91
-0.90
-0.87
-0.84
-0.81
-0.72
-0.55
-0.31
-0.07
0.08
0.09
-0.01
-0.12
-0.10
0.11
0.46
0.82
1.04
1.04
0.85
0.59
0.37
0.25
0.22
0.21
0.15
0.07
-0.00
0.02
0.16
0.36
0.51
0.49
0.29
-0.00
-0.24
-0.27
-0.07
0.25
0.51
0.54
0.31
-0.11
-0.54
-0.83
-0.88
-0.74
-0.49
-0.26
-0.09
-0.02
-0.00
-0.00
0.01
0.07
0.16
0.27
0.36
0.41
0.43
0.43
0.42
0.39
0.33
0.22
0.07
-0.10
-0.27
-0.41
-0.50
-0.52
-0.48
-0.40
-0.29
-0.15
0.00
0.13
0.20
0.16
-0.04
-0.38
-0.77
-1.09
-1.19
-1.01
-0.60
-0.14
0.18
0.22
-0.00
-0.35
-0.64
-0.75
-0.65
-0.40
-0.07
0.31
0.72
1.15
1.52
1.72
1.61
1.18
0.52
-0.17
-0.66
-0.82
-0.62
-0.18
0.29
0.62
0.68
0.47
0.07
-0.37
-0.75
-0.97
-1.00
-0.86
-0.58
-0.24
0.09
0.34
0.45
0.37
0.14
-0.20
-0.57
-0.91
-1.15
-1.25
-1.18
-0.89
-0.38
0.30
1.03
1.64
1.99
1.98
1.63
1.06
0.43
-0.11
-0.45
-0.55
-0.43
-0.15
0.18
0.46
0.59
0.51
0.23
-0.20
-0.67
-1.04
-1.18
-1.07
-0.76
-0.39
-0.11
-0.01
-0.09
-0.28
-0.47
-0.56
-0.55
-0.47
-0.41
-0.43
-0.53
-0.65
-0.73
-0.68
-0.51
-0.25
0.03
0.26
0.38
0.37
0.26
0.11
-0.03
-0.11
-0.12
-0.09
-0.05
-0.02
-0.01
0.01
0.06
0.17
0.30
0.43
0.49
0.47
0.37
0.26
0.20
0.20
0.27
0.37
0.45
0.46
0.39
0.24
0.04
-0.18
-0.37
-0.51
-0.62
-0.69
-0.73
-0.73
-0.68
-0.58
-0.45
-0.36
-0.33
-0.37
-0.42
-0.40
-0.24
0.05
0.41
0.73
0.95
1.03
1.02
0.96
0.89
0.85
0.83
0.82
0.78
0.67
0.46
0.16
-0.16
-0.38
-0.41
-0.25
0.01
0.21
0.22
0.02
-0.25
-0.44
-0.46
-0.35
-0.22
-0.22
-0.37
-0.59
-0.76
-0.80
-0.70
-0.55
-0.40
-0.26
-0.09
0.15
0.47
0.81
1.08
1.23
1.26
1.19
1.08
0.92
0.71
0.46
0.23
0.11
0.20
0.47
0.81
0.99
0.85
0.35
-0.36
-1.02
-1.39
-1.37
-1.03
-0.55
-0.11
0.17
0.30
0.34
0.35
0.31
0.20
-0.01
-0.27
-0.52
-0.69
-0.74
-0.68
-0.54
-0.36
-0.14
0.12
0.39
0.63
0.76
0.74
0.58
0.32
0.04
-0.18
-0.33
-0.37
-0.34
-0.25
-0.09
0.10
0.29
0.44
0.55
0.58
0.51
0.31
-0.02
-0.44
-0.86
-1.13
-1.17
-1.00
-0.75
-0.58
-0.57
-0.69
-0.82
-0.83
-0.67
-0.40
-0.13
0.05
0.15
0.23
0.37
0.58
0.82
0.99
1.01
0.82
0.46
-0.01
-0.43
-0.67
-0.63
-0.31
0.18
0.65
0.88
0.79
0.40
-0.10
-0.51
-0.65
-0.52
-0.17
0.22
0.56
0.79
0.89
0.88
0.73
0.45
0.04
-0.42
-0.83
-1.10
-1.19
-1.13
-1.02
-0.93
-0.93
-1.01
-1.14
-1.22
-1.20
-1.02
-0.68
-0.24
0.22
0.60
0.84
0.91
0.87
0.76
0.64
0.50
0.33
0.12
-0.10
-0.28
-0.39
-0.39
-0.28
-0.12
0.05
0.17
0.22
0.23
0.25
0.34
0.52
0.76
0.96
1.02
0.84
0.44
-0.05
-0.48
-0.70
-0.68
-0.47
-0.20
0.02
0.17
0.26
0.38
0.54
0.71
0.78
0.64
0.31
-0.15
-0.59
-0.86
-0.92
-0.80
-0.59
-0.38
-0.23
-0.11
-0.01
0.09
0.18
0.23
0.23
0.20
0.16
0.16
0.20
0.29
0.42
0.57
0.70
0.76
0.73
0.61
0.41
0.18
-0.06
-0.28
-0.49
-0.68
-0.82
-0.92
-0.99
-1.05
-1.09
-1.09
-0.99
-0.76
-0.45
-0.14
0.04
0.07
0.01
-0.01
0.11
0.35
0.57
0.60
0.36
-0.07
-0.52
-0.79
-0.82
-0.66
-0.45
-0.34
-0.38
-0.52
-0.65
-0.66
-0.50
-0.20
0.14
0.41
0.54
0.54
0.44
0.34
0.27
0.26
0.26
0.24
0.17
0.04
-0.10
-0.20
-0.22
-0.16
-0.09
-0.09
-0.24
-0.57
-0.95
-1.23
-1.25
-0.95
-0.46
-0.00
0.19
0.02
-0.44
-0.97
-1.34
-1.45
-1.30
-1.02
-0.67
-0.31
0.10
0.54
0.97
1.29
1.38
1.21
0.84
0.38
0.02
-0.13
-0.02
0.28
0.63
0.85
0.88
0.70
0.42
0.13
-0.06
-0.17
-0.23
-0.29
-0.38
-0.49
-0.58
-0.61
-0.57
-0.44
-0.25
-0.00
0.25
0.47
0.63
0.72
0.72
0.62
0.37
-0.02
-0.51
-0.99
-1.32
-1.44
-1.36
-1.20
-1.09
-1.07
-1.08
-0.99
-0.69
-0.20
0.36
0.82
1.05
1.02
0.81
0.55
0.34
0.24
0.27
0.41
0.61
0.80
0.91
0.88
0.71
0.45
0.21
0.11
0.19
0.43
0.72
0.96
1.06
0.99
0.76
0.43
0.04
-0.33
-0.59
-0.69
-0.58
-0.28
0.11
0.47
0.66
0.61
0.33
-0.09
-0.50
-0.76
-0.81
-0.62
-0.26
0.19
0.65
1.02
1.25
1.28
1.07
0.66
0.14
-0.30
-0.50
-0.36
0.04
0.51
0.81
0.77
0.41
-0.16
-0.70
-1.04
-1.10
-0.89
-0.51
-0.06
0.38
0.73
0.96
1.01
0.86
0.51
0.03
-0.45
-0.75
-0.74
-0.41
0.10
0.58
0.79
0.64
0.20
-0.30
-0.68
-0.85
-0.86
-0.83
-0.85
-0.86
-0.74
-0.35
0.31
1.07
1.66
1.86
1.57
0.86
-0.02
-0.81
-1.31
-1.45
-1.27
-0.88
-0.40
0.06
0.46
0.75
0.92
0.92
0.76
0.44
0.04
-0.31
-0.49
-0.45
-0.22
0.07
0.26
0.23
-0.03
-0.43
-0.81
-1.07
-1.15
-1.07
-0.89
-0.66
-0.42
-0.19
-0.00
0.12
0.15
0.09
0.00
-0.05
-0.02
0.13
0.41
0.73
1.03
1.20
1.18
0.99
0.71
0.46
0.33
0.32
0.37
0.39
0.31
0.17
0.05
0.03
0.13
0.30
0.42
0.42
0.28
0.07
-0.11
-0.21
-0.22
-0.21
-0.22
-0.30
-0.42
-0.53
-0.60
-0.58
-0.49
-0.36
-0.25
-0.25
-0.43
-0.79
-1.23
-1.56
-1.63
-1.36
-0.85
-0.25
0.24
0.54
0.69
0.82
0.98
1.13
1.16
0.94
0.50
-0.03
-0.48
-0.70
-0.68
-0.51
-0.31
-0.14
0.01
0.20
0.46
0.76
0.99
1.08
0.97
0.70
0.37
0.04
-0.24
-0.47
-0.64
-0.74
-0.73
-0.58
-0.32
-0.03
0.23
0.37
0.37
0.26
0.07
-0.18
-0.46
-0.73
-0.95
-1.09
-1.10
-0.93
-0.58
-0.08
0.48
0.98
1.27
1.29
1.06
0.72
0.44
0.30
0.29
0.30
0.23
0.03
-0.22
-0.41
-0.41
-0.17
0.24
0.70
1.08
1.25
1.16
0.81
0.30
-0.25
-0.68
-0.86
-0.76
-0.43
0.00
0.39
0.61
0.61
0.40
0.03
-0.39
-0.76
-1.01
-1.11
-1.10
-1.05
-1.01
-0.99
-0.93
-0.75
-0.40
0.10
0.66
1.12
1.38
1.40
1.22
0.95
0.71
0.54
0.45
0.38
0.29
0.18
0.09
0.10
0.22
0.41
0.56
0.59
0.49
0.33
0.20
0.20
0.32
0.48
0.56
0.49
0.27
-0.03
-0.32
-0.54
-0.67
-0.77
-0.86
-0.99
-1.15
-1.30
-1.38
-1.34
-1.17
-0.86
-0.45
0.01
0.47
0.86
1.14
1.27
1.24
1.06
0.81
0.55
0.39
0.37
0.52
0.77
1.02
1.16
1.12
0.88
0.50
0.09
-0.27
-0.51
-0.63
-0.65
-0.60
-0.50
-0.40
-0.36
-0.42
-0.61
-0.89
-1.17
-1.32
-1.24
-0.96
-0.56
-0.20
-0.01
-0.03
-0.24
-0.53
-0.82
-1.02
-1.10
-1.01
-0.77
-0.43
-0.06
0.25
0.42
0.47
0.45
0.46
0.55
0.71
0.87
0.94
0.84
0.59
0.25
-0.06
-0.28
-0.35
-0.30
-0.16
0.02
0.20
0.37
0.51
0.59
0.57
0.39
0.04
-0.43
-0.88
-1.13
-1.05
-0.66
-0.10
0.37
0.54
0.37
-0.05
-0.49
-0.75
-0.79
-0.67
-0.49
-0.34
-0.19
0.03
0.35
0.76
1.17
1.47
1.61
1.58
1.42
1.19
0.90
0.63
0.39
0.21
0.11
0.05
-0.02
-0.11
-0.21
-0.28
-0.26
-0.14
0.02
0.14
0.16
0.05
-0.12
-0.27
-0.33
-0.28
-0.19
-0.14
-0.22
-0.45
-0.80
-1.14
-1.39
-1.44
-1.29
-0.97
-0.57
-0.16
0.17
0.41
0.53
0.53
0.42
0.25
0.07
-0.05
-0.04
0.11
0.32
0.48
0.48
0.32
0.08
-0.14
-0.21
-0.13
0.03
0.17
0.24
0.22
0.17
0.17
0.22
0.29
0.34
0.32
0.22
0.08
-0.04
-0.14
-0.24
-0.39
-0.61
-0.92
-1.25
-1.54
-1.69
-1.62
-1.34
-0.88
-0.33
0.19
0.57
0.76
0.74
0.58
0.36
0.17
0.06
0.07
0.18
0.33
0.46
0.54
0.57
0.56
0.57
0.63
0.74
0.85
0.90
0.86
0.71
0.52
0.33
0.21
0.18
0.25
0.35
0.41
0.35
0.14
-0.18
-0.55
-0.84
-0.99
-0.99
-0.91
-0.82
-0.78
-0.82
-0.90
-1.00
-1.09
-1.19
-1.25
-1.24
-1.11
-0.82
-0.40
0.04
0.39
0.56
0.56
0.49
0.48
0.62
0.92
1.32
1.70
1.94
1.99
1.86
1.57
1.18
0.76
0.39
0.16
0.10
0.22
0.42
0.54
0.45
0.11
-0.38
-0.84
-1.06
-0.99
-0.68
-0.31
-0.06
0.01
-0.06
-0.15
-0.15
-0.04
0.10
0.19
0.15
0.03
-0.08
-0.08
0.05
0.28
0.52
0.73
0.89
1.03
1.14
1.17
1.05
0.75
0.31
-0.16
-0.53
-0.73
-0.75
-0.66
-0.51
-0.35
-0.18
0.02
0.24
0.44
0.55
0.51
0.32
0.04
-0.23
-0.38
-0.38
-0.28
-0.16
-0.11
-0.16
-0.27
-0.38
-0.41
-0.34
-0.19
-0.02
0.11
0.17
0.17
0.09
-0.03
-0.20
-0.42
-0.64
-0.84
-0.92
-0.81
-0.48
-0.01
0.46
0.80
0.87
0.70
0.36
0.00
-0.25
-0.33
-0.27
-0.13
0.02
0.17
0.31
0.43
0.50
0.47
0.31
0.02
-0.36
-0.74
-1.04
-1.15
-1.06
-0.81
-0.53
-0.35
-0.35
-0.51
-0.73
-0.86
-0.80
-0.57
-0.27
-0.04
0.03
-0.05
-0.20
-0.34
-0.41
-0.42
-0.39
-0.34
-0.20
0.06
0.46
0.95
1.37
1.58
1.49
1.12
0.65
0.28
0.16
0.29
0.53
0.69
0.65
0.38
0.00
-0.35
-0.62
-0.80
-0.93
-1.05
-1.14
-1.15
-1.05
-0.85
-0.60
-0.39
-0.24
-0.17
-0.16
-0.20
-0.28
-0.41
-0.59
-0.78
-0.98
-1.15
-1.27
-1.32
-1.26
-1.10
-0.85
-0.56
-0.26
0.04
0.35
0.66
0.96
1.19
1.31
1.27
1.11
0.86
0.63
0.47
0.40
0.40
0.42
0.42
0.39
0.34
0.32
0.35
0.41
0.45
0.38
0.17
-0.15
-0.51
-0.75
-0.78
-0.62
-0.34
-0.09
0.03
-0.02
-0.21
-0.42
-0.56
-0.54
-0.35
-0.05
0.30
0.62
0.88
1.02
1.04
0.92
0.70
0.42
0.17
0.02
-0.01
0.08
0.22
0.34
0.40
0.35
0.20
-0.03
-0.31
-0.59
-0.77
-0.78
-0.54
-0.10
0.43
0.89
1.15
1.16
0.99
0.72
0.42
0.11
-0.25
-0.63
-0.97
-1.15
-1.11
-0.87
-0.56
-0.35
-0.31
-0.42
-0.58
-0.64
-0.58
-0.44
-0.32
-0.26
-0.23
-0.15
0.02
0.25
0.47
0.61
0.63
0.57
0.48
0.38
0.30
0.25
0.24
0.28
0.37
0.44
0.41
0.24
-0.05
-0.36
-0.58
-0.64
-0.58
-0.50
-0.52
-0.67
-0.91
-1.12
-1.18
-1.03
-0.72
-0.39
-0.18
-0.15
-0.26
-0.42
-0.53
-0.54
-0.49
-0.47
-0.51
-0.57
-0.56
-0.41
-0.10
0.33
0.77
1.13
1.35
1.41
1.31
1.10
0.84
0.59
0.40
0.29
0.23
0.18
0.11
0.01
-0.08
-0.12
-0.10
0.01
0.18
0.36
0.50
0.55
0.50
0.36
0.16
-0.06
-0.30
-0.54
-0.78
-0.98
-1.07
-1.02
-0.83
-0.57
-0.35
-0.23
-0.22
-0.19
-0.05
0.25
0.65
1.00
1.13
0.99
0.61
0.16
-0.20
-0.33
-0.25
-0.02
0.21
0.33
0.29
0.15
-0.02
-0.13
-0.17
-0.15
-0.14
-0.18
-0.26
-0.31
-0.26
-0.08
0.24
0.60
0.90
1.08
1.09
0.99
0.86
0.78
0.76
0.76
0.68
0.44
0.05
-0.37
-0.66
-0.69
-0.48
-0.16
0.09
0.14
-0.04
-0.31
-0.53
-0.60
-0.52
-0.38
-0.27
-0.25
-0.29
-0.28
-0.15
0.15
0.55
0.91
1.09
1.03
0.76
0.43
0.17
0.06
0.09
0.13
0.07
-0.12
-0.36
-0.50
-0.42
-0.12
0.28
0.60
0.72
0.59
0.28
-0.10
-0.47
-0.76
-0.97
-1.11
-1.16
-1.08
-0.85
-0.46
0.03
0.52
0.92
1.15
1.19
1.06
0.82
0.54
0.27
0.02
-0.18
-0.35
-0.43
-0.38
-0.18
0.14
0.50
0.78
0.89
0.81
0.58
0.32
0.11
-0.04
-0.17
-0.37
-0.65
-0.96
-1.22
-1.35
-1.36
-1.32
-1.34
-1.46
-1.63
-1.74
-1.68
-1.38
-0.91
-0.38
0.10
0.45
0.71
0.93
1.13
1.28
1.30
1.12
0.78
0.38
0.08
-0.01
0.12
0.36
0.56
0.62
0.52
0.35
0.19
0.11
0.12
0.15
0.13
0.03
-0.17
-0.41
-0.63
-0.76
-0.82
-0.82
-0.80
-0.78
-0.75
-0.66
-0.50
-0.29
-0.10
-0.01
-0.07
-0.25
-0.46
-0.59
-0.54
-0.33
0.01
0.40
0.75
1.00
1.13
1.11
0.98
0.77
0.56
0.42
0.39
0.47
0.63
0.80
0.90
0.89
0.74
0.48
0.16
-0.14
-0.34
-0.44
-0.43
-0.36
-0.25
-0.11
0.07
0.25
0.39
0.42
0.27
-0.04
-0.46
-0.86
-1.18
-1.35
-1.36
-1.21
-0.91
-0.48
0.06
0.65
1.21
1.61
1.77
1.65
1.28
0.76
0.23
-0.18
-0.43
-0.55
-0.59
-0.62
-0.60
-0.50
-0.24
0.18
0.68
1.10
1.30
1.23
0.91
0.46
-0.01
-0.42
-0.72
-0.91
-0.97
-0.92
-0.76
-0.52
-0.22
0.11
0.42
0.62
0.63
0.41
-0.03
-0.56
-1.01
-1.23
-1.17
-0.90
-0.59
-0.34
-0.19
-0.05
0.15
0.43
0.70
0.79
0.63
0.26
-0.15
-0.41
-0.44
-0.28
-0.08
0.01
-0.06
-0.21
-0.33
-0.36
-0.32
-0.29
-0.36
-0.52
-0.69
-0.75
-0.66
-0.46
-0.27
-0.14
-0.08
-0.03
0.04
0.10
0.09
-0.06
-0.35
-0.65
-0.80
-0.69
-0.34
0.14
0.56
0.80
0.85
0.77
0.67
0.62
0.63
0.66
0.67
0.61
0.51
0.40
0.32
0.31
0.33
0.34
0.30
0.22
0.14
0.15
0.28
0.50
0.73
0.86
0.79
0.50
0.06
-0.41
-0.81
-1.04
-1.08
-0.99
-0.81
-0.63
-0.52
-0.52
-0.65
-0.90
-1.16
-1.35
-1.35
-1.16
-0.80
-0.38
-0.00
0.26
0.42
0.52
0.59
0.65
0.68
0.62
0.51
0.37
0.30
0.36
0.54
0.80
1.05
1.22
1.26
1.19
1.03
0.80
0.55
0.28
0.02
-0.21
-0.37
-0.45
-0.42
-0.24
0.05
0.43
0.82
1.09
1.11
0.80
0.21
-0.50
-1.09
-1.33
-1.16
-0.69
-0.13
0.29
0.42
0.29
0.00
-0.27
-0.38
-0.30
-0.04
0.31
0.66
0.95
1.13
1.18
1.10
0.88
0.52
0.06
-0.42
-0.80
-0.97
-0.91
-0.68
-0.45
-0.36
-0.50
-0.80
-1.12
-1.28
-1.16
-0.75
-0.19
0.34
0.67
0.72
0.54
0.27
0.08
0.07
0.21
0.38
0.44
0.31
0.01
-0.35
-0.61
-0.71
-0.65
-0.51
-0.37
-0.26
-0.12
0.11
0.45
0.88
1.27
1.46
1.35
0.97
0.44
-0.03
-0.28
-0.28
-0.07
0.21
0.45
0.62
0.74
0.85
0.95
0.94
0.76
0.39
-0.11
-0.58
-0.86
-0.89
-0.69
-0.38
-0.08
0.09
0.08
-0.15
-0.59
-1.21
-1.86
-2.34
-2.47
-2.16
-1.50
-0.72
-0.09
0.22
0.19
-0.01
-0.20
-0.26
-0.16
0.01
0.15
0.24
0.33
0.51
0.84
1.27
1.65
1.84
1.75
1.42
0.99
0.60
0.34
0.20
0.09
-0.04
-0.21
-0.32
-0.32
-0.20
-0.04
0.04
-0.05
-0.28
-0.52
-0.62
-0.53
-0.32
-0.15
-0.17
-0.42
-0.81
-1.19
-1.42
-1.46
-1.37
-1.20
-1.01
-0.77
-0.43
0.06
0.63
1.15
1.50
1.56
1.36
1.01
0.65
0.41
0.32
0.31
0.30
0.25
0.15
0.05
0.05
0.19
0.46
0.76
0.98
1.02
0.88
0.62
0.35
0.17
0.09
0.04
-0.07
-0.31
-0.67
-1.05
-1.38
-1.59
-1.67
-1.65
-1.53
-1.31
-0.98
-0.58
-0.20
0.08
0.19
0.18
0.14
0.22
0.45
0.80
1.14
1.36
1.37
1.18
0.86
0.52
0.21
0.00
-0.10
-0.09
0.06
0.34
0.70
1.03
1.25
1.28
1.14
0.89
0.63
0.47
0.39
0.37
0.31
0.14
-0.14
-0.48
-0.80
-1.00
-1.05
-0.95
-0.79
-0.68
-0.67
-0.80
-0.98
-1.12
-1.10
-0.88
-0.49
0.01
0.51
0.91
1.14
1.17
1.00
0.67
0.25
-0.15
-0.47
-0.65
-0.68
-0.60
-0.41
-0.16
0.11
0.32
0.39
0.25
-0.07
-0.46
-0.75
-0.85
-0.72
-0.47
-0.25
-0.20
-0.34
-0.58
-0.78
-0.80
-0.61
-0.27
0.09
0.30
0.28
-0.02
-0.48
-0.93
-1.18
-1.08
-0.57
0.23
1.11
1.80
2.10
1.92
1.33
0.55
-0.17
-0.64
-0.79
-0.71
-0.52
-0.35
-0.26
-0.22
-0.16
-0.02
0.18
0.38
0.51
0.52
0.41
0.22
0.01
-0.14
-0.17
-0.07
0.14
0.40
0.61
0.67
0.51
0.18
-0.27
-0.70
-1.03
-1.19
-1.12
-0.82
-0.30
0.35
0.97
1.38
1.46
1.20
0.72
0.20
-0.20
-0.40
-0.40
-0.28
-0.09
0.15
0.43
0.72
0.96
1.06
0.96
0.64
0.18
-0.30
-0.72
-0.98
-1.10
-1.12
-1.09
-1.06
-0.99
-0.85
-0.60
-0.30
-0.06
-0.00
-0.21
-0.62
-1.08
-1.36
-1.33
-0.98
-0.45
0.05
0.39
0.52
0.49
0.39
0.30
0.23
0.17
0.10
0.02
-0.01
0.08
0.31
0.65
1.02
1.28
1.36
1.27
1.09
0.91
0.77
0.66
0.52
0.30
0.01
-0.28
-0.49
-0.57
-0.56
-0.53
-0.56
-0.68
-0.82
-0.90
-0.85
-0.66
-0.42
-0.24
-0.19
-0.28
-0.43
-0.52
-0.47
-0.23
0.11
0.44
0.67
0.76
0.75
0.75
0.80
0.93
1.08
1.15
1.06
0.83
0.50
0.20
0.02
-0.02
0.05
0.16
0.22
0.19
0.08
-0.06
-0.15
-0.17
-0.11
-0.06
-0.07
-0.19
-0.40
-0.64
-0.81
-0.82
-0.69
-0.46
-0.24
-0.11
-0.10
-0.19
-0.32
-0.44
-0.50
-0.45
-0.28
0.01
0.37
0.73
1.01
1.16
1.17
1.08
0.93
0.74
0.52
0.25
-0.03
-0.28
-0.44
-0.45
-0.33
-0.12
0.11
0.33
0.51
0.64
0.72
0.72
0.62
0.42
0.14
-0.19
-0.51
-0.79
-1.04
-1.22
-1.33
-1.33
-1.21
-1.01
-0.76
-0.52
-0.31
-0.11
0.10
0.31
0.52
0.69
0.83
0.94
1.03
1.12
1.18
1.17
1.05
0.76
0.31
-0.21
-0.72
-1.10
-1.27
-1.20
-0.92
-0.53
-0.13
0.18
0.34
0.34
0.24
0.14
0.11
0.16
0.27
0.37
0.42
0.40
0.37
0.40
0.52
0.69
0.81
0.80
0.61
0.29
-0.07
-0.37
-0.57
-0.64
-0.62
-0.54
-0.45
-0.33
-0.19
-0.04
0.11
0.23
0.27
0.22
0.04
-0.21
-0.49
-0.69
-0.75
-0.68
-0.54
-0.41
-0.39
-0.47
-0.60
-0.70
-0.68
-0.51
-0.21
0.14
0.45
0.65
0.70
0.63
0.49
0.32
0.14
-0.06
-0.30
-0.58
-0.85
-0.99
-0.93
-0.64
-0.20
0.20
0.40
0.32
0.04
-0.24
-0.35
-0.20
0.15
0.50
0.66
0.55
0.18
-0.29
-0.69
-0.90
-0.86
-0.62
-0.27
0.09
0.40
0.62
0.70
0.64
0.46
0.21
-0.01
-0.12
-0.06
0.12
0.27
0.27
0.03
-0.42
-0.91
-1.24
-1.30
-1.06
-0.68
-0.31
-0.10
-0.04
-0.06
-0.06
0.01
0.13
0.24
0.29
0.27
0.27
0.35
0.53
0.73
0.84
0.74
0.41
-0.08
-0.58
-0.93
-1.02
-0.82
-0.41
0.09
0.53
0.77
0.76
0.51
0.13
-0.26
-0.54
-0.65
-0.61
-0.47
-0.32
-0.21
-0.15
-0.14
-0.18
-0.27
-0.40
-0.57
-0.70
-0.71
-0.54
-0.19
0.23
0.59
0.76
0.70
0.47
0.23
0.13
0.23
0.48
0.78
0.95
0.89
0.60
0.14
-0.34
-0.72
-0.90
-0.85
-0.63
-0.31
0.03
0.35
0.60
0.76
0.81
0.72
0.50
0.18
-0.14
-0.33
-0.32
-0.09
0.24
0.49
0.54
0.37
0.07
-0.25
-0.49
-0.66
-0.79
-0.91
-0.95
-0.78
-0.32
0.38
1.10
1.56
1.57
1.12
0.42
-0.25
-0.65
-0.70
-0.47
-0.11
0.23
0.47
0.57
0.56
0.48
0.36
0.21
0.02
-0.17
-0.31
-0.35
-0.24
0.00
0.33
0.62
0.78
0.79
0.64
0.39
0.11
-0.15
-0.34
-0.40
-0.30
-0.04
0.29
0.56
0.65
0.54
0.30
0.02
-0.18
-0.29
-0.36
-0.43
-0.51
-0.57
-0.54
-0.40
-0.19
-0.00
0.08
0.04
-0.11
-0.27
-0.36
-0.37
-0.33
-0.30
-0.33
-0.37
-0.35
-0.20
0.08
0.40
0.63
0.66
0.48
0.18
-0.10
-0.22
-0.17
0.01
0.21
0.35
0.38
0.33
0.24
0.14
0.06
-0.02
-0.10
-0.18
-0.21
-0.17
-0.06
0.09
0.21
0.25
0.19
0.10
0.08
0.19
0.40
0.63
0.76
0.73
0.59
0.43
0.36
0.39
0.49
0.55
0.54
0.50
0.48
0.54
0.65
0.72
0.68
0.50
0.27
0.08
0.01
0.03
0.05
-0.00
-0.16
-0.37
-0.53
-0.56
-0.46
-0.33
-0.26
-0.34
-0.56
-0.84
-1.10
-1.25
-1.26
-1.17
-1.03
-0.89
-0.76
-0.65
-0.52
-0.36
-0.16
0.06
0.28
0.48
0.63
0.71
0.68
0.55
0.35
0.12
-0.06
-0.14
-0.09
0.05
0.22
0.34
0.35
0.23
-0.00
-0.29
-0.58
-0.79
-0.91
-0.95
-0.91
-0.82
-0.70
-0.56
-0.40
-0.26
-0.17
-0.15
-0.21
-0.27
-0.32
-0.32
-0.30
-0.32
-0.41
-0.54
-0.64
-0.61
-0.41
-0.06
0.34
0.66
0.80
0.75
0.58
0.38
0.23
0.17
0.17
0.16
0.13
0.07
0.07
0.17
0.38
0.63
0.83
0.89
0.81
0.65
0.46
0.26
0.03
-0.29
-0.68
-1.09
-1.41
-1.51
-1.38
-1.04
-0.62
-0.22
0.07
0.22
0.21
0.07
-0.18
-0.48
-0.72
-0.80
-0.64
-0.27
0.22
0.68
0.99
1.08
0.96
0.70
0.37
0.05
-0.25
-0.52
-0.74
-0.91
-0.97
-0.93
-0.75
-0.48
-0.16
0.15
0.41
0.61
0.73
0.77
0.73
0.59
0.40
0.21
0.07
0.00
-0.00
-0.01
-0.10
-0.30
-0.61
-0.95
-1.20
-1.27
-1.11
-0.77
-0.33
0.04
0.22
0.15
-0.13
-0.46
-0.67
-0.64
-0.36
0.09
0.58
1.04
1.38
1.59
1.62
1.42
0.98
0.39
-0.22
-0.64
-0.76
-0.58
-0.20
0.18
0.47
0.63
0.70
0.77
0.86
0.96
1.03
1.01
0.88
0.61
0.21
-0.28
-0.76
-1.10
-1.19
-0.99
-0.58
-0.14
0.15
0.19
0.01
-0.26
-0.49
-0.62
-0.68
-0.72
-0.77
-0.73
-0.52
-0.07
0.53
1.11
1.44
1.41
1.07
0.60
0.18
-0.10
-0.25
-0.36
-0.50
-0.66
-0.77
-0.71
-0.40
0.14
0.80
1.42
1.84
1.95
1.77
1.39
1.00
0.71
0.54
0.41
0.20
-0.15
-0.55
-0.86
-0.91
-0.70
-0.34
-0.01
0.14
0.08
-0.09
-0.25
-0.31
-0.28
-0.22
-0.17
-0.16
-0.15
-0.09
0.06
0.26
0.46
0.59
0.57
0.41
0.16
-0.08
-0.22
-0.20
-0.08
0.08
0.15
0.07
-0.12
-0.34
-0.48
-0.47
-0.31
-0.08
0.14
0.26
0.28
0.24
0.18
0.13
0.08
-0.02
-0.17
-0.36
-0.52
-0.62
-0.62
-0.55
-0.44
-0.35
-0.25
-0.17
-0.06
0.06
0.16
0.22
0.23
0.20
0.16
0.16
0.18
0.22
0.22
0.14
-0.08
-0.42
-0.80
-1.08
-1.13
-0.88
-0.38
0.20
0.64
0.80
0.67
0.35
0.03
-0.12
-0.07
0.12
0.32
0.42
0.39
0.26
0.08
-0.11
-0.30
-0.52
-0.80
-1.09
-1.33
-1.41
-1.28
-0.93
-0.41
0.17
0.72
1.15
1.42
1.50
1.37
1.04
0.57
0.06
-0.37
-0.64
-0.73
-0.69
-0.61
-0.56
-0.55
-0.54
-0.48
-0.34
-0.14
0.05
0.17
0.19
0.11
0.00
-0.09
-0.15
-0.16
-0.16
-0.17
-0.19
-0.21
-0.22
-0.19
-0.16
-0.14
-0.14
-0.14
-0.11
0.00
0.20
0.43
0.65
0.78
0.80
0.71
0.58
0.47
0.43
0.49
0.63
0.77
0.82
0.71
0.44
0.08
-0.24
-0.40
-0.35
-0.16
0.08
0.26
0.34
0.36
0.35
0.32
0.23
0.05
-0.21
-0.48
-0.67
-0.72
-0.64
-0.51
-0.43
-0.42
-0.48
-0.57
-0.65
-0.71
-0.78
-0.80
-0.71
-0.46
-0.03
0.48
0.94
1.21
1.21
0.97
0.61
0.23
-0.07
-0.25
-0.32
-0.31
-0.23
-0.10
0.05
0.20
0.32
0.40
0.43
0.40
0.29
0.08
-0.19
-0.47
-0.64
-0.61
-0.37
0.00
0.36
0.57
0.55
0.33
0.01
-0.29
-0.51
-0.61
-0.58
-0.45
-0.24
0.03
0.30
0.53
0.67
0.69
0.61
0.49
0.40
0.38
0.42
0.47
0.50
0.47
0.41
0.34
0.29
0.26
0.25
0.22
0.18
0.15
0.16
0.22
0.30
0.31
0.21
-0.00
-0.27
-0.48
-0.57
-0.55
-0.50
-0.49
-0.58
-0.73
-0.85
-0.88
-0.81
-0.69
-0.60
-0.61
-0.71
-0.80
-0.78
-0.57
-0.17
0.33
0.76
1.01
1.02
0.84
0.61
0.46
0.47
0.59
0.69
0.62
0.34
-0.10
-0.55
-0.85
-0.91
-0.74
-0.41
-0.03
0.32
0.62
0.84
0.97
0.99
0.86
0.56
0.16
-0.27
-0.64
-0.88
-1.02
-1.10
-1.19
-1.30
-1.37
-1.31
-1.06
-0.68
-0.30
-0.04
0.03
-0.06
-0.17
-0.19
-0.07
0.14
0.34
0.44
0.44
0.41
0.41
0.49
0.59
0.61
0.48
0.22
-0.08
-0.25
-0.19
0.09
0.46
0.73
0.76
0.52
0.10
-0.32
-0.61
-0.70
-0.62
-0.44
-0.22
0.02
0.27
0.49
0.58
0.43
0.04
-0.49
-0.97
-1.21
-1.14
-0.85
-0.49
-0.22
-0.09
-0.08
-0.07
-0.01
0.11
0.20
0.20
0.08
-0.10
-0.25
-0.29
-0.21
-0.03
0.17
0.33
0.46
0.55
0.63
0.67
0.63
0.46
0.17
-0.16
-0.42
-0.51
-0.40
-0.17
0.07
0.19
0.15
-0.00
-0.19
-0.33
-0.42
-0.48
-0.55
-0.64
-0.73
-0.79
-0.81
-0.82
-0.83
-0.86
-0.85
-0.72
-0.44
-0.04
0.37
0.65
0.71
0.54
0.26
0.00
-0.13
-0.09
0.08
0.32
0.56
0.72
0.77
0.70
0.49
0.20
-0.11
-0.32
-0.34
-0.19
0.07
0.30
0.38
0.28
0.04
-0.22
-0.40
-0.47
-0.46
-0.44
-0.48
-0.55
-0.60
-0.57
-0.47
-0.34
-0.24
-0.19
-0.16
-0.11
0.04
0.28
0.59
0.89
1.10
1.17
1.11
0.97
0.81
0.71
0.70
0.77
0.86
0.90
0.81
0.60
0.30
0.03
-0.15
-0.21
-0.18
-0.15
-0.15
-0.19
-0.23
-0.27
-0.30
-0.36
-0.48
-0.66
-0.84
-0.95
-0.93
-0.81
-0.65
-0.52
-0.47
-0.47
-0.47
-0.41
-0.26
-0.03
0.22
0.42
0.55
0.60
0.61
0.61
0.59
0.55
0.49
0.44
0.42
0.47
0.57
0.67
0.75
0.79
0.81
0.82
0.83
0.82
0.77
0.70
0.62
0.60
0.63
0.68
0.68
0.58
0.35
0.01
-0.36
-0.69
-0.90
-0.95
-0.83
-0.56
-0.22
0.10
0.33
0.39
0.29
0.06
-0.21
-0.44
-0.56
-0.53
-0.32
0.01
0.40
0.79
1.07
1.18
1.09
0.84
0.53
0.25
0.07
0.03
0.06
0.12
0.15
0.18
0.20
0.23
0.26
0.23
0.14
-0.02
-0.23
-0.45
-0.65
-0.82
-0.92
-0.93
-0.83
-0.67
-0.50
-0.38
-0.35
-0.38
-0.42
-0.45
-0.44
-0.41
-0.35
-0.27
-0.14
0.05
0.28
0.51
0.69
0.83
0.93
1.00
1.05
1.07
1.03
0.91
0.71
0.47
0.25
0.10
0.04
0.08
0.16
0.26
0.33
0.39
0.45
0.53
0.62
0.68
0.70
0.66
0.56
0.42
0.22
-0.03
-0.32
-0.60
-0.78
-0.80
-0.63
-0.30
0.06
0.32
0.40
0.29
0.06
-0.20
-0.43
-0.59
-0.67
-0.69
-0.60
-0.40
-0.09
0.26
0.55
0.66
0.56
0.33
0.12
0.06
0.21
0.49
0.75
0.86
0.76
0.51
0.22
-0.01
-0.13
-0.14
-0.09
0.01
0.13
0.27
0.38
0.45
0.44
0.37
0.30
0.24
0.22
0.21
0.18
0.12
0.02
-0.10
-0.26
-0.50
-0.81
-1.18
-1.53
-1.77
-1.79
-1.58
-1.19
-0.70
-0.21
0.21
0.53
0.74
0.84
0.81
0.62
0.31
-0.07
-0.41
-0.59
-0.58
-0.38
-0.06
0.30
0.62
0.83
0.93
0.92
0.82
0.71
0.61
0.55
0.50
0.40
0.19
-0.14
-0.50
-0.78
-0.87
-0.75
-0.51
-0.27
-0.17
-0.22
-0.39
-0.58
-0.71
-0.73
-0.69
-0.67
-0.72
-0.89
-1.10
-1.24
-1.20
-0.91
-0.42
0.15
0.66
1.03
1.24
1.34
1.35
1.22
0.93
0.47
-0.08
-0.54
-0.76
-0.68
-0.37
-0.02
0.21
0.23
0.08
-0.13
-0.25
-0.22
-0.04
0.18
0.34
0.36
0.26
0.10
-0.04
-0.13
-0.18
-0.25
-0.41
-0.67
-0.97
-1.22
-1.32
-1.21
-0.92
-0.49
0.01
0.52
0.99
1.37
1.59
1.59
1.34
0.87
0.30
-0.22
-0.57
-0.67
-0.54
-0.29
-0.06
0.05
0.05
-0.02
-0.06
-0.03
0.05
0.13
0.16
0.16
0.16
0.21
0.30
0.38
0.36
0.17
-0.17
-0.56
-0.87
-1.02
-1.01
-0.93
-0.91
-1.00
-1.22
-1.46
-1.58
-1.50
-1.16
-0.65
-0.08
0.38
0.66
0.71
0.59
0.38
0.19
0.09
0.10
0.20
0.35
0.53
0.74
0.94
1.09
1.14
1.03
0.79
0.48
0.20
-0.01
-0.13
-0.21
-0.27
-0.31
-0.31
-0.23
-0.10
0.05
0.16
0.17
0.09
-0.08
-0.34
-0.69
-1.11
-1.53
-1.83
-1.92
-1.76
-1.42
-0.99
-0.55
-0.11
0.32
0.76
1.12
1.32
1.27
1.00
0.65
0.38
0.32
0.41
0.53
0.53
0.38
0.17
0.08
0.22
0.55
0.89
1.01
0.81
0.33
-0.25
-0.69
-0.85
-0.72
-0.40
-0.04
0.23
0.36
0.35
0.24
0.07
-0.16
-0.40
-0.62
-0.78
-0.85
-0.84
-0.76
-0.68
-0.59
-0.48
-0.33
-0.14
0.06
0.22
0.30
0.32
0.37
0.51
0.75
1.02
1.15
1.04
0.68
0.22
-0.13
-0.26
-0.16
0.02
0.14
0.10
-0.03
-0.13
-0.08
0.12
0.38
0.55
0.53
0.35
0.10
-0.08
-0.13
-0.07
-0.01
-0.04
-0.22
-0.50
-0.80
-1.00
-1.05
-0.92
-0.65
-0.30
0.08
0.42
0.68
0.88
1.00
1.06
1.05
0.95
0.77
0.53
0.26
-0.01
-0.23
-0.40
-0.53
-0.60
-0.60
-0.51
-0.30
0.03
0.42
0.75
0.90
0.79
0.44
-0.05
-0.48
-0.73
-0.72
-0.49
-0.15
0.18
0.41
0.52
0.49
0.34
0.05
-0.35
-0.82
-1.24
-1.51
-1.52
-1.25
-0.75
-0.12
0.52
1.05
1.39
1.52
1.43
1.17
0.81
0.40
0.03
-0.25
-0.43
-0.52
-0.56
-0.57
-0.55
-0.50
-0.37
-0.16
0.10
0.35
0.53
0.60
0.53
0.32
-0.00
-0.36
-0.65
-0.76
-0.62
-0.27
0.16
0.50
0.64
0.55
0.32
0.05
-0.17
-0.31
-0.41
-0.48
-0.54
-0.55
-0.49
-0.34
-0.12
0.10
0.28
0.36
0.36
0.27
0.14
0.00
-0.10
-0.15
-0.12
0.02
0.23
0.45
0.59
0.56
0.35
0.01
-0.32
-0.51
-0.49
-0.32
-0.12
-0.02
-0.09
-0.28
-0.49
-0.63
-0.66
-0.59
-0.51
-0.48
-0.51
-0.59
-0.67
-0.71
-0.66
-0.54
-0.35
-0.10
0.19
0.48
0.76
0.97
1.07
1.03
0.83
0.53
0.20
-0.04
-0.11
-0.01
0.21
0.44
0.56
0.51
0.29
-0.06
-0.44
-0.79
-1.06
-1.25
-1.34
-1.31
-1.17
-0.94
-0.70
-0.49
-0.36
-0.30
-0.30
-0.33
-0.40
-0.51
-0.66
-0.82
-0.91
-0.87
-0.68
-0.37
-0.03
0.28
0.53
0.75
0.98
1.19
1.32
1.28
1.03
0.62
0.18
-0.11
-0.14
0.07
0.41
0.70
0.81
0.71
0.46
0.14
-0.16
-0.41
-0.56
-0.61
-0.56
-0.41
-0.21
-0.02
0.07
0.02
-0.17
-0.46
-0.80
-1.14
-1.45
-1.67
-1.75
-1.64
-1.30
-0.77
-0.10
0.57
1.15
1.54
1.71
1.66
1.42
1.07
0.71
0.46
0.38
0.48
0.72
1.00
1.21
1.27
1.14
0.84
0.46
0.10
-0.15
-0.24
-0.17
-0.03
0.11
0.16
0.12
0.00
-0.15
-0.32
-0.52
-0.75
-1.00
-1.21
-1.31
-1.24
-1.00
-0.65
-0.29
-0.01
0.12
0.10
0.02
-0.01
0.10
0.41
0.85
1.30
1.57
1.52
1.15
0.59
0.05
-0.33
-0.49
-0.50
-0.51
-0.57
-0.68
-0.70
-0.54
-0.18
0.27
0.65
0.82
0.73
0.48
0.19
-0.01
-0.05
0.03
0.16
0.26
0.26
0.18
0.07
-0.04
-0.11
-0.14
-0.15
-0.19
-0.27
-0.37
-0.47
-0.53
-0.53
-0.42
-0.20
0.15
0.57
0.96
1.19
1.16
0.85
0.35
-0.20
-0.62
-0.82
-0.74
-0.45
-0.05
0.35
0.63
0.74
0.69
0.53
0.35
0.22
0.14
0.09
-0.00
-0.14
-0.30
-0.39
-0.37
-0.24
-0.10
-0.08
-0.21
-0.45
-0.67
-0.73
-0.62
-0.44
-0.34
-0.41
-0.63
-0.85
-0.91
-0.70
-0.28
0.21
0.58
0.70
0.57
0.29
0.01
-0.14
-0.08
0.16
0.48
0.77
0.90
0.85
0.66
0.47
0.37
0.40
0.50
0.54
0.41
0.09
-0.34
-0.77
-1.08
-1.24
-1.27
-1.20
-1.05
-0.80
-0.47
-0.12
0.15
0.21
0.03
-0.30
-0.61
-0.76
-0.66
-0.37
0.02
0.41
0.76
1.05
1.29
1.47
1.56
1.54
1.42
1.24
1.05
0.89
0.76
0.64
0.54
0.49
0.54
0.70
0.90
1.02
0.95
0.64
0.18
-0.29
-0.65
-0.83
-0.90
-0.95
-1.06
-1.22
-1.35
-1.36
-1.21
-0.93
-0.60
-0.32
-0.11
-0.01
0.00
-0.09
-0.28
-0.53
-0.74
-0.79
-0.56
-0.02
0.71
1.44
1.96
2.12
1.88
1.34
0.64
-0.06
-0.60
-0.92
-0.97
-0.79
-0.46
-0.11
0.14
0.16
-0.04
-0.37
-0.66
-0.78
-0.65
-0.31
0.11
0.46
0.66
0.68
0.59
0.49
0.41
0.35
0.25
0.10
-0.09
-0.23
-0.26
-0.12
0.12
0.36
0.50
0.48
0.34
0.16
0.01
-0.04
-0.00
0.07
0.13
0.15
0.11
0.06
0.04
0.07
0.19
0.38
0.59
0.73
0.69
0.41
-0.07
-0.63
-1.06
-1.18
-0.93
-0.36
0.34
0.96
1.33
1.38
1.14
0.72
0.24
-0.20
-0.53
-0.71
-0.74
-0.68
-0.59
-0.58
-0.67
-0.83
-0.93
-0.86
-0.53
0.00
0.61
1.11
1.36
1.33
1.07
0.71
0.36
0.07
-0.15
-0.31
-0.40
-0.43
-0.35
-0.17
0.12
0.41
0.61
0.64
0.47
0.15
-0.21
-0.54
-0.78
-0.96
-1.13
-1.31
-1.48
-1.58
-1.54
-1.34
-1.03
-0.68
-0.40
-0.21
-0.12
-0.14
-0.25
-0.40
-0.56
-0.66
-0.61
-0.41
-0.09
0.25
0.51
0.63
0.61
0.49
0.33
0.18
0.04
-0.09
-0.22
-0.31
-0.32
-0.25
-0.09
0.10
0.29
0.44
0.54
0.58
0.56
0.44
0.24
-0.03
-0.29
-0.50
-0.62
-0.65
-0.66
-0.67
-0.67
-0.61
-0.47
-0.21
0.11
0.42
0.63
0.70
0.61
0.40
0.14
-0.08
-0.17
-0.05
0.28
0.74
1.21
1.56
1.72
1.68
1.52
1.33
1.16
1.05
0.95
0.85
0.72
0.57
0.41
0.26
0.15
0.06
0.00
-0.06
-0.16
-0.33
-0.58
-0.86
-1.10
-1.24
-1.22
-1.06
-0.80
-0.54
-0.34
-0.27
-0.35
-0.59
-0.94
-1.35
-1.68
-1.82
-1.68
-1.25
-0.63
0.04
0.56
0.83
0.83
0.63
0.39
0.22
0.17
0.23
0.29
0.31
0.29
0.28
0.36
0.57
0.81
0.97
0.91
0.61
0.18
-0.20
-0.39
-0.33
-0.09
0.19
0.37
0.39
0.23
-0.04
-0.36
-0.71
-1.02
-1.25
-1.32
-1.20
-0.90
-0.50
-0.13
0.10
0.13
-0.01
-0.26
-0.52
-0.73
-0.88
-0.94
-0.92
-0.80
-0.53
-0.08
0.53
1.21
1.80
2.15
2.14
1.76
1.12
0.37
-0.28
-0.70
-0.81
-0.64
-0.30
0.09
0.40
0.58
0.60
0.50
0.33
0.17
0.06
0.02
0.02
0.03
0.03
-0.03
-0.14
-0.27
-0.38
-0.45
-0.46
-0.46
-0.46
-0.50
-0.55
-0.59
-0.58
-0.50
-0.37
-0.20
0.02
0.24
0.46
0.62
0.64
0.47
0.14
-0.26
-0.59
-0.72
-0.58
-0.27
0.06
0.28
0.30
0.18
0.04
-0.01
0.08
0.27
0.46
0.56
0.57
0.53
0.56
0.72
1.02
1.36
1.60
1.60
1.29
0.71
0.02
-0.60
-0.99
-1.08
-0.95
-0.73
-0.54
-0.44
-0.42
-0.45
-0.53
-0.70
-1.01
-1.43
-1.88
-2.19
-2.22
-1.89
-1.29
-0.57
0.05
0.41
0.48
0.36
0.20
0.13
0.26
0.55
0.95
1.33
1.61
1.71
1.62
1.38
1.03
0.66
0.36
0.19
0.19
0.29
0.40
0.43
0.36
0.24
0.15
0.16
0.22
0.26
0.17
-0.06
-0.35
-0.60
-0.68
-0.58
-0.36
-0.10
0.10
0.21
0.23
0.15
-0.01
-0.20
-0.39
-0.47
-0.40
-0.19
0.08
0.31
0.44
0.47
0.45
0.42
0.38
0.31
0.16
-0.04
-0.25
-0.40
-0.45
-0.36
-0.19
0.05
0.28
0.45
0.56
0.60
0.60
0.60
0.63
0.67
0.65
0.50
0.20
-0.17
-0.48
-0.63
-0.58
-0.40
-0.23
-0.19
-0.33
-0.61
-0.90
-1.12
-1.17
-1.06
-0.86
-0.63
-0.43
-0.30
-0.24
-0.21
-0.17
-0.08
0.08
0.29
0.53
0.77
0.94
1.00
0.90
0.65
0.27
-0.13
-0.45
-0.60
-0.59
-0.42
-0.21
-0.01
0.14
0.21
0.24
0.26
0.28
0.29
0.29
0.29
0.28
0.25
0.19
0.09
-0.06
-0.22
-0.38
-0.52
-0.61
-0.68
-0.72
-0.78
-0.86
-0.94
-0.97
-0.91
-0.70
-0.37
0.03
0.36
0.52
0.46
0.24
-0.02
-0.17
-0.12
0.09
0.35
0.51
0.44
0.18
-0.19
-0.49
-0.60
-0.48
-0.22
0.07
0.25
0.27
0.13
-0.10
-0.35
-0.56
-0.71
-0.77
-0.75
-0.65
-0.48
-0.28
-0.07
0.11
0.26
0.36
0.38
0.29
0.08
-0.23
-0.56
-0.79
-0.85
-0.71
-0.40
0.05
0.59
1.12
1.55
1.75
1.62
1.17
0.52
-0.11
-0.52
-0.63
-0.49
-0.23
0.00
0.17
0.31
0.45
0.60
0.68
0.62
0.39
0.05
-0.27
-0.46
-0.51
-0.47
-0.44
-0.50
-0.62
-0.73
-0.74
-0.61
-0.41
-0.23
-0.19
-0.29
-0.45
-0.53
-0.44
-0.16
0.21
0.52
0.66
0.62
0.50
0.43
0.50
0.68
0.88
0.96
0.86
0.62
0.32
0.06
-0.11
-0.20
-0.24
-0.27
-0.27
-0.20
-0.02
0.27
0.58
0.80
0.83
0.63
0.25
-0.18
-0.52
-0.70
-0.71
-0.62
-0.52
-0.49
-0.53
-0.59
-0.63
-0.59
-0.50
-0.37
-0.18
0.06
0.36
0.65
0.86
0.92
0.80
0.53
0.20
-0.11
-0.32
-0.41
-0.35
-0.15
0.17
0.58
0.97
1.23
1.26
1.03
0.60
0.12
-0.29
-0.51
-0.54
-0.44
-0.29
-0.15
-0.06
0.00
0.01
-0.03
-0.12
-0.26
-0.39
-0.46
-0.41
-0.25
-0.01
0.23
0.40
0.46
0.41
0.25
0.04
-0.17
-0.32
-0.34
-0.22
-0.02
0.18
0.29
0.28
0.20
0.11
0.08
0.11
0.15
0.14
0.03
-0.17
-0.42
-0.65
-0.81
-0.86
-0.81
-0.69
-0.53
-0.39
-0.30
-0.28
-0.32
-0.40
-0.49
-0.58
-0.63
-0.60
-0.45
-0.16
0.27
0.76
1.20
1.47
1.52
1.34
1.00
0.61
0.30
0.16
0.22
0.44
0.74
1.00
1.14
1.11
0.89
0.51
0.04
-0.44
-0.82
-0.98
-0.86
-0.51
-0.06
0.28
0.41
0.31
0.08
-0.17
-0.34
-0.46
-0.57
-0.69
-0.78
-0.74
-0.50
-0.08
0.43
0.89
1.20
1.33
1.27
1.08
0.80
0.49
0.21
0.02
-0.07
-0.11
-0.17
-0.31
-0.51
-0.68
-0.69
-0.48
-0.10
0.32
0.60
0.64
0.44
0.10
-0.23
-0.44
-0.52
-0.51
-0.46
-0.44
-0.42
-0.40
-0.32
-0.22
-0.13
-0.12
-0.19
-0.30
-0.34
-0.24
0.01
0.33
0.57
0.64
0.52
0.30
0.11
0.03
0.06
0.14
0.19
0.18
0.10
-0.01
-0.12
-0.22
-0.30
-0.36
-0.35
-0.24
-0.05
0.16
0.30
0.29
0.12
-0.16
-0.45
-0.64
-0.71
-0.65
-0.51
-0.31
-0.05
0.27
0.64
1.00
1.25
1.31
1.15
0.84
0.47
0.16
-0.03
-0.11
-0.12
-0.12
-0.11
-0.09
-0.05
-0.05
-0.13
-0.35
-0.66
-0.94
-1.06
-0.95
-0.62
-0.21
0.11
0.22
0.11
-0.16
-0.48
-0.77
-1.02
-1.25
-1.44
-1.54
-1.43
-1.05
-0.36
0.49
1.31
1.86
2.00
1.69
1.08
0.35
-0.27
-0.65
-0.77
-0.70
-0.56
-0.44
-0.40
-0.43
-0.48
-0.47
-0.37
-0.20
0.02
0.23
0.39
0.47
0.47
0.39
0.25
0.10
-0.04
-0.19
-0.39
-0.67
-1.00
-1.29
-1.45
-1.38
-1.09
-0.68
-0.25
0.10
0.35
0.53
0.67
0.79
0.82
0.74
0.57
0.40
0.34
0.46
0.73
1.01
1.13
1.01
0.65
0.18
-0.20
-0.38
-0.34
-0.18
-0.01
0.08
0.06
-0.02
-0.10
-0.16
-0.20
-0.24
-0.26
-0.26
-0.22
-0.15
-0.08
-0.07
-0.14
-0.31
-0.53
-0.76
-0.95
-1.07
-1.12
-1.10
-1.00
-0.82
-0.55
-0.20
0.19
0.55
0.81
0.93
0.90
0.77
0.62
0.52
0.56
0.72
0.97
1.22
1.38
1.39
1.26
1.06
0.85
0.68
0.53
0.34
0.07
-0.25
-0.54
-0.70
-0.68
-0.48
-0.20
0.06
0.20
0.19
0.01
-0.30
-0.70
-1.09
-1.35
-1.42
-1.27
-1.00
-0.71
-0.49
-0.31
-0.11
0.21
0.64
1.07
1.35
1.37
1.16
0.81
0.45
0.15
-0.05
-0.17
-0.21
-0.16
-0.04
0.12
0.24
0.27
0.20
0.07
-0.05
-0.16
-0.25
-0.35
-0.45
-0.51
-0.48
-0.35
-0.19
-0.05
0.05
0.13
0.23
0.36
0.48
0.50
0.36
0.08
-0.25
-0.57
-0.78
-0.88
-0.90
-0.84
-0.72
-0.55
-0.36
-0.16
0.01
0.15
0.26
0.36
0.46
0.56
0.64
0.69
0.68
0.59
0.42
0.21
0.06
0.05
0.21
0.50
0.78
0.95
0.92
0.73
0.47
0.25
0.11
0.06
0.05
0.04
-0.03
-0.17
-0.35
-0.50
-0.56
-0.48
-0.24
0.07
0.36
0.48
0.37
0.06
-0.36
-0.78
-1.08
-1.20
-1.14
-0.96
-0.72
-0.44
-0.16
0.13
0.38
0.53
0.49
0.25
-0.14
-0.55
-0.80
-0.76
-0.44
0.07
0.57
0.91
1.02
0.92
0.69
0.45
0.24
0.06
-0.09
-0.24
-0.38
-0.46
-0.45
-0.34
-0.17
-0.00
0.11
0.16
0.21
0.30
0.44
0.59
0.70
0.70
0.55
0.27
-0.10
-0.46
-0.71
-0.77
-0.62
-0.32
-0.01
0.19
0.20
0.05
-0.14
-0.23
-0.15
0.06
0.29
0.47
0.59
0.71
0.90
1.17
1.42
1.54
1.45
1.13
0.69
0.29
0.04
0.00
0.12
0.28
0.34
0.22
-0.09
-0.46
-0.74
-0.83
-0.67
-0.34
0.00
0.22
0.26
0.16
0.03
-0.04
-0.01
0.06
0.05
-0.12
-0.50
-0.98
-1.42
-1.66
-1.60
-1.26
-0.73
-0.18
0.28
0.54
0.62
0.56
0.44
0.29
0.14
-0.01
-0.14
-0.22
-0.21
-0.08
0.11
0.29
0.37
0.30
0.08
-0.22
-0.53
-0.77
-0.96
-1.09
-1.14
-1.08
-0.83
-0.41
0.10
0.52
0.67
0.48
0.03
-0.48
-0.86
-0.99
-0.88
-0.66
-0.45
-0.34
-0.34
-0.37
-0.36
-0.26
-0.08
0.13
0.31
0.42
0.45
0.42
0.36
0.27
0.13
-0.09
-0.38
-0.71
-1.00
-1.18
-1.23
-1.16
-1.03
-0.91
-0.81
-0.69
-0.53
-0.31
-0.05
0.19
0.36
0.44
0.44
0.40
0.35
0.29
0.24
0.17
0.06
-0.09
-0.31
-0.55
-0.76
-0.85
-0.76
-0.46
-0.03
0.41
0.75
0.91
0.92
0.85
0.75
0.64
0.50
0.29
0.03
-0.22
-0.37
-0.35
-0.17
0.11
0.39
0.61
0.74
0.77
0.73
0.65
0.56
0.47
0.38
0.26
0.08
-0.16
-0.42
-0.64
-0.69
-0.55
-0.23
0.15
0.44
0.53
0.40
0.12
-0.19
-0.45
-0.62
-0.74
-0.85
-0.97
-1.04
-0.98
-0.71
-0.25
0.33
0.89
1.27
1.41
1.29
1.01
0.69
0.45
0.39
0.51
0.77
1.07
1.31
1.42
1.38
1.21
0.95
0.63
0.27
-0.10
-0.46
-0.74
-0.89
-0.88
-0.76
-0.57
-0.42
-0.35
-0.36
-0.42
-0.46
-0.42
-0.29
-0.08
0.15
0.36
0.45
0.40
0.23
-0.02
-0.25
-0.40
-0.44
-0.39
-0.28
-0.13
0.05
0.22
0.35
0.41
0.36
0.24
0.10
0.04
0.10
0.28
0.48
0.61
0.60
0.47
0.28
0.15
0.16
0.33
0.62
0.89
1.03
0.95
0.62
0.12
-0.41
-0.82
-1.00
-0.90
-0.55
-0.05
0.47
0.86
0.98
0.78
0.29
-0.37
-0.97
-1.28
-1.19
-0.71
-0.06
0.52
0.79
0.70
0.35
-0.03
-0.26
-0.27
-0.12
0.06
0.16
0.17
0.12
0.11
0.19
0.31
0.42
0.45
0.37
0.23
0.09
0.01
0.01
0.08
0.16
0.17
0.04
-0.26
-0.69
-1.14
-1.47
-1.58
-1.40
-1.01
-0.52
-0.08
0.21
0.31
0.28
0.16
0.02
-0.08
-0.12
-0.08
0.02
0.17
0.29
0.39
0.44
0.47
0.51
0.53
0.52
0.44
0.30
0.14
0.04
0.02
0.08
0.16
0.22
0.27
0.33
0.43
0.54
0.58
0.44
0.08
-0.44
-0.96
-1.33
-1.43
-1.26
-0.90
-0.49
-0.17
0.01
0.02
-0.09
-0.25
-0.40
-0.47
-0.46
-0.38
-0.26
-0.15
-0.08
-0.09
-0.15
-0.22
-0.26
-0.22
-0.10
0.06
0.21
0.27
0.24
0.14
0.03
-0.01
0.04
0.19
0.37
0.49
0.49
0.35
0.13
-0.09
-0.22
-0.24
-0.18
-0.12
-0.10
-0.17
-0.31
-0.52
-0.78
-1.09
-1.41
-1.67
-1.79
-1.70
-1.37
-0.88
-0.32
0.18
0.53
0.73
0.79
0.78
0.75
0.75
0.79
0.85
0.89
0.90
0.84
0.72
0.55
0.33
0.10
-0.11
-0.26
-0.30
-0.22
-0.04
0.17
0.34
0.43
0.43
0.37
0.28
0.17
0.04
-0.08
-0.18
-0.25
-0.32
-0.46
-0.72
-1.12
-1.58
-1.96
-2.09
-1.88
-1.35
-0.62
0.14
0.77
1.20
1.42
1.48
1.43
1.32
1.17
0.99
0.81
0.65
0.55
0.54
0.61
0.74
0.86
0.90
0.86
0.76
0.65
0.57
0.52
0.45
0.32
0.11
-0.11
-0.27
-0.34
-0.33
-0.29
-0.30
-0.39
-0.53
-0.63
-0.66
-0.60
-0.51
-0.48
-0.54
-0.72
-0.95
-1.14
-1.21
-1.10
-0.84
-0.49
-0.14
0.16
0.36
0.50
0.62
0.74
0.86
0.93
0.94
0.87
0.72
0.51
0.26
0.00
-0.21
-0.33
-0.34
-0.27
-0.16
-0.08
-0.08
-0.16
-0.29
-0.41
-0.50
-0.52
-0.47
-0.33
-0.14
0.07
0.25
0.32
0.26
0.09
-0.08
-0.16
-0.08
0.11
0.32
0.42
0.32
0.05
-0.30
-0.58
-0.67
-0.57
-0.33
-0.05
0.20
0.40
0.58
0.79
1.02
1.23
1.33
1.26
1.00
0.63
0.26
0.02
-0.06
0.03
0.23
0.46
0.67
0.82
0.89
0.86
0.68
0.38
0.00
-0.34
-0.56
-0.61
-0.57
-0.51
-0.53
-0.62
-0.71
-0.69
-0.51
-0.21
0.10
0.27
0.25
0.04
-0.25
-0.48
-0.56
-0.50
-0.36
-0.24
-0.18
-0.17
-0.15
-0.07
0.07
0.22
0.31
0.28
0.14
-0.04
-0.15
-0.14
-0.01
0.15
0.30
0.35
0.29
0.16
0.02
-0.06
-0.04
0.08
0.26
0.41
0.48
0.42
0.26
0.04
-0.18
-0.36
-0.51
-0.59
-0.60
-0.48
-0.26
0.04
0.30
0.41
0.30
0.03
-0.31
-0.57
-0.67
-0.58
-0.39
-0.19
-0.03
0.10
0.21
0.35
0.48
0.54
0.48
0.26
-0.06
-0.36
-0.55
-0.54
-0.36
-0.08
0.17
0.32
0.33
0.23
0.08
-0.04
-0.10
-0.09
-0.05
-0.01
0.00
0.02
0.06
0.18
0.36
0.54
0.67
0.64
0.44
0.11
-0.24
-0.50
-0.59
-0.49
-0.30
-0.13
-0.08
-0.21
-0.44
-0.67
-0.77
-0.68
-0.45
-0.18
-0.00
0.06
0.06
0.11
0.29
0.60
0.92
1.13
1.16
0.98
0.66
0.28
-0.08
-0.36
-0.51
-0.50
-0.31
-0.03
0.26
0.45
0.51
0.45
0.35
0.25
0.14
-0.01
-0.19
-0.34
-0.36
-0.18
0.14
0.44
0.52
0.29
-0.21
-0.76
-1.18
-1.32
-1.21
-1.01
-0.86
-0.86
-0.96
-1.05
-1.04
-0.92
-0.78
-0.70
-0.71
-0.75
-0.68
-0.37
0.20
0.94
1.65
2.11
2.18
1.84
1.22
0.54
0.01
-0.25
-0.22
-0.01
0.25
0.43
0.47
0.38
0.23
0.10
0.05
0.08
0.15
0.20
0.16
0.05
-0.10
-0.20
-0.22
-0.12
0.02
0.11
0.09
-0.08
-0.34
-0.63
-0.85
-0.96
-0.98
-0.95
-0.92
-0.90
-0.89
-0.85
-0.76
-0.60
-0.39
-0.17
0.03
0.17
0.27
0.33
0.39
0.48
0.59
0.70
0.78
0.79
0.77
0.76
0.81
0.91
0.98
0.94
0.74
0.41
0.07
-0.18
-0.27
-0.25
-0.21
-0.21
-0.25
-0.27
-0.23
-0.17
-0.13
-0.21
-0.40
-0.66
-0.89
-1.02
-1.06
-1.05
-1.05
-1.08
-1.12
-1.15
-1.14
-1.05
-0.81
-0.39
0.20
0.83
1.32
1.52
1.40
1.09
0.76
0.58
0.56
0.60
0.56
0.38
0.11
-0.08
-0.08
0.16
0.56
0.98
1.28
1.39
1.31
1.10
0.82
0.54
0.26
-0.01
-0.31
-0.62
-0.88
-1.02
-0.94
-0.65
-0.22
0.18
0.36
0.24
-0.19
-0.78
-1.34
-1.70
-1.80
-1.63
-1.28
-0.85
-0.40
0.04
0.45
0.84
1.16
1.38
1.46
1.41
1.23
0.98
0.70
0.42
0.15
-0.09
-0.29
-0.42
-0.45
-0.38
-0.24
-0.07
0.10
0.24
0.33
0.38
0.36
0.28
0.13
-0.09
-0.33
-0.55
-0.68
-0.68
-0.56
-0.37
-0.18
-0.04
0.01
-0.02
-0.12
-0.25
-0.40
-0.55
-0.68
-0.76
-0.75
-0.59
-0.32
0.03
0.36
0.58
0.69
0.70
0.68
0.62
0.50
0.27
-0.08
-0.47
-0.74
-0.76
-0.48
0.01
0.51
0.83
0.86
0.63
0.29
-0.01
-0.15
-0.12
0.04
0.27
0.50
0.66
0.70
0.55
0.21
-0.24
-0.67
-0.90
-0.84
-0.52
-0.09
0.27
0.42
0.32
0.06
-0.23
-0.44
-0.53
-0.50
-0.43
-0.36
-0.34
-0.35
-0.38
-0.38
-0.33
-0.19
0.03
0.30
0.56
0.73
0.78
0.69
0.51
0.29
0.08
-0.09
-0.18
-0.17
-0.07
0.14
0.39
0.60
0.70
0.63
0.40
0.10
-0.21
-0.44
-0.55
-0.56
-0.49
-0.37
-0.25
-0.14
-0.08
-0.05
-0.06
-0.09
-0.14
-0.20
-0.28
-0.33
-0.32
-0.18
0.09
0.41
0.69
0.85
0.86
0.74
0.56
0.39
0.26
0.16
0.09
0.06
0.09
0.16
0.23
0.24
0.13
-0.08
-0.34
-0.55
-0.64
-0.57
-0.37
-0.08
0.23
0.47
0.57
0.48
0.20
-0.18
-0.55
-0.74
-0.69
-0.39
0.03
0.39
0.57
0.49
0.18
-0.27
-0.77
-1.22
-1.56
-1.74
-1.70
-1.42
-0.91
-0.28
0.31
0.70
0.79
0.61
0.35
0.23
0.39
0.86
1.49
2.06
2.34
2.23
1.77
1.10
0.38
-0.21
-0.58
-0.70
-0.58
-0.30
0.03
0.27
0.36
0.26
0.03
-0.26
-0.53
-0.72
-0.82
-0.83
-0.76
-0.59
-0.39
-0.21
-0.19
-0.39
-0.82
-1.34
-1.73
-1.81
-1.47
-0.76
0.13
0.96
1.55
1.80
1.73
1.41
0.93
0.39
-0.10
-0.46
-0.61
-0.53
-0.29
0.02
0.26
0.35
0.27
0.09
-0.08
-0.15
-0.06
0.15
0.41
0.61
0.69
0.62
0.44
0.20
-0.03
-0.22
-0.35
-0.43
-0.45
-0.45
-0.41
-0.36
-0.33
-0.38
-0.52
-0.73
-0.96
-1.09
-1.05
-0.82
-0.42
0.04
0.45
0.73
0.84
0.80
0.64
0.45
0.28
0.18
0.17
0.22
0.27
0.28
0.24
0.20
0.23
0.38
0.64
0.91
1.12
1.19
1.11
0.96
0.77
0.56
0.32
0.01
-0.38
-0.80
-1.15
-1.37
-1.41
-1.31
-1.17
-1.06
-1.04
-1.08
-1.10
-1.01
-0.81
-0.57
-0.39
-0.31
-0.29
-0.22
-0.00
0.40
0.87
1.26
1.43
1.32
1.03
0.68
0.41
0.29
0.30
0.38
0.49
0.59
0.67
0.73
0.76
0.72
0.58
0.34
0.04
-0.23
-0.41
-0.47
-0.44
-0.37
-0.30
-0.25
-0.18
-0.11
-0.06
-0.11
-0.27
-0.52
-0.78
-0.95
-1.00
-0.96
-0.93
-0.93
-0.95
-0.89
-0.68
-0.34
0.06
0.38
0.53
0.54
0.50
0.50
0.60
0.75
0.84
0.81
0.65
0.44
0.30
0.31
0.50
0.79
1.07
1.23
1.22
1.04
0.74
0.40
0.07
-0.20
-0.39
-0.49
-0.51
-0.50
-0.50
-0.55
-0.66
-0.79
-0.87
-0.87
-0.80
-0.70
-0.63
-0.60
-0.59
-0.55
-0.44
-0.27
-0.10
0.03
0.13
0.24
0.40
0.63
0.88
1.05
1.07
0.91
0.62
0.31
0.08
0.03
0.17
0.42
0.67
0.77
0.64
0.28
-0.21
-0.66
-0.94
-1.01
-0.91
-0.75
-0.62
-0.56
-0.53
-0.52
-0.51
-0.49
-0.48
-0.49
-0.50
-0.54
-0.61
-0.72
-0.87
-1.05
-1.23
-1.44
-1.67
-1.98
-2.35
-2.72
-3.00
-3.08
-2.91
-2.51
-1.95
-1.33
-0.70
-0.10
0.47
1.01
1.53
2.04
2.54
3.02
3.48
3.87
4.14
4.21
4.05
3.66
3.12
2.53
2.02
1.66
1.45
1.37
1.35
1.36
1.37
1.39
1.40
1.38
1.31
1.18
0.97
0.66
0.25
-0.21
-0.67
-1.04
-1.27
-1.36
-1.40
-1.47
-1.62
-1.83
-2.04
-2.20
-2.32
-2.45
-2.64
-2.90
-3.14
-3.26
-3.16
-2.85
-2.40
-1.90
-1.42
-0.94
-0.40
0.24
0.98
1.75
2.47
3.08
3.57
3.98
4.35
4.67
4.92
5.06
5.04
4.84
4.43
3.82
3.02
2.08
1.05
0.01
-0.96
-1.77
-2.34
-2.64
-2.68
-2.53
-2.30
-2.11
-2.08
-2.23
-2.52
-2.82
-2.98
-2.91
-2.55
-1.95
-1.22
-0.51
0.03
0.30
0.24
-0.10
-0.62
-1.18
-1.64
-1.90
-1.87
-1.56
-1.00
-0.27
0.54
1.32
2.01
2.54
2.89
3.07
3.12
3.08
2.99
2.87
2.70
2.46
2.17
1.91
1.74
1.74
1.87
2.03
2.08
1.91
1.48
0.83
0.06
-0.74
-1.50
-2.19
-2.75
-3.18
-3.44
-3.56
-3.56
-3.53
-3.51
-3.49
-3.40
-3.12
-2.56
-1.70
-0.62
0.42
1.17
1.42
1.16
0.55
-0.13
-0.62
-0.81
-0.80
-0.76
-0.86
-1.14
-1.49
-1.72
-1.68
-1.37
-0.87
-0.37
-0.02
0.12
0.09
-0.05
-0.24
-0.43
-0.64
-0.85
-0.98
-0.97
-0.70
-0.17
0.56
1.33
1.97
2.34
2.38
2.12
1.68
1.19
0.79
0.58
0.58
0.75
1.02
1.27
1.43
1.44
1.29
0.99
0.61
0.21
-0.11
-0.26
-0.25
-0.10
0.09
0.24
0.34
0.38
0.44
0.50
0.53
0.43
0.17
-0.23
-0.67
-1.01
-1.17
-1.12
-0.91
-0.61
-0.27
0.09
0.43
0.71
0.86
0.85
0.67
0.38
0.07
-0.17
-0.28
-0.26
-0.15
-0.02
0.07
0.08
0.03
-0.02
-0.00
0.12
0.30
0.51
0.70
0.86
1.01
1.14
1.21
1.14
0.89
0.51
0.11
-0.13
-0.12
0.16
0.58
0.99
1.24
1.25
1.02
0.63
0.13
-0.44
-1.00
-1.52
-1.91
-2.12
-2.12
-1.96
-1.72
-1.47
-1.27
-1.13
-1.01
-0.90
-0.83
-0.81
-0.87
-0.96
-1.02
-0.97
-0.77
-0.45
-0.13
0.14
0.33
0.51
0.73
1.02
1.34
1.57
1.62
1.46
1.18
0.88
0.65
0.48
0.31
0.11
-0.10
-0.24
-0.24
-0.09
0.11
0.24
0.20
0.03
-0.15
-0.25
-0.23
-0.15
-0.13
-0.21
-0.35
-0.46
-0.47
-0.36
-0.24
-0.24
-0.39
-0.66
-0.89
-0.96
-0.78
-0.43
-0.03
0.26
0.39
0.37
0.31
0.30
0.37
0.50
0.59
0.53
0.32
-0.00
-0.30
-0.44
-0.34
-0.03
0.36
0.70
0.85
0.78
0.53
0.17
-0.21
-0.55
-0.81
-0.98
-1.09
-1.15
-1.20
-1.28
-1.43
-1.62
-1.82
-1.99
-2.09
-2.14
-2.16
-2.19
-2.20
-2.17
-2.08
-1.97
-1.91
-2.04
-2.40
-2.96
-3.58
-4.08
-4.34
-4.32
-4.13
-3.94
-3.92
-4.21
-4.81
-5.64
-6.57
-7.51
-8.32
-8.92
-9.29
-9.51
-9.77
-10.22
-10.98
-12.08
-13.48
-14.89
-16.01
-16.64
-16.72
-16.37
-15.66
-14.64
-13.26
-11.44
-8.88
-5.32
-0.72
4.65
10.29
15.73
20.57
24.65
27.93
30.89
34.12
38.07
42.86
48.34
54.26
60.34
66.33
69.71
68.34
61.34
49.82
36.28
23.11
11.85
3.02
-3.50
-8.20
-11.29
-12.87
-12.92
-11.50
-8.87
-5.48
-2.11
0.42
1.23
-0.05
-3.30
-7.94
-13.17
-18.35
-22.99
-27.08
-30.70
-34.12
-37.46
-40.77
-44.09
-47.52
-51.08
-53.42
-54.11
-52.37
-47.48
-39.26
-28.43
-16.52
-5.41
3.39
9.21
12.08
12.84
12.45
11.70
11.12
10.91
11.16
11.88
13.05
14.48
16.09
17.74
19.25
20.42
21.08
21.13
20.57
19.51
18.03
16.26
14.34
12.32
10.28
8.36
6.72
5.56
5.07
5.28
6.18
7.62
9.28
10.76
11.61
11.52
10.45
8.59
6.28
3.93
1.84
0.10
-1.41
-2.83
-4.15
-5.17
-5.64
-5.37
-4.46
-3.22
-2.08
-1.33
-1.01
-0.91
-0.73
-0.24
0.54
1.41
2.09
2.32
2.03
1.31
0.38
-0.58
-1.48
-2.37
-3.47
-4.95
-6.91
-9.20
-11.45
-13.16
-13.89
-13.42
-11.91
-9.79
-7.60
-5.78
-4.47
-3.58
-2.86
-2.12
-1.26
-0.33
0.52
1.16
1.50
1.53
1.31
0.96
0.57
0.21
-0.12
-0.50
-1.01
-1.71
-2.55
-3.38
-4.01
-4.34
-4.39
-4.29
-4.23
-4.31
-4.46
-4.54
-4.36
-3.87
-3.17
-2.48
-1.98
-1.77
-1.77
-1.83
-1.82
-1.67
-1.44
-1.20
-0.97
-0.75
-0.48
-0.11
0.32
0.76
1.13
1.40
1.57
1.65
1.66
1.61
1.51
1.36
1.19
1.00
0.86
0.79
0.81
0.88
0.90
0.79
0.48
0.01
-0.53
-0.99
-1.29
-1.36
-1.23
-0.97
-0.60
-0.15
0.36
0.85
1.22
1.37
1.26
0.96
0.61
0.37
0.30
0.39
0.57
0.74
0.87
0.96
1.04
1.07
0.98
0.71
0.19
-0.51
-1.27
-1.94
-2.43
-2.73
-2.89
-2.99
-3.06
-3.10
-3.07
-2.94
-2.78
-2.69
-2.77
-3.10
-3.62
-4.20
-4.65
-4.79
-4.53
-3.87
-2.86
-1.61
-0.21
1.29
2.88
4.52
6.12
7.57
8.70
9.31
9.20
8.23
6.32
3.53
0.09
-3.60
-7.10
-10.00
-12.12
-13.50
-14.36
-15.03
-15.73
-16.51
-17.26
-17.76
-17.81
-17.32
-16.31
-14.87
-13.11
-11.12
-8.91
-6.44
-3.57
-0.21
3.64
7.82
11.97
15.65
18.42
19.97
20.13
18.94
16.53
13.10
8.92
4.30
-0.38
-4.72
-8.43
-11.34
-13.47
-14.95
-15.93
-16.49
-16.61
-16.21
-15.24
-13.73
-11.76
-9.55
-7.34
-5.36
-3.72
-2.43
-1.34
-0.24
1.06
2.58
4.15
5.49
6.33
6.55
6.22
5.50
4.52
3.29
1.75
-0.17
-2.35
-4.53
-6.30
-7.33
-7.43
-6.64
-5.15
-3.26
-1.29
0.51
1.99
3.08
3.81
4.25
4.50
4.66
4.80
4.94
5.08
5.24
5.44
5.69
6.01
6.39
6.80
7.15
7.30
7.15
6.66
5.89
5.00
4.15
3.54
3.27
3.23
3.20
2.94
2.37
1.55
0.64
-0.26
-0.87
-0.93
-0.37
0.74
2.26
4.09
6.16
8.39
10.69
13.32
16.54
20.40
24.57
28.52
31.80
34.12
35.39
35.61
35.44
35.62
36.67
38.71
41.64
45.38
49.85
54.93
57.13
53.87
44.56
31.03
15.93
0.99
-13.19
-26.58
-39.10
-50.40
-59.82
-66.75
-70.73
-71.57
-69.45
-64.63
-57.58
-49.05
-40.15
-31.66
-23.90
-17.36
-12.29
-8.61
-5.70
-2.57
1.80
8.02
16.24
25.62
34.41
40.32
41.42
37.32
29.49
20.66
13.70
10.74
12.55
17.86
24.14
28.03
26.82
19.67
7.57
-7.19
-21.53
-33.57
-41.77
-45.43
-44.98
-41.69
-37.15
-32.18
-27.39
-23.61
-21.15
-19.58
-18.32
-17.07
-15.79
-14.59
-13.58
-13.06
-13.16
-14.03
-15.54
-17.49
-19.47
-20.93
-21.21
-19.85
-16.76
-12.38
-7.46
-2.68
1.41
4.59
6.97
8.86
10.58
12.23
13.79
15.11
16.11
16.70
16.79
16.41
15.59
14.43
13.03
11.51
9.96
8.48
7.10
5.81
4.61
3.51
2.59
1.91
1.51
1.40
1.53
1.82
2.18
2.53
2.84
3.10
3.29
3.37
3.33
3.15
2.85
2.50
2.15
1.84
1.55
1.27
0.95
0.64
0.39
0.30
0.39
0.62
0.84
0.89
0.63
0.04
-0.80
-1.69
-2.44
-2.93
-3.16
-3.24
-3.31
-3.53
-3.92
-4.42
-4.92
-5.29
-5.48
-5.47
-5.29
-4.97
-4.53
-4.03
-3.55
-3.19
-3.03
-3.12
-3.46
-4.00
-4.63
-5.22
-5.63
-5.75
-5.53
-4.93
-3.92
-2.50
-0.65
1.56
4.02
6.57
9.00
11.07
12.60
13.41
13.43
12.66
11.23
9.43
7.53
5.83
4.44
3.38
2.54
1.82
1.19
0.63
0.20
-0.08
-0.21
-0.21
-0.07
0.18
0.55
0.97
1.38
1.67
1.76
1.66
1.40
1.12
0.93
0.93
1.13
1.45
1.79
2.07
2.24
2.32
2.36
2.40
2.44
2.46
2.43
2.33
2.16
1.94
1.68
1.43
1.24
1.14
1.12
1.13
1.10
0.97
0.73
0.42
0.08
-0.25
-0.56
-0.84
-1.06
-1.17
-1.12
-0.90
-0.55
-0.16
0.16
0.35
0.39
0.32
0.19
0.10
0.15
0.41
0.91
1.53
2.12
2.49
2.53
2.24
1.75
1.25
0.95
0.92
1.13
1.45
1.76
1.97
2.06
2.06
2.00
1.88
1.69
1.42
1.14
0.90
0.76
0.72
0.72
0.70
0.62
0.45
0.24
-0.03
-0.34
-0.71
-1.10
-1.38
-1.43
-1.18
-0.68
-0.11
0.34
0.53
0.50
0.36
0.25
0.27
0.41
0.61
0.81
0.99
1.16
1.37
1.64
1.98
2.34
2.66
2.84
2.80
2.46
1.83
0.98
0.09
-0.63
-1.00
-0.95
-0.54
0.05
0.58
0.88
0.89
0.70
0.46
0.32
0.33
0.40
0.38
0.16
-0.25
-0.68
-0.94
-0.89
-0.54
-0.04
0.46
0.81
1.03
1.19
1.37
1.57
1.72
1.73
1.59
1.39
1.25
1.26
1.44
1.71
1.94
2.04
2.00
1.86
1.69
1.53
1.40
1.27
1.16
1.09
1.06
1.10
1.20
1.34
1.47
1.54
1.47
1.22
0.83
0.39
0.04
-0.12
-0.11
-0.02
-0.00
-0.15
-0.46
-0.87
-1.24
-1.47
-1.55
-1.48
-1.30
-1.04
-0.66
-0.18
0.36
0.83
1.14
1.21
1.09
0.91
0.83
0.96
1.27
1.57
1.68
1.46
0.95
0.34
-0.13
-0.30
-0.15
0.18
0.52
0.75
0.86
0.92
1.01
1.16
1.32
1.41
1.36
1.19
0.96
0.78
0.70
0.74
0.81
0.80
0.62
0.21
-0.34
-0.92
-1.37
-1.59
-1.55
-1.29
-0.95
-0.61
-0.35
-0.16
0.02
0.24
0.50
0.75
0.93
0.97
0.90
0.76
0.64
0.55
0.53
0.53
0.54
0.54
0.54
0.54
0.54
0.51
0.46
0.38
0.28
0.19
0.10
0.00
-0.10
-0.19
-0.22
-0.17
-0.05
0.07
0.09
-0.03
-0.30
-0.61
-0.85
-0.92
-0.82
-0.62
-0.42
-0.29
-0.22
-0.14
-0.01
0.19
0.38
0.48
0.44
0.28
0.05
-0.14
-0.22
-0.17
0.01
0.28
0.58
0.87
1.10
1.23
1.25
1.19
1.05
0.88
0.69
0.48
0.24
-0.04
-0.34
-0.60
-0.78
-0.83
-0.77
-0.63
-0.47
-0.31
-0.13
0.09
0.36
0.62
0.81
0.84
0.70
0.42
0.10
-0.19
-0.40
-0.53
-0.57
-0.50
-0.28
0.05
0.40
0.63
0.60
0.29
-0.19
-0.62
-0.81
-0.70
-0.39
-0.08
0.03
-0.09
-0.34
-0.51
-0.45
-0.12
0.38
0.88
1.23
1.39
1.37
1.22
0.97
0.62
0.19
-0.27
-0.67
-0.91
-0.98
-0.92
-0.83
-0.82
-0.92
-1.09
-1.25
-1.30
-1.18
-0.94
-0.66
-0.44
-0.33
-0.32
-0.33
-0.29
-0.19
-0.09
-0.08
-0.19
-0.38
-0.51
-0.49
-0.31
-0.06
0.12
0.13
-0.00
-0.16
-0.21
-0.13
0.04
0.16
0.14
0.02
-0.14
-0.21
-0.17
-0.04
0.09
0.17
0.22
0.28
0.45
0.70
0.96
1.09
0.97
0.55
-0.10
-0.79
-1.34
-1.61
-1.59
-1.39
-1.18
-1.09
-1.16
-1.33
-1.47
-1.49
-1.40
-1.26
-1.15
-1.12
-1.10
-0.98
-0.68
-0.23
0.27
0.67
0.87
0.87
0.80
0.78
0.90
1.15
1.41
1.58
1.63
1.60
1.57
1.59
1.61
1.55
1.34
1.02
0.67
0.43
0.35
0.39
0.46
0.48
0.42
0.30
0.21
0.16
0.17
0.17
0.09
-0.13
-0.46
-0.84
-1.19
-1.43
-1.53
-1.52
-1.44
-1.32
-1.14
-0.87
-0.48
-0.02
0.40
0.64
0.64
0.42
0.08
-0.24
-0.47
-0.60
-0.68
-0.78
-0.90
-1.03
-1.12
-1.14
-1.06
-0.87
-0.59
-0.28
0.02
0.23
0.35
0.36
0.33
0.29
0.28
0.28
0.26
0.18
0.06
-0.08
-0.17
-0.20
-0.15
-0.10
-0.10
-0.20
-0.39
-0.57
-0.67
-0.62
-0.44
-0.22
-0.06
-0.03
-0.13
-0.33
-0.56
-0.79
-1.01
-1.18
-1.26
-1.22
-1.07
-0.87
-0.72
-0.68
-0.76
-0.86
-0.87
-0.71
-0.39
0.01
0.38
0.61
0.65
0.50
0.19
-0.21
-0.62
-0.97
-1.20
-1.27
-1.19
-0.98
-0.71
-0.46
-0.32
-0.35
-0.53
-0.76
-0.88
-0.76
-0.36
0.23
0.80
1.17
1.20
0.90
0.38
-0.23
-0.80
-1.22
-1.41
-1.33
-1.02
-0.56
-0.11
0.19
0.26
0.11
-0.15
-0.39
-0.51
-0.46
-0.28
-0.05
0.12
0.15
0.01
-0.27
-0.62
-0.90
-1.04
-1.01
-0.86
-0.72
-0.69
-0.80
-1.01
-1.18
-1.18
-0.96
-0.59
-0.18
0.13
0.28
0.27
0.18
0.05
-0.08
-0.23
-0.40
-0.57
-0.71
-0.75
-0.64
-0.40
-0.10
0.20
0.44
0.59
0.64
0.63
0.56
0.47
0.38
0.27
0.13
-0.07
-0.31
-0.53
-0.66
-0.60
-0.36
-0.00
0.35
0.58
0.62
0.49
0.26
0.02
-0.17
-0.28
-0.31
-0.22
-0.02
0.24
0.48
0.60
0.54
0.37
0.16
0.03
0.05
0.19
0.35
0.46
0.43
0.27
0.01
-0.28
-0.52
-0.65
-0.65
-0.50
-0.23
0.08
0.37
0.57
0.67
0.64
0.49
0.22
-0.14
-0.51
-0.80
-0.94
-0.91
-0.72
-0.47
-0.23
-0.04
0.09
0.19
0.25
0.30
0.32
0.33
0.31
0.28
0.20
0.06
-0.17
-0.47
-0.75
-0.94
-1.00
-0.93
-0.83
-0.77
-0.82
-0.94
-1.04
-1.02
-0.80
-0.43
0.03
0.46
0.75
0.88
0.87
0.79
0.73
0.70
0.70
0.66
0.52
0.25
-0.12
-0.49
-0.75
-0.80
-0.61
-0.24
0.21
0.60
0.85
0.93
0.91
0.86
0.83
0.79
0.68
0.41
-0.01
-0.48
-0.85
-1.01
-1.00
-0.93
-0.97
-1.18
-1.52
-1.83
-1.96
-1.85
-1.51
-1.04
-0.58
-0.19
0.12
0.38
0.61
0.78
0.85
0.76
0.50
0.12
-0.29
-0.61
-0.78
-0.78
-0.63
-0.41
-0.15
0.10
0.30
0.43
0.47
0.40
0.26
0.08
-0.09
-0.20
-0.25
-0.26
-0.24
-0.21
-0.17
-0.12
-0.08
-0.07
-0.11
-0.19
-0.26
-0.28
-0.25
-0.18
-0.11
-0.08
-0.12
-0.21
-0.36
-0.52
-0.68
-0.77
-0.74
-0.55
-0.21
0.22
0.64
0.92
1.00
0.87
0.60
0.28
-0.01
-0.18
-0.22
-0.15
-0.01
0.11
0.17
0.13
0.01
-0.13
-0.22
-0.23
-0.18
-0.10
-0.01
0.07
0.18
0.30
0.36
0.24
-0.11
-0.68
-1.35
-1.92
-2.25
-2.29
-2.09
-1.76
-1.40
-1.04
-0.65
-0.19
0.34
0.88
1.34
1.65
1.74
1.62
1.34
0.97
0.61
0.36
0.26
0.28
0.35
0.38
0.30
0.11
-0.15
-0.41
-0.58
-0.59
-0.40
-0.03
0.39
0.74
0.87
0.75
0.39
-0.06
-0.44
-0.62
-0.58
-0.42
-0.28
-0.29
-0.49
-0.81
-1.10
-1.26
-1.23
-1.05
-0.84
-0.64
-0.48
-0.27
0.07
0.58
1.16
1.64
1.84
1.66
1.15
0.48
-0.14
-0.56
-0.73
-0.72
-0.59
-0.39
-0.16
0.11
0.37
0.55
0.54
0.32
-0.09
-0.58
-0.99
-1.21
-1.20
-1.00
-0.68
-0.36
-0.09
0.12
0.25
0.31
0.27
0.13
-0.13
-0.45
-0.75
-0.91
-0.89
-0.71
-0.47
-0.31
-0.27
-0.33
-0.40
-0.38
-0.25
-0.06
0.06
0.01
-0.18
-0.40
-0.51
-0.42
-0.15
0.15
0.35
0.34
0.19
0.03
-0.05
0.01
0.10
0.14
0.04
-0.14
-0.29
-0.29
-0.13
0.11
0.29
0.30
0.11
-0.18
-0.46
-0.64
-0.71
-0.69
-0.64
-0.56
-0.46
-0.30
-0.08
0.16
0.33
0.38
0.30
0.15
0.01
-0.04
-0.01
0.05
0.10
0.09
0.06
0.03
0.05
0.10
0.15
0.16
0.14
0.13
0.17
0.26
0.36
0.39
0.33
0.21
0.10
0.09
0.19
0.38
0.55
0.63
0.58
0.41
0.17
-0.08
-0.29
-0.47
-0.67
-0.95
-1.30
-1.69
-2.01
-2.16
-2.11
-1.86
-1.48
-1.03
-0.59
-0.22
0.05
0.17
0.14
0.00
-0.14
-0.19
-0.09
0.13
0.36
0.52
0.58
0.58
0.58
0.60
0.61
0.54
0.34
0.05
-0.25
-0.45
-0.47
-0.34
-0.17
-0.06
-0.07
-0.17
-0.27
-0.29
-0.19
-0.05
0.06
0.04
-0.15
-0.48
-0.89
-1.30
-1.60
-1.74
-1.70
-1.47
-1.13
-0.73
-0.34
0.04
0.40
0.74
1.01
1.12
0.99
0.61
0.06
-0.52
-0.97
-1.20
-1.21
-1.07
-0.88
-0.72
-0.64
-0.66
-0.80
-1.08
-1.48
-1.99
-2.56
-3.12
-3.59
-3.89
-4.03
-4.04
-4.03
-4.13
-4.41
-4.87
-5.41
-5.88
-6.10
-5.92
-5.21
-3.89
-1.99
0.30
2.67
4.71
6.11
6.78
6.90
6.86
7.07
7.78
9.05
10.75
12.66
14.62
16.52
18.29
19.84
21.05
21.73
21.71
20.85
19.06
16.37
12.86
8.74
4.28
-0.18
-4.34
-7.93
-10.80
-12.92
-14.36
-15.25
-15.66
-15.65
-15.24
-14.42
-13.24
-11.74
-9.94
-7.82
-5.30
-2.33
1.04
4.54
7.76
10.22
11.54
11.60
10.48
8.48
5.98
3.34
0.81
-1.47
-3.49
-5.27
-6.89
-8.39
-9.75
-10.89
-11.73
-12.19
-12.24
-11.88
-11.12
-9.96
-8.44
-6.62
-4.65
-2.73
-1.04
0.30
1.28
1.95
2.35
2.49
2.37
1.98
1.39
0.72
0.09
-0.42
-0.82
-1.14
-1.43
-1.68
-1.84
-1.83
-1.64
-1.30
-0.92
-0.61
-0.41
-0.33
-0.32
-0.34
-0.35
-0.35
-0.35
-0.36
-0.38
-0.37
-0.33
-0.25
-0.15
-0.03
0.11
0.29
0.51
0.72
0.88
0.92
0.83
0.65
0.44
0.25
0.12
0.02
-0.07
-0.16
-0.24
-0.29
-0.28
-0.22
-0.18
-0.22
-0.37
-0.61
-0.84
-0.99
-1.00
-0.86
-0.64
-0.37
-0.08
0.24
0.58
0.92
1.15
1.17
0.94
0.51
0.03
-0.30
-0.38
-0.18
0.20
0.58
0.84
0.88
0.73
0.45
0.19
0.03
0.01
0.11
0.26
0.41
0.53
0.63
0.69
0.70
0.66
0.55
0.38
0.18
-0.01
-0.15
-0.25
-0.30
-0.32
-0.28
-0.19
-0.08
0.05
0.15
0.21
0.26
0.30
0.31
0.26
0.11
-0.12
-0.38
-0.54
-0.53
-0.35
-0.10
0.09
0.16
0.10
0.01
-0.02
0.08
0.25
0.40
0.47
0.46
0.41
0.41
0.52
0.73
0.99
1.19
1.25
1.12
0.81
0.39
-0.03
-0.33
-0.48
-0.49
-0.41
-0.31
-0.17
0.04
0.38
0.86
1.42
1.90
2.14
2.11
1.83
1.45
1.12
0.91
0.82
0.79
0.75
0.70
0.67
0.69
0.74
0.78
0.76
0.67
0.55
0.50
0.56
0.69
0.78
0.72
0.47
0.08
-0.31
-0.55
-0.59
-0.42
-0.15
0.11
0.26
0.26
0.07
-0.26
-0.66
-0.99
-1.15
-1.07
-0.77
-0.36
0.03
0.28
0.37
0.36
0.34
0.37
0.42
0.42
0.32
0.13
-0.06
-0.15
-0.06
0.20
0.53
0.80
0.91
0.80
0.54
0.22
-0.03
-0.14
-0.11
0.01
0.14
0.22
0.24
0.24
0.26
0.29
0.28
0.17
-0.04
-0.32
-0.56
-0.68
-0.68
-0.63
-0.63
-0.73
-0.86
-0.90
-0.74
-0.36
0.18
0.72
1.10
1.26
1.22
1.11
1.05
1.09
1.21
1.33
1.38
1.33
1.26
1.23
1.27
1.36
1.40
1.32
1.08
0.74
0.41
0.19
0.13
0.16
0.17
0.07
-0.16
-0.47
-0.74
-0.86
-0.81
-0.67
-0.54
-0.53
-0.66
-0.88
-1.08
-1.17
-1.11
-0.95
-0.75
-0.57
-0.41
-0.26
-0.09
0.12
0.35
0.52
0.60
0.57
0.50
0.46
0.51
0.68
0.89
1.07
1.13
1.08
0.95
0.77
0.59
0.37
0.12
-0.17
-0.44
-0.62
-0.69
-0.65
-0.56
-0.44
-0.31
-0.19
-0.09
-0.12
-0.32
-0.71
-1.15
-1.47
-1.51
-1.27
-0.85
-0.44
-0.21
-0.21
-0.37
-0.60
-0.79
-0.92
-0.99
-0.96
-0.81
-0.51
-0.10
0.33
0.63
0.73
0.67
0.58
0.59
0.77
1.06
1.30
1.35
1.12
0.68
0.15
-0.32
-0.68
-0.93
-1.12
-1.26
-1.32
-1.22
-0.93
-0.48
0.01
0.40
0.60
0.59
0.43
0.21
0.00
-0.18
-0.34
-0.50
-0.62
-0.66
-0.58
-0.37
-0.09
0.22
0.49
0.70
0.81
0.82
0.73
0.54
0.30
0.08
-0.09
-0.17
-0.19
-0.18
-0.14
-0.10
-0.07
-0.05
-0.11
-0.25
-0.45
-0.64
-0.71
-0.57
-0.23
0.20
0.58
0.78
0.75
0.57
0.33
0.13
-0.01
-0.13
-0.27
-0.47
-0.70
-0.94
-1.13
-1.26
-1.33
-1.32
-1.23
-1.05
-0.77
-0.46
-0.18
-0.01
0.06
0.10
0.23
0.55
1.04
1.57
1.95
2.01
1.72
1.17
0.57
0.11
-0.12
-0.11
0.05
0.26
0.48
0.70
0.91
1.05
1.06
0.89
0.54
0.08
-0.39
-0.79
-1.04
-1.14
-1.08
-0.90
-0.61
-0.28
0.05
0.31
0.47
0.51
0.44
0.25
-0.06
-0.43
-0.79
-1.02
-1.02
-0.71
-0.17
0.45
0.95
1.14
0.97
0.54
0.04
-0.36
-0.52
-0.46
-0.27
-0.07
0.09
0.18
0.27
0.40
0.54
0.65
0.66
0.54
0.34
0.14
0.01
-0.01
0.03
0.07
0.07
0.05
0.07
0.19
0.41
0.65
0.80
0.75
0.43
-0.10
-0.74
-1.32
-1.67
-1.69
-1.34
-0.69
0.06
0.70
1.03
0.96
0.53
-0.08
-0.64
-0.98
-1.00
-0.74
-0.30
0.16
0.55
0.80
0.88
0.81
0.64
0.44
0.27
0.16
0.14
0.15
0.17
0.15
0.08
-0.01
-0.12
-0.24
-0.39
-0.55
-0.73
-0.86
-0.89
-0.79
-0.61
-0.43
-0.35
-0.43
-0.66
-0.97
-1.22
-1.29
-1.11
-0.70
-0.15
0.41
0.87
1.19
1.36
1.40
1.35
1.21
1.00
0.80
0.68
0.72
0.95
1.26
1.49
1.48
1.15
0.58
-0.06
-0.60
-0.93
-1.06
-1.07
-1.03
-0.95
-0.82
-0.62
-0.38
-0.22
-0.23
-0.46
-0.84
-1.19
-1.36
-1.23
-0.86
-0.41
-0.08
0.01
-0.15
-0.41
-0.55
-0.44
-0.04
0.52
1.02
1.30
1.26
1.01
0.71
0.51
0.48
0.56
0.62
0.55
0.33
0.05
-0.18
-0.26
-0.18
-0.03
0.07
0.03
-0.17
-0.42
-0.62
-0.64
-0.47
-0.15
0.19
0.46
0.62
0.67
0.69
0.72
0.79
0.86
0.85
0.71
0.41
0.00
-0.43
-0.78
-0.98
-1.01
-0.90
-0.68
-0.42
-0.18
-0.02
0.02
-0.04
-0.18
-0.36
-0.52
-0.64
-0.70
-0.68
-0.56
-0.30
0.08
0.55
0.99
1.32
1.47
1.43
1.26
1.06
0.89
0.74
0.59
0.38
0.11
-0.20
-0.45
-0.55
-0.47
-0.20
0.17
0.49
0.61
0.48
0.13
-0.34
-0.79
-1.12
-1.34
-1.46
-1.52
-1.49
-1.30
-0.91
-0.33
0.36
1.00
1.44
1.60
1.46
1.09
0.59
0.08
-0.33
-0.55
-0.56
-0.35
0.01
0.42
0.79
1.01
1.02
0.81
0.42
-0.05
-0.47
-0.74
-0.84
-0.78
-0.66
-0.57
-0.53
-0.54
-0.55
-0.53
-0.47
-0.41
-0.39
-0.44
-0.54
-0.63
-0.66
-0.58
-0.41
-0.21
-0.02
0.10
0.18
0.23
0.28
0.33
0.37
0.38
0.38
0.37
0.38
0.38
0.37
0.33
0.28
0.27
0.32
0.43
0.52
0.53
0.37
0.08
-0.26
-0.51
-0.57
-0.40
-0.07
0.29
0.53
0.59
0.46
0.23
-0.03
-0.26
-0.45
-0.58
-0.64
-0.61
-0.51
-0.38
-0.29
-0.34
-0.50
-0.70
-0.80
-0.69
-0.33
0.16
0.62
0.92
1.00
0.92
0.80
0.71
0.66
0.61
0.52
0.37
0.24
0.17
0.23
0.36
0.47
0.47
0.31
0.01
-0.33
-0.62
-0.79
-0.86
-0.87
-0.89
-0.90
-0.88
-0.76
-0.53
-0.24
-0.01
0.08
-0.03
-0.30
-0.61
-0.84
-0.91
-0.81
-0.63
-0.44
-0.32
-0.27
-0.27
-0.28
-0.28
-0.26
-0.22
-0.16
-0.05
0.09
0.25
0.35
0.35
0.25
0.09
-0.04
-0.05
0.11
0.41
0.75
1.03
1.17
1.18
1.10
1.01
0.94
0.92
0.93
0.91
0.79
0.52
0.13
-0.32
-0.70
-0.89
-0.86
-0.68
-0.52
-0.54
-0.82
-1.30
-1.80
-2.13
-2.21
-2.06
-1.79
-1.49
-1.18
-0.81
-0.30
0.33
1.00
1.58
1.97
2.13
2.14
2.05
1.92
1.70
1.35
0.88
0.37
-0.04
-0.21
-0.11
0.22
0.64
1.02
1.22
1.19
0.93
0.52
0.10
-0.16
-0.17
0.04
0.35
0.54
0.46
0.08
-0.46
-0.98
-1.34
-1.52
-1.61
-1.70
-1.81
-1.90
-1.88
-1.68
-1.33
-0.92
-0.56
-0.29
-0.12
-0.01
0.09
0.22
0.36
0.50
0.60
0.64
0.61
0.49
0.33
0.15
-0.03
-0.22
-0.49
-0.84
-1.28
-1.70
-1.99
-2.07
-1.92
-1.60
-1.20
-0.82
-0.52
-0.27
-0.06
0.12
0.24
0.24
0.08
-0.24
-0.67
-1.11
-1.45
-1.67
-1.84
-2.07
-2.46
-2.97
-3.48
-3.86
-3.97
-3.80
-3.51
-3.35
-3.56
-4.20
-5.16
-6.30
-7.49
-8.58
-9.41
-9.91
-10.13
-10.18
-10.20
-10.31
-10.57
-11.04
-11.47
-11.51
-10.94
-9.84
-8.57
-7.53
-6.88
-6.46
-5.84
-4.10
-0.19
6.61
16.36
28.46
41.94
55.77
68.96
78.58
81.67
76.56
64.16
47.41
29.60
13.19
-0.39
-10.61
-17.58
-21.52
-22.73
-21.59
-18.75
-15.00
-11.19
-8.05
-6.09
-5.55
-6.05
-6.85
-7.24
-7.07
-6.85
-7.51
-9.82
-13.99
-19.40
-24.68
-28.28
-29.19
-27.31
-23.39
-18.53
-13.66
-9.28
-5.58
-2.47
0.17
2.40
4.29
5.93
7.48
9.04
10.56
11.70
12.05
11.31
9.41
6.54
3.12
-0.42
-3.76
-6.65
-8.90
-10.39
-10.98
-10.59
-9.32
-7.40
-5.22
-3.16
-1.47
-0.21
0.76
1.72
2.82
4.10
5.42
6.59
7.47
8.01
8.18
8.07
7.83
7.50
7.07
6.48
5.69
4.75
3.79
2.81
1.98
1.43
1.23
1.27
1.38
1.32
0.88
-0.12
-1.99
-4.76
-8.27
-12.31
-16.61
-20.86
-24.78
-28.13
-29.50
-29.01
-27.05
-23.92
-19.66
-14.08
-7.13
0.83
8.91
15.85
20.29
21.69
20.40
17.49
14.18
11.33
9.13
7.23
5.20
2.67
-0.14
-2.79
-4.83
-6.12
-6.80
-7.18
-7.44
-7.55
-7.32
-6.39
-4.51
-1.71
1.66
5.14
8.17
10.40
11.70
12.13
11.81
10.86
9.33
7.26
4.80
2.26
0.05
-1.48
-2.21
-2.23
-1.87
-1.47
-1.29
-1.42
-1.78
-2.25
-2.72
-3.14
-3.58
-4.14
-4.90
-5.92
-7.14
-8.43
-9.62
-10.55
-11.15
-11.43
-11.57
-11.70
-11.94
-12.24
-12.44
-12.28
-11.74
-10.78
-9.43
-7.81
-6.10
-4.46
-3.00
-1.75
-0.72
0.09
0.69
1.11
1.33
1.40
1.43
1.54
1.86
2.45
3.27
4.22
5.10
5.76
6.08
6.04
5.70
5.19
4.61
4.07
3.62
3.30
3.09
2.98
2.97
3.03
3.13
3.22
3.21
3.06
2.75
2.35
1.97
1.75
1.77
2.04
2.46
2.90
3.27
3.53
3.75
3.98
4.29
4.63
4.95
5.19
5.37
5.56
5.84
6.21
6.61
6.88
6.90
6.61
6.08
5.43
4.77
4.19
3.67
3.21
2.79
2.42
2.11
1.86
1.61
1.34
1.02
0.65
0.24
-0.19
-0.66
-1.14
-1.59
-1.94
-2.16
-2.22
-2.16
-2.03
-1.86
-1.64
-1.38
-1.07
-0.75
-0.46
-0.26
-0.17
-0.19
-0.28
-0.36
-0.36
-0.23
0.04
0.39
0.67
0.70
0.39
-0.24
-1.05
-1.87
-2.60
-3.26
-3.95
-4.76
-5.68
-6.56
-7.23
-7.56
-7.53
-7.27
-6.87
-6.43
-5.95
-5.42
-4.81
-4.12
-3.32
-2.33
-1.07
0.50
2.36
4.32
6.17
7.72
8.87
9.60
9.95
9.92
9.55
8.82
7.83
6.69
5.58
4.63
3.88
3.28
2.75
2.25
1.79
1.42
1.21
1.11
1.02
0.76
0.20
-0.67
-1.68
-2.54
-3.00
-2.93
-2.37
-1.53
-0.66
0.08
0.61
0.98
1.26
1.48
1.64
1.73
1.74
1.72
1.72
1.81
1.99
2.21
2.40
2.50
2.54
2.54
2.56
2.64
2.72
2.74
2.64
2.42
2.16
1.99
1.98
2.09
2.20
2.15
1.84
1.30
0.69
0.18
-0.15
-0.32
-0.42
-0.53
-0.63
-0.60
-0.31
0.30
1.17
2.16
3.08
3.79
4.24
4.40
4.28
3.91
3.38
2.78
2.29
2.05
2.16
2.58
3.20
3.89
4.52
5.02
5.37
5.57
5.62
5.50
5.22
4.78
4.19
3.44
2.49
1.35
0.06
-1.26
-2.47
-3.43
-4.05
-4.31
-4.25
-3.96
-3.54
-3.08
-2.67
-2.35
-2.09
-1.82
-1.45
-0.90
-0.19
0.58
1.26
1.75
2.01
2.10
2.11
2.10
2.05
1.93
1.71
1.40
1.09
0.87
0.80
0.83
0.84
0.69
0.32
-0.22
-0.80
-1.23
-1.43
-1.43
-1.39
-1.45
-1.70
-2.09
-2.44
-2.60
-2.49
-2.20
-1.89
-1.76
-1.88
-2.18
-2.51
-2.72
-2.71
-2.52
-2.23
-1.92
-1.64
-1.39
-1.09
-0.65
-0.03
0.79
1.77
2.79
3.79
4.66
5.37
5.92
6.31
6.58
6.77
6.94
7.21
7.71
8.52
9.69
11.16
12.83
14.58
16.34
18.16
20.09
22.14
24.20
26.04
27.45
28.35
28.85
29.31
30.23
32.05
35.06
39.36
44.87
51.34
58.27
64.70
69.37
70.88
68.02
60.10
47.18
30.12
10.38
-10.34
-30.49
-48.72
-63.92
-75.33
-82.65
-86.01
-85.89
-82.95
-77.99
-71.92
-65.48
-59.13
-53.05
-47.32
-41.94
-36.96
-32.57
-28.10
-23.59
-19.36
-15.46
-11.49
-7.06
-2.19
2.51
6.24
8.11
8.16
7.07
5.81
5.04
4.79
4.60
4.01
3.04
2.19
1.85
2.37
3.87
6.01
8.05
9.25
9.28
9.28
9.85
11.16
13.21
15.16
16.53
16.54
14.29
9.59
2.87
-5.84
-16.37
-28.15
-38.41
-44.06
-43.44
-37.45
-31.60
-27.36
-25.30
-25.61
-26.86
-28.34
-29.47
-29.92
-29.55
-28.27
-25.44
-21.09
-15.42
-8.83
-1.89
5.07
11.97
18.77
25.45
32.39
39.01
44.14
46.06
43.04
34.39
20.76
3.78
-14.37
-30.80
-43.70
-50.05
-48.12
-39.38
-27.45
-15.50
-4.77
4.57
14.80
27.06
41.13
55.50
68.37
77.49
81.46
79.67
69.90
53.27
33.75
16.44
4.68
-2.61
-7.01
-9.64
-10.68
-10.56
-9.41
-7.80
-6.52
-6.39
-7.62
-9.30
-10.00
-8.65
-5.13
0.17
6.12
11.42
15.18
17.34
18.91
21.18
25.12
31.01
38.91
48.63
59.88
72.26
85.08
97.20
106.81
111.58
109.29
98.72
79.87
53.89
22.78
-11.06
-44.90
-75.92
-101.43
-119.32
-128.53
-129.55
-124.44
-116.16
-107.65
-100.93
-96.76
-94.78
-94.02
-93.33
-91.74
-88.58
-83.57
-76.82
-68.80
-60.17
-51.52
-43.16
-35.04
-26.91
-18.57
-10.03
-1.60
6.26
13.08
18.47
22.24
24.44
25.41
25.82
26.68
29.15
34.24
42.39
53.16
65.16
76.37
84.68
88.48
87.10
80.67
69.91
55.61
38.46
19.14
-1.42
-21.92
-40.77
-56.54
-68.34
-76.06
-80.19
-81.51
-80.65
-77.86
-73.23
-66.83
-58.98
-50.29
-41.54
-33.42
-26.39
-20.64
-16.13
-12.72
-10.23
-8.44
-7.04
-5.65
-3.79
-0.93
3.33
9.15
16.28
24.06
31.49
37.43
40.91
41.41
39.06
34.57
29.01
23.48
18.79
15.36
13.20
12.11
11.83
12.11
12.77
13.62
14.47
15.06
15.18
14.69
13.60
12.05
10.31
8.69
7.43
6.67
6.42
6.54
6.87
7.28
7.66
7.96
8.10
7.98
7.47
6.53
5.24
3.86
2.69
2.06
2.13
2.84
4.00
5.32
6.53
7.47
8.09
8.43
8.56
8.56
8.48
8.38
8.26
8.14
8.01
7.85
7.62
7.31
6.90
6.41
5.90
5.40
4.98
4.65
4.40
4.20
3.98
3.70
3.36
3.01
2.70
2.44
2.22
1.95
1.52
0.89
0.10
-0.74
-1.48
-1.98
-2.13
-1.90
-1.32
-0.49
0.48
1.47
2.37
3.12
3.71
4.12
4.33
4.33
4.11
3.73
3.31
2.96
2.77
2.73
2.77
2.77
2.66
2.45
2.23
2.07
2.04
2.12
2.24
2.27
2.13
1.78
1.27
0.70
0.17
-0.24
-0.56
-0.84
-1.15
-1.52
-1.93
-2.30
-2.58
-2.75
-2.83
-2.85
-2.79
-2.61
-2.24
-1.65
-0.87
0.03
0.93
1.75
2.42
2.90
3.17
3.23
3.07
2.74
2.29
1.78
1.29
0.86
0.53
0.30
0.17
0.14
0.18
0.22
0.22
0.10
-0.16
-0.54
-1.03
-1.55
-2.04
-2.42
-2.59
-2.50
-2.20
-1.80
-1.52
-1.54
-1.93
-2.57
-3.19
-3.47
-3.21
-2.41
-1.27
-0.06
0.95
1.61
1.92
1.99
1.94
1.88
1.86
1.86
1.83
1.72
1.53
1.28
1.03
0.86
0.81
0.86
0.93
0.94
0.83
0.61
0.37
0.22
0.21
0.31
0.42
0.39
0.18
-0.17
-0.56
-0.88
-1.14
-1.43
-1.89
-2.58
-3.41
-4.15
-4.54
-4.40
-3.74
-2.72
-1.61
-0.62
0.09
0.51
0.71
0.80
0.86
0.94
1.04
1.14
1.23
1.31
1.40
1.48
1.49
1.40
1.16
0.77
0.32
-0.10
-0.45
-0.74
-1.02
-1.36
-1.74
-2.09
-2.31
-2.37
-2.28
-2.11
-1.93
-1.77
-1.58
-1.36
-1.12
-0.91
-0.83
-0.91
-1.15
-1.52
-1.91
-2.23
-2.42
-2.41
-2.18
-1.76
-1.22
-0.66
-0.16
0.21
0.45
0.59
0.67
0.71
0.72
0.72
0.71
0.74
0.84
0.98
1.11
1.13
0.99
0.64
0.14
-0.49
-1.17
-1.82
-2.36
-2.70
-2.80
-2.68
-2.45
-2.21
-2.06
-2.02
-2.02
-2.02
-1.98
-1.96
-2.01
-2.19
-2.44
-2.65
-2.73
-2.63
-2.39
-2.09
-1.83
-1.62
-1.38
-1.05
-0.55
0.10
0.85
1.59
2.22
2.68
2.98
3.12
3.17
3.18
3.22
3.30
3.41
3.50
3.53
3.49
3.38
3.21
2.97
2.61
2.10
1.40
0.56
-0.34
-1.19
-1.94
-2.62
-3.29
-4.00
-4.76
-5.55
-6.31
-6.98
-7.53
-7.94
-8.20
-8.31
-8.29
-8.16
-7.89
-7.46
-6.82
-5.97
-4.99
-4.02
-3.20
-2.65
-2.37
-2.27
-2.25
-2.21
-2.12
-1.99
-1.83
-1.63
-1.40
-1.17
-1.03
-1.08
-1.46
-2.19
-3.25
-4.52
-5.85
-7.09
-8.17
-9.07
-9.77
-10.26
-10.49
-10.38
-9.81
-8.71
-7.05
-4.93
-2.50
0.02
2.43
4.62
6.51
8.10
9.37
10.29
10.83
10.96
10.72
10.19
9.50
8.76
8.03
7.32
6.58
5.81
4.98
4.14
3.38
2.74
2.26
1.86
1.44
0.93
0.35
-0.22
-0.64
-0.87
-0.93
-0.92
-0.95
-1.10
-1.34
-1.58
-1.73
-1.72
-1.58
-1.39
-1.29
-1.37
-1.66
-2.11
-2.59
-3.00
-3.23
-3.27
-3.11
-2.77
-2.23
-1.52
-0.68
0.14
0.85
1.33
1.61
1.78
1.96
2.20
2.47
2.69
2.84
2.98
3.22
3.66
4.30
5.00
5.57
5.87
5.85
5.54
5.03
4.39
3.66
2.86
2.00
1.13
0.32
-0.37
-0.93
-1.33
-1.58
-1.63
-1.46
-1.09
-0.56
0.03
0.57
0.98
1.21
1.27
1.22
1.11
0.99
0.88
0.82
0.82
0.90
1.07
1.33
1.64
1.96
2.25
2.47
2.61
2.69
2.72
2.76
2.87
3.11
3.47
3.88
4.25
4.49
4.56
4.44
4.18
3.76
3.14
2.25
1.13
-0.08
-1.16
-1.88
-2.15
-2.03
-1.73
-1.46
-1.30
-1.22
-1.10
-0.87
-0.58
-0.38
-0.46
-0.90
-1.59
-2.25
-2.59
-2.40
-1.72
-0.75
0.18
0.82
1.09
1.05
0.86
0.65
0.52
0.47
0.52
0.71
1.02
1.44
1.86
2.19
2.33
2.29
2.16
2.03
1.96
1.93
1.87
1.73
1.47
1.12
0.71
0.27
-0.18
-0.57
-0.84
-0.89
-0.71
-0.38
-0.06
0.06
-0.15
-0.68
-1.34
-1.92
-2.21
-2.16
-1.85
-1.42
-1.01
-0.69
-0.43
-0.18
0.10
0.41
0.70
0.91
1.00
0.95
0.81
0.60
0.40
0.23
0.10
0.02
-0.06
-0.13
-0.16
-0.10
0.11
0.48
0.96
1.41
1.69
1.71
1.48
1.11
0.73
0.50
0.48
0.67
0.99
1.33
1.56
1.57
1.32
0.87
0.32
-0.21
-0.62
-0.88
-0.98
-0.94
-0.77
-0.45
-0.03
0.40
0.71
0.82
0.78
0.72
0.83
1.17
1.70
2.22
2.52
2.48
2.13
1.61
1.05
0.57
0.18
-0.16
-0.46
-0.70
-0.82
-0.81
-0.73
-0.65
-0.65
-0.72
-0.78
-0.76
-0.63
-0.46
-0.38
-0.55
-0.98
-1.60
-2.20
-2.59
-2.65
-2.35
-1.79
-1.10
-0.41
0.17
0.59
0.83
0.93
0.97
0.99
1.01
1.04
1.04
0.97
0.79
0.53
0.24
-0.00
-0.12
-0.09
0.08
0.28
0.43
0.45
0.34
0.19
0.09
0.08
0.13
0.16
0.07
-0.16
-0.47
-0.77
-0.99
-1.09
-1.12
-1.12
-1.17
-1.31
-1.54
-1.81
-2.02
-2.08
-1.85
-1.30
-0.47
0.46
1.27
1.77
1.89
1.68
1.31
0.96
0.73
0.64
0.64
0.65
0.63
0.58
0.52
0.47
0.42
0.34
0.22
0.07
-0.04
-0.06
0.04
0.23
0.46
0.61
0.57
0.30
-0.18
-0.75
-1.27
-1.63
-1.80
-1.77
-1.61
-1.38
-1.11
-0.86
-0.67
-0.59
-0.65
-0.79
-0.93
-0.94
-0.77
-0.48
-0.21
-0.12
-0.28
-0.65
-1.07
-1.33
-1.31
-0.99
-0.46
0.11
0.61
0.95
1.12
1.13
1.06
0.97
0.94
1.01
1.20
1.47
1.70
1.78
1.64
1.28
0.75
0.16
-0.41
-0.86
-1.15
-1.25
-1.16
-0.93
-0.62
-0.34
-0.18
-0.20
-0.35
-0.53
-0.63
-0.56
-0.33
-0.06
0.10
0.06
-0.17
-0.45
-0.61
-0.50
-0.10
0.46
0.98
1.28
1.27
0.99
0.57
0.12
-0.25
-0.51
-0.68
-0.79
-0.90
-1.06
-1.30
-1.57
-1.80
-1.90
-1.82
-1.55
-1.10
-0.53
0.13
0.78
1.33
1.70
1.83
1.73
1.49
1.20
0.97
0.84
0.81
0.88
0.99
1.12
1.22
1.25
1.19
1.09
1.02
1.04
1.14
1.23
1.20
0.99
0.66
0.33
0.14
0.13
0.23
0.30
0.22
-0.04
-0.41
-0.79
-1.10
-1.31
-1.44
-1.51
-1.50
-1.39
-1.14
-0.79
-0.39
-0.04
0.19
0.28
0.23
0.09
-0.12
-0.34
-0.53
-0.62
-0.56
-0.37
-0.08
0.21
0.43
0.57
0.65
0.70
0.73
0.70
0.57
0.35
0.07
-0.16
-0.29
-0.29
-0.21
-0.14
-0.14
-0.19
-0.28
-0.34
-0.35
-0.28
-0.11
0.17
0.56
1.01
1.38
1.58
1.54
1.29
0.98
0.75
0.69
0.75
0.85
0.88
0.77
0.58
0.41
0.35
0.45
0.65
0.88
1.02
1.01
0.87
0.69
0.59
0.64
0.76
0.82
0.68
0.31
-0.19
-0.62
-0.83
-0.79
-0.65
-0.59
-0.75
-1.13
-1.61
-2.03
-2.26
-2.27
-2.13
-1.87
-1.52
-1.08
-0.56
-0.03
0.43
0.75
0.89
0.88
0.81
0.77
0.82
0.95
1.10
1.16
1.07
0.82
0.52
0.29
0.26
0.42
0.68
0.88
0.92
0.77
0.49
0.23
0.07
0.05
0.11
0.17
0.18
0.12
-0.00
-0.13
-0.22
-0.23
-0.15
-0.03
0.05
-0.01
-0.25
-0.65
-1.08
-1.38
-1.42
-1.15
-0.65
-0.04
0.52
0.93
1.18
1.29
1.31
1.23
1.02
0.70
0.31
-0.03
-0.20
-0.15
0.07
0.35
0.52
0.52
0.36
0.11
-0.12
-0.27
-0.32
-0.32
-0.31
-0.34
-0.44
-0.62
-0.86
-1.10
-1.27
-1.31
-1.21
-0.99
-0.74
-0.55
-0.46
-0.49
-0.61
-0.83
-1.15
-1.59
-2.09
-2.55
-2.83
-2.84
-2.58
-2.16
-1.75
-1.46
-1.38
-1.51
-1.79
-2.15
-2.55
-2.93
-3.28
-3.59
-3.88
-4.17
-4.50
-4.89
-5.31
-5.77
-6.26
-6.75
-7.16
-7.33
-7.08
-6.26
-4.84
-2.94
-0.79
1.37
3.42
5.28
6.97
8.47
9.66
10.38
10.48
9.96
8.93
7.62
6.28
5.09
4.10
3.29
2.61
2.02
1.51
1.08
0.73
0.46
0.24
0.08
-0.05
-0.11
-0.11
-0.03
0.10
0.27
0.45
0.62
0.78
0.91
1.00
1.03
0.98
0.81
0.51
0.11
-0.32
-0.67
-0.87
-0.86
-0.67
-0.41
-0.18
-0.09
-0.17
-0.38
-0.58
-0.64
-0.46
-0.05
0.48
1.00
1.34
1.43
1.25
0.87
0.37
-0.13
-0.54
-0.83
-0.98
-1.03
-1.01
-0.99
-1.01
-1.09
-1.21
-1.31
-1.32
-1.18
-0.90
-0.54
-0.20
0.05
0.20
0.32
0.49
0.73
1.00
1.17
1.12
0.83
0.41
0.05
-0.13
-0.11
0.01
0.06
-0.00
-0.13
-0.16
0.03
0.43
0.87
1.13
1.05
0.64
0.08
-0.44
-0.76
-0.87
-0.83
-0.77
-0.74
-0.76
-0.83
-0.91
-0.97
-0.97
-0.90
-0.76
-0.54
-0.33
-0.18
-0.14
-0.21
-0.36
-0.50
-0.59
-0.59
-0.53
-0.43
-0.32
-0.24
-0.16
-0.07
0.05
0.19
0.34
0.47
0.54
0.54
0.49
0.37
0.21
0.05
-0.08
-0.13
-0.10
0.00
0.09
0.12
0.03
-0.15
-0.33
-0.44
-0.40
-0.20
0.11
0.43
0.66
0.70
0.50
0.11
-0.34
-0.72
-0.94
-0.97
-0.92
-0.89
-0.94
-1.04
-1.08
-1.00
-0.82
-0.65
-0.56
-0.59
-0.64
-0.57
-0.29
0.18
0.69
1.08
1.24
1.22
1.08
0.90
0.69
0.38
-0.07
-0.61
-1.09
-1.30
-1.16
-0.70
-0.12
0.37
0.62
0.65
0.58
0.54
0.61
0.76
0.89
0.90
0.76
0.49
0.16
-0.18
-0.44
-0.60
-0.63
-0.53
-0.33
-0.08
0.16
0.34
0.42
0.43
0.38
0.34
0.31
0.27
0.18
-0.02
-0.29
-0.53
-0.57
-0.28
0.31
1.02
1.60
1.79
1.54
0.96
0.31
-0.20
-0.44
-0.48
-0.42
-0.41
-0.47
-0.58
-0.63
-0.53
-0.26
0.13
0.53
0.80
0.86
0.72
0.47
0.24
0.13
0.17
0.30
0.41
0.40
0.25
-0.01
-0.28
-0.49
-0.61
-0.66
-0.70
-0.75
-0.82
-0.85
-0.79
-0.63
-0.39
-0.15
0.02
0.05
-0.06
-0.27
-0.50
-0.67
-0.72
-0.63
-0.43
-0.21
-0.08
-0.07
-0.17
-0.29
-0.34
-0.31
-0.24
-0.21
-0.27
-0.40
-0.50
-0.50
-0.39
-0.26
-0.23
-0.37
-0.63
-0.89
-0.97
-0.82
-0.51
-0.22
-0.09
-0.14
-0.27
-0.33
-0.19
0.16
0.65
1.16
1.63
2.08
2.58
3.19
3.86
4.49
4.99
5.33
5.54
5.70
5.93
6.34
7.01
7.91
9.02
10.23
11.41
12.35
12.81
12.72
12.13
11.12
9.75
8.06
6.15
4.20
2.40
0.83
-0.31
-1.01
-1.52
-2.36
-4.04
-6.68
-9.96
-13.18
-15.51
-16.01
-14.02
-9.38
-2.50
5.92
15.16
24.59
33.63
39.87
41.12
36.65
27.98
17.89
8.73
1.64
-3.31
-6.65
-8.97
-10.40
-10.87
-10.39
-9.39
-8.59
-8.58
-9.53
-11.11
-12.64
-13.10
-11.81
-8.70
-4.55
-0.61
2.04
2.94
2.36
1.07
-0.04
-0.69
-1.32
-3.04
-7.03
-13.71
-22.56
-32.17
-41.07
-47.45
-50.11
-48.64
-43.55
-36.03
-27.59
-19.81
-13.86
-10.28
-8.55
-7.86
-6.72
-3.81
1.28
8.25
15.81
22.15
25.63
25.37
21.49
15.10
7.65
0.50
-5.40
-9.59
-12.05
-12.63
-11.85
-10.13
-7.61
-4.42
-0.84
2.52
4.70
4.93
3.04
-0.16
-3.17
-4.44
-3.14
0.39
4.89
8.81
11.08
11.50
10.55
8.95
7.14
5.06
2.44
-0.77
-4.21
-7.18
-8.94
-9.11
-7.82
-5.69
-3.59
-2.26
-2.05
-2.87
-4.28
-5.63
-6.68
-7.21
-7.18
-6.75
-6.11
-5.41
-4.74
-4.11
-3.46
-2.78
-2.01
-1.16
-0.25
0.64
1.40
1.83
1.74
1.01
-0.42
-2.37
-4.53
-6.50
-7.87
-8.35
-7.82
-6.35
-4.20
-1.72
0.72
2.81
4.36
5.35
5.86
6.09
6.21
6.34
6.51
6.70
6.84
6.88
6.80
6.63
6.39
6.07
5.66
5.16
4.61
4.07
3.60
3.21
2.84
2.41
1.88
1.29
0.75
0.36
0.18
0.18
0.23
0.22
0.10
-0.08
-0.23
-0.24
-0.07
0.27
0.72
1.21
1.70
2.17
2.63
3.07
3.43
3.66
3.68
3.48
3.12
2.69
2.30
2.06
1.99
2.10
2.33
2.63
2.95
3.24
3.46
3.57
3.56
3.42
3.19
2.90
2.60
2.34
2.13
1.97
1.83
1.71
1.57
1.38
1.16
0.90
0.67
0.49
0.42
0.43
0.49
0.46
0.22
-0.30
-1.05
-1.88
-2.54
-2.83
-2.68
-2.16
-1.44
-0.73
-0.15
0.30
0.68
1.04
1.39
1.67
1.81
1.78
1.59
1.32
1.09
0.99
1.06
1.30
1.65
2.00
2.24
2.31
2.20
1.97
1.74
1.57
1.48
1.44
1.41
1.40
1.44
1.56
1.72
1.81
1.71
1.34
0.75
0.12
-0.36
-0.58
-0.56
-0.44
-0.36
-0.40
-0.56
-0.74
-0.89
-1.02
-1.17
-1.34
-1.48
-1.48
-1.23
-0.71
-0.04
0.59
0.96
1.02
0.83
0.56
0.36
0.32
0.37
0.44
0.44
0.39
0.36
0.42
0.63
0.96
1.35
1.73
2.04
2.22
2.23
2.03
1.68
1.26
0.93
0.78
0.79
0.86
0.85
0.69
0.40
0.11
-0.06
-0.05
0.08
0.21
0.22
0.05
-0.25
-0.62
-0.95
-1.21
-1.36
-1.40
-1.34
-1.19
-0.97
-0.69
-0.38
-0.09
0.16
0.36
0.51
0.61
0.71
0.79
0.83
0.79
0.62
0.31
-0.09
-0.50
-0.83
-1.01
-1.04
-0.95
-0.81
-0.63
-0.42
-0.14
0.25
0.73
1.22
1.60
1.73
1.56
1.17
0.71
0.38
0.29
0.43
0.69
0.89
0.91
0.70
0.31
-0.15
-0.60
-0.98
-1.29
-1.51
-1.65
-1.66
-1.48
-1.09
-0.52
0.12
0.72
1.15
1.37
1.40
1.28
1.11
0.93
0.77
0.66
0.60
0.61
0.64
0.66
0.62
0.50
0.36
0.27
0.30
0.44
0.61
0.68
0.60
0.40
0.15
-0.04
-0.10
-0.02
0.12
0.25
0.31
0.30
0.22
0.11
-0.05
-0.26
-0.52
-0.84
-1.18
-1.47
-1.67
-1.71
-1.56
-1.22
-0.76
-0.29
0.07
0.23
0.20
0.06
-0.07
-0.05
0.12
0.38
0.62
0.73
0.71
0.64
0.59
0.59
0.62
0.61
0.53
0.41
0.35
0.40
0.56
0.76
0.91
0.95
0.95
0.99
1.13
1.37
1.60
1.70
1.56
1.20
0.73
0.30
0.02
-0.10
-0.15
-0.26
-0.52
-0.90
-1.29
-1.51
-1.44
-1.04
-0.42
0.25
0.78
1.08
1.14
1.02
0.82
0.61
0.44
0.34
0.32
0.41
0.60
0.86
1.11
1.29
1.34
1.28
1.19
1.14
1.19
1.29
1.36
1.27
0.99
0.56
0.13
-0.16
-0.21
-0.04
0.22
0.42
0.45
0.32
0.12
-0.04
-0.09
-0.03
0.04
0.02
-0.14
-0.44
-0.80
-1.13
-1.33
-1.34
-1.13
-0.76
-0.34
0.04
0.28
0.34
0.23
0.00
-0.27
-0.50
-0.60
-0.50
-0.19
0.28
0.80
1.26
1.60
1.89
2.23
2.74
3.47
4.36
5.33
6.31
7.29
8.31
9.40
10.56
11.68
12.64
13.30
13.51
13.21
12.41
11.21
9.75
8.20
6.63
5.04
3.34
1.45
-0.67
-3.00
-5.42
-7.78
-9.97
-11.93
-13.68
-15.25
-16.68
-17.96
-19.07
-19.93
-20.49
-20.64
-20.27
-19.28
-17.61
-15.28
-12.40
-9.16
-5.71
-2.17
1.47
5.29
9.35
13.62
17.95
22.06
25.66
28.50
30.37
31.14
30.78
29.35
27.04
24.15
21.00
17.83
14.74
11.69
8.58
5.43
2.38
-0.28
-2.16
-2.94
-2.46
-0.84
1.44
3.60
4.66
3.72
0.15
-6.05
-14.26
-23.34
-31.88
-38.62
-42.63
-43.43
-40.92
-35.29
-26.93
-16.45
-4.74
7.11
18.01
27.07
33.79
38.13
40.28
40.48
38.87
35.44
30.25
23.57
15.97
8.18
0.89
-5.47
-10.82
-15.31
-19.23
-22.81
-26.21
-29.52
-32.79
-36.05
-39.19
-42.00
-44.09
-45.04
-44.51
-42.39
-38.82
-34.07
-28.37
-21.76
-14.13
-5.30
4.69
15.48
26.39
36.59
45.38
52.29
57.14
59.90
60.63
59.40
56.30
51.53
45.31
37.91
29.53
20.36
10.60
0.48
-9.65
-19.40
-28.42
-36.49
-43.55
-49.68
-55.06
-59.81
-63.96
-67.39
-69.86
-71.08
-70.73
-68.53
-64.29
-57.87
-49.27
-38.64
-26.33
-12.89
0.96
14.42
26.73
37.25
45.54
51.41
54.92
56.32
56.03
54.46
52.01
48.89
45.20
40.95
36.16
30.95
25.57
20.32
15.49
11.27
7.69
4.65
1.95
-0.60
-3.17
-5.82
-8.61
-11.52
-14.48
-17.40
-20.17
-22.71
-24.90
-26.66
-27.91
-28.67
-28.99
-28.85
-28.23
-27.20
-25.87
-24.38
-22.78
-21.01
-18.95
-16.37
-12.68
-7.39
-0.29
8.37
17.96
27.67
36.58
43.79
48.61
51.16
51.90
51.40
50.10
48.38
46.63
45.21
44.28
43.91
44.72
47.16
51.25
56.51
62.28
68.03
73.41
78.00
77.50
69.10
52.81
31.89
10.67
-7.77
-22.12
-32.25
-39.02
-43.52
-45.66
-45.29
-42.74
-39.04
-35.52
-33.43
-32.72
-33.34
-34.88
-36.29
-36.65
-35.57
-33.34
-30.70
-28.42
-27.10
-27.19
-28.77
-31.29
-34.15
-36.86
-39.25
-41.29
-42.96
-44.11
-44.60
-44.18
-42.50
-39.38
-34.90
-29.44
