1530655895.00
64.000000
-0.00
-0.00
-0.00
-0.00
-0.00
-0.00
-0.00
-0.00
-0.00
-0.00
0.00
0.01
0.01
-0.00
-0.03
-0.05
-0.05
0.00
0.13
0.36
0.66
1.01
1.37
1.72
2.06
2.40
2.79
3.24
3.80
4.42
5.06
5.66
6.20
6.68
7.15
7.68
8.31
9.14
10.09
11.04
11.88
12.56
13.14
13.76
14.65
15.97
17.92
20.32
22.90
25.37
27.57
29.58
31.71
34.38
37.87
42.55
48.05
53.85
59.40
64.38
68.88
73.39
78.60
84.98
93.03
102.19
111.67
120.61
128.49
135.38
141.92
149.40
156.45
165.26
176.36
189.86
204.66
217.95
225.50
222.68
206.03
174.47
130.17
76.82
18.79
-40.47
-99.08
-156.48
-212.69
-267.58
-320.73
-371.15
-418.22
-461.23
-499.19
-530.58
-553.44
-565.79
-566.13
-554.05
-530.13
-496.12
-454.13
-406.22
-354.14
-299.28
-242.97
-186.63
-132.00
-80.88
-35.21
3.37
33.89
56.61
73.48
87.90
103.92
124.70
151.13
181.22
210.74
234.91
250.20
255.55
252.38
243.55
232.02
219.82
207.81
196.05
184.49
173.36
163.23
154.65
147.41
140.31
131.33
118.60
101.30
80.22
57.35
35.15
16.03
2.28
-4.04
-1.50
9.74
27.17
46.01
60.63
66.85
63.74
53.87
41.81
31.67
25.36
22.42
21.12
19.85
17.57
13.44
6.18
-5.58
-22.22
-41.88
-60.27
-72.22
-73.94
-64.79
-47.70
-27.76
-9.82
3.22
10.74
13.67
13.22
10.23
5.31
-0.46
-5.30
-7.12
-4.59
2.10
11.15
19.89
25.76
27.12
23.58
15.80
5.26
-6.15
-16.10
-22.22
-22.67
-16.78
-5.56
8.36
21.60
31.21
35.69
35.37
31.91
27.36
23.14
19.61
16.38
13.03
9.60
6.40
3.53
0.31
-4.76
-13.10
-25.09
-39.52
-53.80
-65.09
-71.71
-73.61
-72.27
-69.65
-67.08
-65.01
-63.63
-63.56
-65.81
-70.61
-76.05
-77.75
-70.43
-50.50
-18.38
21.04
60.31
92.56
113.69
122.59
119.87
106.49
83.88
55.19
26.16
4.33
-3.66
4.49
25.37
50.71
70.75
78.32
71.10
52.09
27.36
3.15
-16.29
-29.35
-36.48
-39.04
-38.32
-35.21
-30.25
-24.06
-17.65
-12.39
-9.38
-9.14
-11.33
-14.94
-18.66
-21.19
-21.41
-18.64
-12.93
-5.24
2.61
8.58
11.23
10.36
7.06
3.07
0.01
-1.20
-0.45
1.84
5.14
9.05
13.30
17.57
21.35
24.04
25.18
24.69
22.84
19.97
16.35
12.10
7.38
2.56
-1.69
-4.46
-4.89
-2.52
2.45
9.24
16.69
23.54
28.70
31.43
30.79
26.50
18.97
9.32
-0.77
-9.33
-14.58
-15.41
-11.75
-4.58
4.46
13.51
21.05
26.22
28.81
29.08
27.44
24.25
19.76
14.25
7.98
1.24
-5.69
-12.59
-19.34
-25.87
-32.13
-37.95
-43.00
-46.86
-49.10
-49.48
-48.03
-45.10
-41.28
-37.15
-33.14
-29.35
-25.65
-21.87
-17.98
-14.15
-10.73
-8.01
-6.10
-4.85
-3.98
-3.23
-2.54
-2.04
-1.91
-2.21
-2.82
-3.39
-3.62
-3.33
-2.63
-1.85
-1.36
-1.38
-1.90
-2.69
-3.43
-3.93
-4.11
-4.08
-3.97
-3.88
-3.83
-3.80
-3.78
-3.77
-3.83
-3.99
-4.21
-4.44
-4.59
-4.66
-4.67
-4.65
-4.65
-4.66
-4.62
-4.50
-4.26
-3.87
-3.32
-2.64
-1.88
-1.12
-0.46
0.03
0.34
0.53
0.71
1.01
1.50
2.14
2.85
3.50
4.01
4.38
4.67
4.94
5.19
5.38
5.45
5.37
5.19
5.05
5.13
5.52
6.19
6.91
7.37
7.28
6.56
5.35
3.99
2.85
2.18
1.96
1.98
1.94
1.63
1.03
0.24
-0.56
-1.29
-1.92
-2.48
-3.01
-3.44
-3.70
-3.76
-3.67
-3.55
-3.56
-3.79
-4.26
-4.89
-5.55
-6.11
-6.47
-6.55
-6.28
-5.65
-4.66
-3.39
-2.02
-0.71
0.37
1.12
1.52
1.60
1.44
1.09
0.61
0.07
-0.44
-0.79
-0.88
-0.63
-0.03
0.84
1.90
2.99
4.00
4.79
5.29
5.46
5.32
4.97
4.50
4.03
3.62
3.25
2.87
2.40
1.78
1.02
0.19
-0.63
-1.35
-1.93
-2.39
-2.72
-2.91
-2.92
-2.67
-2.16
-1.49
-0.80
-0.32
-0.18
-0.45
-1.00
-1.64
-2.15
-2.40
-2.30
-1.89
-1.22
-0.37
0.57
1.54
2.50
3.37
4.11
4.67
5.00
5.08
4.92
4.53
3.99
3.38
2.81
2.37
2.12
2.09
2.30
2.75
3.45
4.34
5.31
6.19
6.78
6.97
6.73
6.18
5.47
4.73
4.02
3.33
2.68
2.11
1.73
1.63
1.78
2.03
2.20
2.15
1.88
1.49
1.11
0.80
0.54
0.24
-0.16
-0.69
-1.33
-2.07
-2.91
-3.84
-4.81
-5.71
-6.36
-6.55
-6.13
-5.09
-3.51
-1.63
0.27
1.92
3.14
3.87
4.16
4.19
4.10
4.02
3.98
3.96
3.97
4.00
4.03
4.06
4.02
3.88
3.63
3.36
3.21
3.26
3.51
3.83
4.00
3.83
3.24
2.29
1.11
-0.13
-1.28
-2.24
-2.93
-3.31
-3.39
-3.24
-2.98
-2.78
-2.76
-3.01
-3.47
-4.04
-4.57
-4.96
-5.14
-5.13
-4.99
-4.83
-4.74
-4.80
-5.01
-5.34
-5.65
-5.74
-5.39
-4.45
-2.94
-1.06
0.84
2.35
3.22
3.32
2.78
1.82
0.71
-0.31
-1.08
-1.54
-1.68
-1.55
-1.25
-0.85
-0.45
-0.09
0.17
0.35
0.49
0.70
1.07
1.69
2.59
3.65
4.72
5.57
6.04
6.08
5.72
5.11
4.40
3.70
3.07
2.51
1.96
1.39
0.76
0.14
-0.42
-0.81
-1.03
-1.13
-1.22
-1.41
-1.74
-2.20
-2.69
-3.12
-3.40
-3.51
-3.45
-3.24
-2.88
-2.39
-1.81
-1.18
-0.57
0.02
0.59
1.18
1.79
2.40
2.94
3.35
3.61
3.74
3.81
3.91
4.04
4.15
4.13
3.89
3.42
2.80
2.17
1.67
1.40
1.33
1.35
1.35
1.24
0.99
0.66
0.34
0.12
0.02
0.03
0.10
0.14
0.12
0.04
-0.11
-0.33
-0.65
-1.11
-1.75
-2.53
-3.40
-4.25
-4.96
-5.44
-5.65
-5.63
-5.47
-5.30
-5.20
-5.20
-5.16
-4.88
-4.14
-2.84
-1.18
0.41
1.39
1.38
0.36
-1.26
-2.83
-3.70
-3.56
-2.57
-1.32
-0.61
-1.18
-3.43
-7.21
-11.71
-15.50
-16.81
-14.07
-6.62
4.80
17.97
29.60
36.27
35.37
25.77
8.09
-15.61
-42.47
-69.45
-93.82
-113.46
-126.90
-133.28
-132.26
-123.97
-108.94
-88.13
-62.94
-35.21
-7.06
19.37
42.29
60.54
73.74
82.20
86.68
88.16
87.68
86.25
84.93
84.66
86.05
89.13
93.11
96.57
97.89
95.78
89.76
80.29
68.53
56.02
44.24
34.35
27.01
22.39
20.23
20.11
21.51
23.92
26.90
29.97
32.62
34.33
34.67
33.57
31.42
29.17
28.05
29.25
33.51
40.81
50.32
60.76
70.81
79.71
87.44
94.46
101.03
106.55
109.31
106.89
97.19
79.49
54.92
26.13
-3.72
-32.10
-57.66
-80.04
-99.14
-114.41
-124.97
-130.28
-130.88
-128.61
-125.91
-124.75
-125.84
-128.41
-130.88
-131.62
-129.65
-124.81
-117.44
-108.19
-97.84
-87.24
-77.29
-68.67
-61.54
-55.44
-49.36
-41.93
-31.76
-17.71
0.84
23.66
49.49
76.06
100.67
120.93
135.43
143.92
147.18
146.24
142.10
135.46
126.91
117.11
106.64
95.81
84.32
71.38
56.02
37.68
16.71
-5.61
-27.35
-46.66
-62.30
-74.04
-82.55
-89.01
-94.53
-99.67
-104.20
-107.12
-107.09
-103.07
-94.82
-83.14
-69.56
-55.93
-43.86
-34.47
-28.30
-25.54
-25.96
-29.01
-33.67
-38.59
-42.50
-44.56
-44.76
-43.82
-42.76
-42.34
-42.79
-43.72
-44.55
-44.81
-44.37
-43.22
-41.25
-38.19
-33.71
-27.84
-21.20
-14.88
-10.09
-7.61
-7.43
-8.81
-10.66
-12.05
-12.47
-11.81
-10.05
-7.07
-2.55
3.81
11.93
21.21
30.56
38.75
44.78
48.30
49.64
49.68
49.45
49.77
51.06
53.23
55.94
58.73
61.21
63.02
63.73
62.78
59.52
53.46
44.57
33.37
20.91
8.49
-2.79
-12.18
-19.48
-24.87
-28.81
-32.00
-35.29
-39.58
-45.43
-52.53
-59.56
-64.60
-66.14
-63.93
-59.35
-54.91
-53.01
-54.86
-59.97
-66.43
-71.72
-73.55
-70.30
-61.20
-46.34
-26.83
-4.79
16.91
35.40
48.70
56.29
58.94
58.09
54.99
50.34
44.41
37.42
29.89
22.73
17.01
13.58
13.02
15.52
20.89
28.55
37.51
46.42
53.80
58.33
59.22
56.34
50.19
41.76
32.26
22.89
14.60
7.94
3.05
-0.16
-1.83
-2.04
-0.79
1.71
4.92
8.09
10.43
11.39
10.68
8.13
3.58
-3.00
-11.24
-20.09
-27.80
-32.43
-32.62
-28.18
-20.19
-10.50
-1.03
6.92
12.84
16.83
19.30
20.59
20.92
20.42
19.19
17.43
15.48
13.80
12.82
12.80
13.74
15.32
17.08
18.57
19.48
19.73
19.29
18.03
15.73
12.13
7.12
0.90
-6.02
-12.96
-19.27
-24.44
-28.12
-30.05
-29.96
-27.73
-23.36
-17.07
-9.25
-0.39
8.83
17.51
24.39
28.01
26.98
20.48
8.62
-7.46
-25.75
-43.79
-59.05
-69.24
-72.61
-68.28
-56.59
-39.16
-18.59
2.11
20.39
34.60
44.10
48.93
49.42
46.07
39.49
30.53
20.21
9.50
-0.86
-10.41
-18.65
-24.79
-27.69
-26.25
-19.95
-9.34
3.91
17.59
29.69
39.03
45.45
49.48
51.62
51.61
48.38
40.52
27.26
9.25
-11.33
-31.32
-47.61
-58.04
-61.74
-59.03
-50.90
-38.67
-23.88
-8.25
6.35
18.16
25.75
28.33
25.79
18.64
7.73
-5.86
-20.84
-35.75
-49.06
-59.16
-64.50
-63.85
-56.72
-43.69
-26.50
-7.78
9.71
24.01
34.45
41.60
46.47
49.58
50.41
47.62
39.85
26.71
9.27
-9.99
-27.93
-41.61
-49.02
-49.37
-42.99
-31.06
-15.32
2.19
19.42
34.61
46.47
54.26
57.72
56.91
52.12
43.88
33.01
20.53
7.56
-4.92
-16.05
-25.07
-31.26
-34.02
-33.14
-28.92
-22.17
-13.86
-4.74
4.73
14.08
22.25
27.39
27.29
20.32
6.45
-12.41
-32.81
-50.89
-63.48
-68.84
-66.63
-57.49
-42.61
-23.51
-1.81
20.88
43.25
64.49
84.08
101.26
114.55
121.89
121.46
112.84
97.73
79.68
62.78
49.97
41.96
37.17
32.91
26.98
18.73
9.15
0.03
-7.24
-12.43
-16.50
-21.07
-27.53
-36.30
-46.51
-56.20
-63.09
-65.48
-62.98
-56.51
-47.75
-38.32
-29.25
-20.92
-13.69
-8.33
-6.22
-8.82
-16.78
-29.18
-43.50
-56.26
-64.20
-65.43
-59.84
-48.88
-34.74
-19.37
-4.06
10.43
23.25
33.04
37.90
36.11
27.08
12.00
-6.24
-23.87
-37.39
-44.55
-44.60
-38.13
-26.52
-11.45
5.51
22.85
38.91
51.69
58.93
58.61
49.73
33.01
10.98
-12.52
-33.38
-48.38
-55.79
-55.51
-48.70
-37.11
-22.49
-6.28
10.43
26.60
40.91
51.68
57.12
55.99
48.10
34.67
18.08
1.25
-13.16
-23.20
-27.86
-27.05
-21.39
-12.05
-0.57
11.38
22.13
30.21
34.35
33.56
27.37
16.12
1.17
-15.22
-30.35
-41.76
-48.05
-49.06
-45.66
-39.09
-30.20
-19.17
-5.89
9.07
23.63
34.18
36.74
28.72
10.37
-14.83
-41.39
-63.69
-77.74
-82.00
-76.95
-64.18
-45.56
-23.04
1.34
25.14
45.66
60.47
67.99
67.72
60.27
46.97
29.65
10.52
-8.18
-24.21
-35.61
-40.90
-39.43
-31.40
-18.22
-2.43
12.69
23.77
28.31
25.28
15.32
0.46
-16.35
-31.89
-43.20
-47.93
-44.62
-33.00
-14.23
8.99
32.70
52.40
64.00
64.79
54.04
33.05
4.90
-25.97
-54.38
-75.24
-84.52
-80.24
-63.02
-35.98
-4.08
27.16
53.05
70.65
79.01
78.69
70.93
57.10
38.47
16.47
-6.92
-29.05
-46.92
-57.75
-59.76
-52.77
-38.26
-18.86
2.47
23.23
41.62
56.27
65.66
68.04
61.75
46.11
22.12
-7.34
-37.93
-64.91
-84.10
-92.55
-89.02
-74.19
-50.65
-22.43
5.96
30.74
49.72
62.40
69.47
71.93
70.58
65.97
58.63
49.15
38.04
25.40
11.22
-4.09
-18.91
-30.36
-35.23
-31.43
-19.23
-1.37
18.03
35.05
47.06
53.07
53.42
49.19
41.82
32.83
23.46
14.28
4.92
-5.77
-18.95
-34.85
-52.16
-68.20
-79.93
-85.26
-83.69
-76.24
-64.81
-51.41
-37.70
-24.79
-13.31
-3.78
2.97
5.68
3.04
-5.51
-18.97
-34.51
-48.07
-55.85
-55.71
-47.84
-34.29
-17.66
0.13
18.12
35.73
51.68
63.57
68.60
65.06
53.51
36.96
19.92
6.75
0.16
0.43
5.67
12.87
19.00
22.11
21.68
18.63
14.64
11.36
9.73
9.70
10.44
10.95
10.53
9.15
7.26
5.34
3.52
1.50
-1.19
-4.80
-9.08
-13.36
-16.82
-18.86
-19.19
-17.88
-15.28
-11.98
-8.80
-6.62
-6.13
-7.37
-9.63
-11.60
-11.93
-9.89
-5.75
-0.57
4.34
8.16
10.80
12.79
14.71
16.77
18.64
19.65
19.18
17.06
13.64
9.66
6.03
3.58
2.95
4.43
7.93
12.87
18.28
23.07
26.30
27.56
26.98
25.13
22.60
19.70
16.38
12.43
7.74
2.59
-2.40
-6.59
-9.60
-11.47
-12.53
-13.11
-13.32
-12.99
-11.85
-9.82
-7.22
-4.66
-2.80
-1.96
-1.95
-2.09
-1.53
0.35
3.69
8.14
13.02
17.59
21.26
23.63
24.51
23.96
22.19
19.57
16.46
13.04
9.19
4.56
-1.19
-8.14
-15.90
-23.66
-30.41
-35.17
-37.14
-35.80
-31.04
-23.27
-13.52
-3.25
6.02
13.18
17.71
19.61
18.94
15.56
9.20
0.00
-10.95
-21.44
-28.75
-30.72
-26.77
-18.31
-8.14
0.76
6.48
8.87
9.16
9.00
9.30
9.72
9.02
6.08
0.78
-5.70
-11.47
-15.03
-16.17
-16.07
-16.60
-19.18
-23.90
-29.47
-33.80
-35.07
-32.44
-26.35
-18.20
-9.64
-2.08
3.61
7.09
8.33
7.56
5.23
2.00
-1.25
-3.62
-4.46
-3.55
-1.20
1.96
5.25
8.16
10.42
11.86
12.27
11.37
9.08
5.65
1.80
-1.48
-3.38
-3.61
-2.43
-0.52
1.40
3.05
4.57
6.41
8.96
12.25
15.89
19.30
21.97
23.69
24.65
25.26
25.91
26.80
27.74
28.20
27.36
24.39
18.68
10.13
-0.65
-12.33
-23.02
-30.79
-34.10
-32.24
-25.59
-15.44
-3.65
7.98
18.06
25.97
31.79
35.97
39.00
41.13
42.23
42.00
40.15
36.61
31.54
25.24
17.96
9.83
0.97
-8.40
-17.84
-26.78
-34.88
-42.20
-49.22
-56.50
-64.14
-71.53
-77.30
-79.95
-78.45
-72.67
-63.33
-51.61
-38.66
-25.35
-12.46
-1.02
7.61
12.02
11.54
6.74
-0.57
-7.85
-12.82
-14.18
-11.89
-6.94
-0.66
5.91
12.33
18.78
25.71
33.60
42.49
51.86
60.63
67.38
70.79
70.07
65.23
57.02
46.63
35.25
23.82
12.93
2.97
-5.81
-13.21
-19.02
-23.02
-25.00
-24.70
-21.84
-16.59
-9.68
-2.49
3.26
6.13
5.50
1.92
-3.05
-7.50
-9.87
-9.50
-6.61
-2.16
2.60
6.45
8.36
7.68
4.38
-0.81
-6.46
-10.83
-12.53
-11.23
-7.85
-4.32
-2.77
-4.55
-9.54
-16.18
-22.20
-25.62
-25.47
-22.03
-16.48
-10.36
-4.99
-1.21
0.75
1.21
0.95
1.12
2.84
6.76
12.77
19.81
25.99
29.02
26.70
17.51
1.24
-20.67
-45.05
-67.62
-84.07
-91.26
-88.11
-75.68
-56.50
-33.66
-10.05
11.72
29.08
39.43
40.44
31.04
12.30
-12.26
-37.40
-57.57
-68.58
-68.76
-59.03
-42.28
-22.17
-1.93
16.24
31.40
43.52
52.85
59.06
60.69
55.17
39.98
14.47
-18.55
-52.55
-79.16
-91.21
-85.73
-65.09
-35.63
-4.59
22.90
45.15
63.16
78.48
91.34
100.11
102.35
96.45
82.84
64.03
43.60
24.93
10.04
-0.56
-7.48
-11.49
-12.87
-11.14
-5.58
4.13
17.23
31.69
44.73
53.52
55.93
50.89
38.57
20.26
-1.79
-24.64
-45.10
-60.36
-68.54
-68.98
-62.26
-49.81
-33.50
-15.38
2.54
18.36
30.52
37.86
39.72
35.77
25.91
10.42
-9.60
-31.83
-52.67
-67.94
-74.11
-69.35
-54.08
-30.32
-0.94
30.92
61.77
87.30
102.05
99.98
76.43
30.67
-32.16
-101.01
-161.36
-199.46
-206.93
-183.49
-136.72
-78.87
-22.21
25.00
60.10
84.87
102.67
115.66
123.66
124.97
118.30
104.33
85.96
67.06
50.60
37.34
25.78
13.80
0.49
-12.62
-22.02
-23.95
-16.57
-1.22
17.99
35.86
48.27
53.39
51.82
45.61
36.98
27.47
17.72
7.67
-3.16
-15.32
-29.04
-43.64
-57.14
-66.58
-68.96
-62.61
-48.21
-28.71
-8.31
9.16
21.43
27.95
29.34
26.56
20.38
11.37
0.17
-12.28
-24.79
-36.05
-44.82
-49.84
-49.91
-44.24
-32.90
-17.27
0.09
16.04
27.98
34.62
36.23
34.11
29.76
24.19
17.92
10.92
3.12
-5.41
-14.46
-23.70
-32.74
-40.97
-47.44
-51.02
-50.67
-45.99
-37.32
-25.70
-12.41
1.58
15.77
30.06
44.43
58.59
71.82
82.90
90.26
92.34
88.17
77.78
62.58
45.12
28.45
15.15
6.62
2.75
2.11
2.52
1.71
-1.95
-9.10
-19.18
-30.49
-40.62
-47.08
-47.95
-42.49
-31.42
-16.62
-0.55
14.38
26.43
34.68
38.94
39.55
37.16
32.47
26.05
18.20
8.94
-1.84
-14.27
-28.31
-43.53
-59.00
-73.14
-83.77
-88.47
-85.25
-73.38
-54.02
-30.19
-5.96
14.82
29.75
38.42
41.95
41.97
39.52
34.61
26.63
15.23
0.91
-14.87
-30.25
-43.74
-54.76
-63.53
-70.60
-76.03
-78.84
-77.12
-68.85
-52.96
-30.25
-3.40
23.86
48.18
67.62
81.82
91.14
95.51
94.02
85.56
70.00
49.25
27.16
8.19
-4.39
-9.76
-9.55
-6.65
-3.74
-2.34
-2.87
-5.37
-10.11
-17.51
-27.50
-38.74
-48.54
-53.57
-51.15
-40.36
-22.54
-0.81
21.07
39.88
53.75
62.29
66.17
66.50
64.21
59.88
53.79
46.17
37.40
28.15
19.06
10.36
1.42
-9.22
-23.24
-41.65
-63.79
-87.00
-107.09
-119.59
-121.24
-111.01
-90.42
-62.87
-32.62
-3.60
21.27
40.41
53.45
60.73
62.91
60.41
53.18
40.91
23.49
1.73
-22.41
-46.08
-66.32
-80.86
-88.46
-88.88
-82.40
-69.54
-51.22
-29.12
-5.91
15.08
30.73
39.09
39.86
34.14
23.83
11.07
-2.16
-14.10
-23.26
-28.59
-29.63
-26.40
-19.17
-8.24
6.00
22.69
40.21
56.25
68.46
75.26
76.46
73.03
66.50
58.12
48.53
37.95
26.66
15.34
4.98
-3.36
-8.86
-10.97
-9.38
-3.95
5.12
17.01
30.14
42.38
51.56
56.17
55.79
51.10
43.30
33.57
22.54
10.32
-3.14
-17.62
-32.29
-45.84
-56.76
-63.66
-65.56
-62.06
-53.38
-40.45
-24.85
-8.60
6.31
18.42
27.03
32.12
33.98
32.76
28.33
20.43
9.22
-4.43
-18.78
-31.59
-40.64
-44.33
-42.04
-34.26
-22.52
-8.98
4.03
14.55
21.51
24.87
25.48
24.63
23.39
22.16
20.57
17.77
12.85
5.35
-4.54
-15.86
-26.98
-35.89
-40.65
-39.95
-33.69
-23.16
-10.73
0.91
9.59
14.32
15.23
13.03
8.20
0.66
-10.03
-23.96
-40.22
-56.78
-70.88
-80.01
-82.69
-78.75
-69.03
-54.76
-37.10
-16.97
4.68
26.43
46.33
62.30
72.65
76.55
74.03
65.64
52.16
34.62
14.52
-5.96
-24.18
-37.67
-44.90
-45.58
-40.48
-30.73
-17.20
-0.51
18.61
38.77
57.72
72.78
81.67
83.17
77.27
64.77
46.98
25.48
2.26
-20.38
-40.06
-54.95
-64.22
-68.05
-67.01
-61.51
-51.51
-36.94
-18.49
1.86
21.02
35.76
43.72
44.10
37.72
26.51
12.65
-1.88
-15.64
-27.89
-38.38
-47.13
-54.00
-58.25
-58.54
-53.29
-41.60
-24.05
-2.86
18.73
37.71
52.29
62.12
67.66
69.25
66.69
59.62
48.34
34.53
21.14
11.40
7.32
8.67
13.14
17.39
18.50
15.14
7.83
-1.52
-10.52
-17.03
-19.80
-18.74
-14.86
-10.03
-6.30
-5.15
-6.98
-11.04
-15.83
-19.76
-21.77
-21.64
-19.97
-17.98
-17.18
-19.02
-24.38
-32.99
-43.11
-51.63
-55.09
-51.04
-39.22
-21.97
-3.26
12.85
23.76
29.06
30.28
29.66
28.99
28.76
28.24
26.11
21.35
13.68
3.85
-6.52
-15.22
-20.03
-19.39
-12.97
-2.03
11.04
23.53
33.53
40.52
45.12
48.27
50.28
50.45
47.62
41.23
32.33
23.69
18.67
19.75
27.16
38.67
50.54
59.07
62.01
59.26
52.54
44.45
37.56
33.73
33.77
37.10
41.55
43.38
38.05
21.81
-6.41
-43.64
-83.19
-116.46
-135.97
-137.91
-123.15
-96.48
-64.38
-32.83
-5.83
14.75
28.55
35.97
37.64
34.42
27.46
18.18
8.12
-1.51
-10.25
-18.47
-27.05
-36.66
-47.00
-56.55
-62.83
-63.34
-56.70
-43.32
-25.47
-6.47
10.36
22.85
30.34
33.59
34.06
32.97
30.61
26.08
17.72
3.99
-15.49
-39.37
-64.66
-87.44
-103.91
-111.39
-108.83
-97.04
-78.35
-56.14
-34.01
-14.91
-0.50
9.11
15.02
18.78
21.53
23.45
24.00
22.36
17.96
10.73
0.94
-10.95
-24.39
-38.44
-51.49
-61.31
-65.51
-62.39
-51.71
-34.93
-14.76
5.79
24.41
39.99
52.50
62.35
69.74
74.44
75.97
74.00
68.55
59.97
48.65
34.83
18.72
0.87
-17.53
-34.61
-48.13
-55.96
-56.58
-49.40
-34.82
-14.28
9.91
34.84
57.49
75.37
87.06
92.44
92.41
88.26
81.13
71.68
60.33
47.51
33.85
20.10
6.72
-6.34
-19.64
-33.78
-48.66
-62.98
-74.24
-79.41
-76.05
-63.38
-42.80
-17.60
8.05
30.40
47.00
57.12
61.44
61.31
58.05
52.59
45.27
35.89
23.90
8.68
-10.03
-31.66
-54.66
-76.60
-94.65
-106.12
-109.17
-102.96
-87.81
-65.03
-36.76
-5.73
25.00
52.46
74.26
88.90
96.00
96.12
90.40
80.05
65.89
48.29
27.33
3.35
-22.63
-48.85
-73.24
-93.90
-109.42
-118.82
-121.11
-115.18
-100.17
-76.30
-45.42
-11.13
22.02
49.82
69.53
80.08
81.63
74.75
60.11
38.80
12.77
-14.90
-40.38
-59.88
-70.45
-70.50
-59.91
-39.84
-12.64
18.38
49.27
76.08
95.62
106.22
107.73
101.18
88.09
69.97
48.38
25.22
2.77
-16.85
-32.34
-43.74
-52.15
-58.81
-64.10
-67.05
-65.85
-58.95
-46.15
-29.07
-10.64
5.89
17.97
24.15
23.87
17.14
4.23
-14.25
-37.13
-62.38
-86.96
-107.10
-118.95
-119.62
-108.19
-86.26
-57.62
-27.17
0.66
23.11
39.47
50.49
57.22
60.02
58.28
51.07
38.14
20.86
2.36
-13.26
-22.22
-22.30
-13.63
1.40
19.17
36.04
49.52
58.72
64.02
66.31
66.36
64.55
61.00
55.99
50.16
44.44
39.64
36.18
33.84
31.84
29.09
24.47
17.21
7.20
-4.97
-18.11
-30.86
-42.09
-51.17
-57.92
-62.32
-64.20
-63.16
-58.71
-50.68
-39.46
-26.06
-11.90
1.49
12.74
20.88
25.41
26.44
24.70
21.37
17.67
14.55
12.39
11.04
10.09
9.20
8.33
7.80
8.09
9.57
12.35
16.09
20.18
23.85
26.43
27.68
27.79
27.27
26.69
26.40
26.40
26.41
25.96
24.57
21.82
17.42
11.44
4.38
-2.69
-8.48
-11.87
-12.34
-10.22
-6.42
-1.98
2.36
6.33
9.95
13.18
15.80
17.47
17.99
17.41
15.86
13.37
9.71
4.62
-1.78
-8.81
-15.23
-19.70
-21.31
-19.83
-15.63
-9.43
-2.03
5.75
13.00
18.63
21.61
21.31
17.79
11.83
4.55
-3.05
-10.32
-16.92
-22.57
-26.97
-29.68
-30.45
-29.33
-26.75
-23.35
-19.73
-16.29
-13.17
-10.43
-8.13
-6.41
-5.45
-5.29
-5.78
-6.55
-7.19
-7.42
-7.13
-6.39
-5.28
-3.74
-1.49
1.80
6.33
11.89
17.82
23.27
27.47
30.07
31.17
31.18
30.56
29.56
28.14
26.05
22.98
18.68
13.11
6.54
-0.42
-6.82
-11.62
-13.93
-13.34
-10.04
-4.76
1.52
7.99
14.18
19.99
25.49
30.55
34.59
36.39
34.42
27.28
14.41
-3.42
-24.02
-44.22
-60.74
-71.00
-73.81
-69.45
-59.43
-45.89
-31.15
-17.19
-5.52
2.91
7.56
8.27
5.11
-1.63
-11.39
-23.25
-35.91
-47.86
-57.61
-64.01
-66.44
-64.87
-59.69
-51.58
-41.34
-29.80
-17.85
-6.44
3.49
11.11
15.89
17.79
17.25
15.06
12.02
8.73
5.42
2.07
-1.35
-4.71
-7.59
-9.38
-9.58
-7.97
-4.77
-0.52
4.04
8.21
11.56
14.04
15.97
18.02
20.94
25.31
31.40
39.02
47.76
57.22
67.21
77.74
88.69
99.55
109.24
116.43
120.02
119.72
116.27
111.15
106.17
102.73
101.50
102.38
104.70
107.36
108.72
106.60
98.50
82.41
57.79
26.40
-7.78
-39.57
-64.42
-79.96
-86.62
-87.07
-84.64
-81.79
-79.42
-77.21
-74.60
-71.73
-69.50
-68.97
-70.69
-74.16
-78.16
-81.36
-82.73
-81.68
-77.86
-71.10
-61.65
-50.55
-39.52
-30.39
-24.20
-20.58
-17.99
-14.51
-8.99
-1.67
6.01
12.13
15.14
14.34
9.93
2.70
-6.09
-14.77
-21.52
-24.65
-23.13
-17.21
-8.35
1.16
8.85
13.00
13.22
10.52
6.96
4.81
5.67
9.82
16.16
22.65
27.16
28.37
26.18
21.80
17.33
15.04
16.62
22.70
32.58
44.47
55.90
64.20
66.91
62.22
49.30
28.64
2.19
-26.82
-54.55
-77.51
-93.43
-101.75
-103.41
-100.27
-94.27
-86.81
-78.51
-69.32
-59.01
-47.66
-35.95
-25.09
-16.44
-10.90
-8.71
-9.72
-13.82
-21.10
-31.19
-42.41
-51.39
-53.87
-46.72
-29.97
-7.50
14.37
29.71
35.72
33.60
27.22
20.56
15.63
11.99
7.96
2.41
-4.28
-10.47
-14.43
-15.44
-14.17
-12.12
-10.75
-10.55
-10.85
-10.25
-7.51
-2.31
4.52
11.35
16.64
19.69
20.91
21.47
22.50
24.44
26.90
29.03
30.22
30.47
30.27
30.16
30.21
29.93
28.59
25.67
21.21
15.89
10.72
6.74
4.66
4.51
5.56
6.51
5.88
2.61
-3.48
-11.53
-20.01
-27.20
-31.85
-33.43
-32.12
-28.59
-23.74
-18.46
-13.61
-9.77
-7.21
-5.69
-4.60
-3.17
-0.79
2.73
7.17
11.95
16.37
19.76
21.68
22.03
21.17
19.76
18.58
18.08
18.23
18.54
18.33
17.20
15.33
13.43
12.39
12.82
14.75
17.58
20.45
22.66
23.89
24.25
24.03
23.47
22.74
22.06
21.84
22.67
25.06
29.09
34.14
39.02
42.38
43.24
41.37
37.22
31.62
25.27
18.45
11.04
2.82
-6.09
-14.91
-22.30
-26.82
-27.61
-24.94
-20.29
-15.80
-13.37
-13.76
-16.36
-19.65
-22.08
-22.98
-22.70
-22.29
-22.74
-24.51
-27.54
-31.59
-36.47
-42.03
-47.87
-53.16
-56.71
-57.35
-54.40
-47.99
-38.98
-28.53
-17.78
-7.55
1.62
9.31
15.21
19.06
20.74
20.23
17.55
12.77
6.08
-2.03
-10.74
-18.92
-25.41
-29.35
-30.35
-28.50
-24.25
-18.18
-10.98
-3.42
3.62
9.44
13.77
17.01
20.03
23.70
28.23
32.87
36.12
36.41
32.95
26.19
17.65
9.33
2.80
-1.26
-3.22
-4.04
-4.79
-6.17
-8.45
-11.49
-14.85
-17.65
-18.55
-15.81
-7.86
5.87
24.16
43.92
61.03
71.79
74.45
70.03
61.76
53.79
49.58
50.67
56.21
63.20
66.99
62.12
43.62
8.83
-40.79
-98.84
-154.97
-197.59
-217.58
-211.33
-181.73
-136.77
-86.45
-39.59
-1.78
24.97
41.37
49.39
51.19
48.59
43.05
35.90
28.42
21.87
17.20
14.87
14.44
14.75
14.43
12.56
9.25
5.69
3.52
3.92
6.89
11.03
14.20
14.49
11.08
4.52
-3.64
-11.65
-18.26
-23.16
-26.75
-29.72
-32.50
-34.96
-36.54
-36.47
-34.19
-29.64
-23.32
-16.15
-9.27
-3.70
-0.22
0.77
-0.80
-4.72
-10.58
-17.76
-25.39
-32.39
-37.54
-39.72
-38.18
-32.76
-23.95
-12.75
-0.44
11.85
23.26
33.38
42.08
49.34
55.06
58.97
60.71
59.91
56.35
50.03
41.14
30.16
17.84
5.17
-6.74
-16.84
-24.38
-29.04
-30.87
-30.18
-27.32
-22.59
-16.31
-8.93
-1.15
6.17
12.27
16.75
19.69
21.56
22.97
24.30
25.48
26.02
25.14
22.07
16.44
8.49
-0.84
-10.09
-17.68
-22.40
-23.84
-22.49
-19.47
-16.11
-13.37
-11.58
-10.38
-8.97
-6.44
-2.06
4.49
13.08
23.19
33.99
44.55
54.00
61.67
67.18
70.43
71.47
70.44
67.46
62.75
56.66
49.63
42.21
34.85
27.95
21.64
15.88
10.54
5.62
1.32
-2.13
-4.61
-6.37
-7.88
-9.75
-12.42
-15.94
-19.82
-23.13
-24.96
-24.73
-22.38
-18.14
-12.65
-6.88
-1.89
1.78
4.29
6.26
8.46
11.35
15.28
19.82
23.61
24.96
22.97
18.26
12.44
7.46
4.71
5.33
9.10
14.22
18.32
20.06
20.03
19.85
21.38
25.60
33.63
45.51
59.83
74.32
87.05
96.94
102.50
101.85
87.76
57.78
17.04
-25.16
-63.84
-101.65
-140.87
-181.95
-218.74
-244.46
-251.99
-237.62
-203.75
-158.86
-114.17
-79.32
-59.81
-55.38
-61.31
-69.83
-74.40
-72.42
-65.24
-55.73
-45.82
-36.08
-25.74
-14.11
-0.54
14.54
29.63
43.11
54.50
64.93
76.09
89.33
104.47
120.00
133.14
140.62
139.96
130.67
114.69
95.53
77.02
61.86
51.09
43.95
38.60
33.16
26.73
19.75
13.58
9.63
8.46
9.45
10.94
11.02
8.41
3.03
-3.98
-10.87
-16.04
-18.66
-18.76
-16.98
-14.08
-10.66
-7.08
-3.60
-0.56
1.58
2.40
1.81
0.18
-1.57
-2.25
-0.75
3.56
10.59
19.55
29.22
38.39
46.20
52.23
56.23
57.59
55.04
46.69
30.54
5.45
-28.17
-68.00
-110.03
-149.39
-181.31
-201.99
-209.25
-202.72
-183.69
-154.73
-119.21
-80.67
-42.38
-6.85
24.35
50.53
71.65
87.93
99.53
106.48
108.84
107.01
101.90
94.95
87.74
81.59
77.17
74.38
72.52
70.53
67.29
61.75
53.13
41.14
26.13
9.15
-8.39
-25.07
-39.98
-52.76
-63.51
-72.39
-79.33
-84.12
-86.61
-87.10
-86.35
-85.39
-85.05
-85.67
-86.94
-88.23
-88.96
-88.92
-88.36
-87.84
-87.92
-88.95
-90.84
-93.13
-95.08
-95.73
-94.01
-88.69
-78.53
-62.51
-40.31
-12.66
18.52
50.43
80.07
105.03
124.24
138.10
148.16
156.38
164.24
172.25
179.91
186.21
190.04
190.36
186.01
175.56
157.62
131.78
99.41
63.93
29.79
0.73
-21.77
-38.80
-53.01
-66.66
-80.12
-91.69
-98.73
-99.25
-92.95
-81.21
-66.21
-50.01
-34.03
-19.39
-7.14
1.42
5.02
2.97
-4.39
-15.61
-28.37
-40.10
-48.64
-52.79
-52.49
-48.64
-42.68
-36.08
-29.96
-24.91
-20.99
-18.00
-15.69
-13.96
-12.89
-12.64
-13.28
-14.58
-16.08
-17.12
-17.20
-16.08
-13.92
-11.08
-7.95
-4.68
-1.19
2.76
7.23
12.00
16.53
20.17
22.37
22.91
21.97
20.04
17.74
15.70
14.31
13.65
13.47
13.20
12.16
9.79
5.94
1.09
-3.56
-6.30
-5.31
0.76
12.18
27.71
44.66
59.55
69.07
71.12
65.48
53.61
38.03
21.31
5.42
-8.57
-20.22
-29.29
-35.57
-38.91
-39.57
-38.38
-36.71
-36.01
-37.27
-40.69
-45.62
-50.95
-55.62
-58.96
-60.90
-61.76
-61.90
-61.45
-60.20
-57.71
-53.55
-47.52
-39.75
-30.65
-20.90
-11.21
-2.28
5.36
11.47
16.06
19.42
21.98
24.17
26.29
28.45
30.64
32.70
34.43
35.65
36.18
35.98
35.07
33.62
31.84
29.88
27.85
25.73
23.46
21.00
18.36
15.70
13.21
11.09
9.48
8.38
7.71
7.29
6.92
6.43
5.68
4.55
2.94
0.79
-1.87
-4.85
-7.81
-10.27
-11.79
-12.11
-11.18
-9.21
-6.54
-3.49
-0.31
2.84
5.86
8.65
11.14
13.28
15.11
16.75
18.38
20.10
21.93
23.73
25.26
26.27
26.59
26.17
25.08
23.50
21.67
19.82
18.16
16.77
15.64
14.61
13.47
12.03
10.22
8.12
5.86
3.53
1.09
-1.68
-5.03
-9.10
-13.77
-18.69
-23.34
-27.11
-29.46
-29.94
-28.34
-24.74
-19.60
-13.67
-7.86
-2.96
0.62
2.92
4.34
5.45
6.74
8.52
10.89
13.88
17.44
21.50
25.87
30.25
34.24
37.49
39.74
40.95
41.24
40.82
39.86
38.45
36.56
34.14
31.20
27.86
24.39
21.18
18.60
16.86
15.89
15.23
14.15
11.80
7.47
0.82
-7.98
-18.33
-29.26
-39.69
-48.59
-55.19
-59.06
-60.11
-58.57
-54.85
-49.50
-43.11
-36.31
-29.76
-24.08
-19.69
-16.70
-14.85
-13.60
-12.33
-10.60
-8.29
-5.53
-2.63
0.19
2.85
5.39
7.89
10.27
12.30
13.70
14.25
13.97
13.13
12.19
11.57
11.51
12.00
12.81
13.67
14.42
15.02
15.54
16.02
16.38
16.42
15.95
14.86
13.30
11.60
10.13
9.11
8.57
8.32
8.07
7.63
6.92
6.03
5.12
4.32
3.65
3.08
2.51
1.85
1.06
0.10
-0.98
-2.12
-3.23
-4.19
-4.93
-5.44
-5.79
-6.16
-6.71
-7.59
-8.86
-10.43
-12.11
-13.64
-14.76
-15.25
-15.00
-14.03
-12.49
-10.59
-8.53
-6.46
-4.49
-2.64
-0.95
0.54
1.76
2.71
3.43
4.03
4.59
5.13
5.60
5.90
5.99
5.93
5.81
5.80
5.95
6.22
6.46
6.49
6.19
5.57
4.75
3.94
3.31
2.94
2.82
2.83
2.81
2.65
2.29
1.75
1.10
0.38
-0.37
-1.13
-1.92
-2.80
-3.88
-5.27
-7.09
-9.32
-11.77
-14.08
-15.81
-16.57
-16.15
-14.62
-12.31
-9.70
-7.30
-5.51
-4.51
-4.25
-4.55
-5.15
-5.81
-6.34
-6.56
-6.31
-5.45
-3.95
-1.94
0.32
2.47
4.25
5.54
6.42
7.05
7.59
8.10
8.54
8.89
9.15
9.38
9.62
9.88
10.09
10.18
10.15
10.03
9.93
9.95
10.07
10.23
10.34
10.33
10.21
9.98
9.67
9.24
8.63
7.82
6.82
5.75
4.73
3.88
3.23
2.76
2.40
2.10
1.83
1.59
1.36
1.12
0.82
0.44
-0.03
-0.58
-1.18
-1.81
-2.47
-3.19
-4.00
-4.92
-5.91
-6.93
-7.88
-8.69
-9.28
-9.58
-9.55
-9.17
-8.47
-7.53
-6.48
-5.47
-4.61
-3.92
-3.33
-2.73
-2.01
-1.17
-0.29
0.45
0.94
1.12
1.11
1.08
1.18
1.44
1.77
1.99
1.98
1.78
1.56
1.50
1.72
2.17
2.68
3.07
3.20
3.09
2.81
2.44
2.06
1.69
1.36
1.09
0.90
0.79
0.70
0.57
0.36
0.02
-0.46
-1.07
-1.78
-2.54
-3.28
-3.95
-4.53
-5.06
-5.59
-6.19
-6.87
-7.62
-8.34
-8.93
-9.29
-9.36
-9.14
-8.65
-7.94
-7.05
-6.04
-4.98
-3.94
-3.05
-2.37
-1.89
-1.53
-1.15
-0.63
0.08
0.90
1.69
2.26
2.51
2.43
2.12
1.72
1.38
1.18
1.15
1.24
1.41
1.58
1.72
1.80
1.81
1.71
1.49
1.12
0.65
0.15
-0.31
-0.64
-0.81
-0.84
-0.76
-0.65
-0.59
-0.66
-0.92
-1.41
-2.12
-2.98
-3.84
-4.59
-5.11
-5.43
-5.63
-5.87
-6.27
-6.86
-7.61
-8.37
-9.00
-9.36
-9.41
-9.15
-8.61
-7.83
-6.84
-5.70
-4.48
-3.27
-2.12
-1.08
-0.15
0.70
1.47
2.15
2.70
3.09
3.34
3.45
3.48
3.44
3.37
3.26
3.16
3.13
3.21
3.39
3.63
3.80
3.82
3.63
3.28
2.83
2.39
2.00
1.68
1.40
1.09
0.74
0.31
-0.14
-0.54
-0.80
-0.87
-0.77
-0.63
-0.62
-0.89
-1.47
-2.29
-3.17
-3.93
-4.46
-4.79
-5.02
-5.29
-5.70
-6.25
-6.86
-7.45
-7.93
-8.24
-8.40
-8.39
-8.23
-7.87
-7.28
-6.42
-5.29
-3.96
-2.54
-1.16
0.08
1.09
1.82
2.29
2.54
2.64
2.71
2.83
3.05
3.34
3.63
3.83
3.88
3.80
3.66
3.57
3.57
3.67
3.81
3.96
4.06
4.10
4.03
3.80
3.38
2.84
2.28
1.84
1.56
1.37
1.11
0.62
-0.13
-1.00
-1.75
-2.20
-2.35
-2.37
-2.45
-2.72
-3.17
-3.63
-3.98
-4.18
-4.31
-4.53
-4.98
-5.68
-6.53
-7.34
-7.92
-8.15
-7.96
-7.34
-6.34
-5.05
-3.62
-2.19
-0.94
0.02
0.68
1.09
1.38
1.66
1.97
2.33
2.67
2.97
3.18
3.33
3.44
3.51
3.54
3.53
3.48
3.43
3.42
3.46
3.54
3.62
3.65
3.57
3.36
3.03
2.63
2.19
1.76
1.34
0.94
0.59
0.31
0.13
0.07
0.07
0.07
-0.04
-0.33
-0.88
-1.67
-2.64
-3.64
-4.53
-5.20
-5.63
-5.88
-5.99
-6.00
-5.86
-5.51
-4.91
-4.12
-3.26
-2.44
-1.67
-0.89
0.01
1.05
2.12
3.05
3.67
3.93
3.94
3.86
3.84
3.92
4.07
4.20
4.26
4.28
4.33
4.48
4.74
5.05
5.27
5.29
5.08
4.71
4.30
3.97
3.76
3.64
3.48
3.20
2.73
2.12
1.51
1.03
0.75
0.67
0.68
0.65
0.49
0.19
-0.20
-0.60
-0.95
-1.22
-1.47
-1.76
-2.15
-2.70
-3.36
-4.09
-4.79
-5.41
-5.94
-6.36
-6.68
-6.85
-6.82
-6.49
-5.80
-4.77
-3.50
-2.12
-0.76
0.50
1.62
2.59
3.41
4.06
4.52
4.79
4.91
4.93
4.89
4.84
4.79
4.76
4.76
4.81
4.92
5.12
5.38
5.68
5.97
6.16
6.22
6.09
5.73
5.15
4.42
3.62
2.88
2.29
1.91
1.71
1.63
1.57
1.45
1.20
0.83
0.36
-0.14
-0.60
-0.98
-1.26
-1.50
-1.75
-2.08
-2.52
-3.06
-3.71
-4.44
-5.23
-6.04
-6.75
-7.24
-7.43
-7.31
-6.94
-6.41
-5.77
-5.00
-4.05
-2.89
-1.58
-0.27
0.85
1.60
1.97
2.02
1.92
1.83
1.85
1.98
2.16
2.31
2.40
2.47
2.57
2.76
3.05
3.38
3.70
3.96
4.12
4.19
4.17
4.04
3.79
3.42
2.96
2.45
1.95
1.50
1.13
0.80
0.50
0.18
-0.17
-0.55
-0.92
-1.28
-1.59
-1.89
-2.18
-2.49
-2.84
-3.20
-3.58
-4.00
-4.48
-5.07
-5.77
-6.53
-7.24
-7.74
-7.87
-7.56
-6.79
-5.65
-4.27
-2.78
-1.27
0.15
1.41
2.40
3.01
3.24
3.17
2.99
2.93
3.12
3.55
4.05
4.38
4.41
4.15
3.78
3.52
3.51
3.75
4.10
4.37
4.46
4.35
4.13
3.90
3.75
3.68
3.59
3.38
2.96
2.29
1.47
0.63
-0.05
-0.48
-0.65
-0.67
-0.65
-0.71
-0.88
-1.13
-1.40
-1.69
-1.99
-2.34
-2.76
-3.23
-3.71
-4.22
-4.78
-5.44
-6.22
-7.04
-7.74
-8.10
-7.99
-7.37
-6.32
-5.04
-3.74
-2.60
-1.74
-1.19
-0.89
-0.71
-0.48
-0.05
0.64
1.55
2.55
3.45
4.10
4.46
4.62
4.70
4.81
4.97
5.11
5.15
5.04
4.82
4.60
4.48
4.46
4.45
4.32
3.98
3.52
3.07
2.80
2.76
2.85
2.90
2.74
2.29
1.60
0.78
-0.01
-0.68
-1.17
-1.47
-1.64
-1.74
-1.85
-2.05
-2.34
-2.70
-3.12
-3.57
-4.07
-4.64
-5.24
-5.80
-6.22
-6.48
-6.62
-6.71
-6.81
-6.86
-6.74
-6.30
-5.49
-4.38
-3.13
-1.91
-0.78
0.26
1.26
2.23
3.07
3.68
3.97
3.96
3.79
3.62
3.60
3.77
4.02
4.21
4.24
4.10
3.86
3.66
3.58
3.60
3.62
3.55
3.33
3.02
2.69
2.43
2.22
1.99
1.63
1.13
0.56
0.05
-0.27
-0.41
-0.47
-0.58
-0.83
-1.17
-1.51
-1.74
-1.84
-1.90
-2.07
-2.44
-3.02
-3.73
-4.44
-5.07
-5.57
-5.99
-6.37
-6.76
-7.14
-7.48
-7.72
-7.80
-7.63
-7.14
-6.31
-5.19
-3.90
-2.59
-1.36
-0.27
0.72
1.62
2.45
3.16
3.67
3.93
3.97
3.91
3.84
3.84
3.93
4.05
4.19
4.32
4.46
4.64
4.83
4.95
4.95
4.80
4.55
4.29
4.12
4.05
4.05
4.02
3.89
3.63
3.30
2.95
2.62
2.28
1.84
1.19
0.26
-0.91
-2.20
-3.44
-4.49
-5.32
-5.98
-6.57
-7.17
-7.78
-8.32
-8.69
-8.81
-8.69
-8.36
-7.89
-7.28
-6.50
-5.55
-4.42
-3.19
-1.93
-0.69
0.51
1.67
2.77
3.81
4.73
5.50
6.09
6.51
6.75
6.83
6.75
6.55
6.30
6.08
5.97
5.99
6.08
6.17
6.14
5.92
5.49
4.91
4.27
3.66
3.14
2.72
2.40
2.16
1.97
1.79
1.48
0.95
0.17
-0.75
-1.60
-2.14
-2.26
-2.05
-1.76
-1.66
-1.92
-2.49
-3.20
-3.86
-4.39
-4.85
-5.31
-5.82
-6.37
-6.92
-7.40
-7.81
-8.12
-8.30
-8.29
-8.01
-7.44
-6.64
-5.67
-4.64
-3.57
-2.48
-1.38
-0.29
0.72
1.60
2.33
2.93
3.42
3.82
4.13
4.35
4.50
4.63
4.78
4.91
4.95
4.85
4.60
4.28
4.00
3.85
3.83
3.88
3.93
3.93
3.87
3.76
3.57
3.24
2.71
2.01
1.23
0.50
-0.07
-0.43
-0.63
-0.74
-0.85
-1.00
-1.23
-1.54
-1.91
-2.33
-2.74
-3.11
-3.45
-3.79
-4.18
-4.69
-5.31
-5.98
-6.60
-7.07
-7.31
-7.28
-6.92
-6.21
-5.16
-3.81
-2.30
-0.85
0.33
1.11
1.49
1.59
1.60
1.66
1.81
2.03
2.28
2.55
2.86
3.23
3.62
3.97
4.18
4.24
4.23
4.25
4.37
4.58
4.75
4.73
4.45
3.95
3.35
2.77
2.27
1.83
1.40
0.92
0.41
-0.05
-0.37
-0.50
-0.47
-0.41
-0.46
-0.74
-1.25
-1.92
-2.59
-3.14
-3.55
-3.89
-4.30
-4.89
-5.64
-6.43
-7.07
-7.41
-7.43
-7.20
-6.84
-6.43
-5.95
-5.33
-4.49
-3.44
-2.26
-1.05
0.11
1.20
2.23
3.17
3.95
4.46
4.61
4.42
4.05
3.69
3.54
3.65
4.00
4.41
4.76
4.93
4.94
4.82
4.65
4.49
4.36
4.25
4.16
4.04
3.86
3.56
3.14
2.59
1.97
1.36
0.83
0.43
0.16
-0.01
-0.12
-0.25
-0.47
-0.81
-1.30
-1.93
-2.63
-3.29
-3.83
-4.24
-4.61
-5.08
-5.75
-6.58
-7.40
-7.96
-8.06
-7.63
-6.79
-5.79
-4.85
-4.08
-3.47
-2.89
-2.18
-1.27
-0.17
1.00
2.12
3.06
3.73
4.15
4.38
4.50
4.57
4.59
4.54
4.42
4.27
4.16
4.15
4.28
4.52
4.78
4.93
4.88
4.58
4.06
3.35
2.56
1.75
1.02
0.42
-0.02
-0.31
-0.50
-0.64
-0.82
-1.08
-1.47
-1.97
-2.54
-3.10
-3.55
-3.86
-4.02
-4.11
-4.24
-4.49
-4.89
-5.39
-5.87
-6.20
-6.31
-6.19
-5.87
-5.38
-4.72
-3.90
-2.91
-1.79
-0.61
0.54
1.61
2.57
3.44
4.24
4.95
5.54
5.98
6.24
6.31
6.18
5.85
5.33
4.69
4.01
3.42
3.04
2.90
2.94
3.05
3.13
3.12
3.04
2.91
2.76
2.55
2.22
1.74
1.13
0.49
-0.06
-0.39
-0.48
-0.36
-0.14
0.03
0.06
-0.11
-0.45
-0.87
-1.28
-1.64
-1.97
-2.38
-2.97
-3.80
-4.80
-5.81
-6.65
-7.19
-7.38
-7.23
-6.76
-5.99
-4.93
-3.64
-2.25
-0.97
0.03
0.66
0.95
1.07
1.17
1.38
1.67
1.94
2.08
2.03
1.82
1.58
1.41
1.35
1.39
1.43
1.39
1.25
1.06
0.86
0.66
0.42
0.07
-0.41
-0.99
-1.58
-2.07
-2.39
-2.50
-2.36
-1.97
-1.32
-0.47
0.47
1.39
2.19
2.85
3.43
3.99
4.56
5.07
5.44
5.56
5.42
5.06
4.56
3.98
3.36
2.71
2.03
1.33
0.57
-0.29
-1.27
-2.32
-3.33
-4.10
-4.48
-4.39
-3.86
-3.03
-2.02
-0.96
0.07
1.06
1.96
2.74
3.33
3.70
3.80
3.66
3.32
2.88
2.48
2.28
2.38
2.75
3.25
3.68
3.86
3.70
3.27
2.73
2.24
1.91
1.76
1.73
1.72
1.65
1.49
1.26
1.01
0.81
0.65
0.51
0.35
0.13
-0.16
-0.45
-0.70
-0.88
-1.03
-1.26
-1.64
-2.17
-2.80
-3.38
-3.84
-4.16
-4.45
-4.79
-5.20
-5.59
-5.73
-5.42
-4.57
-3.31
-1.87
-0.54
0.52
1.27
1.80
2.22
2.56
2.79
2.85
2.73
2.53
2.41
2.50
2.85
3.37
3.88
4.18
4.18
3.90
3.49
3.14
2.99
3.02
3.15
3.21
3.05
2.65
2.06
1.40
0.79
0.27
-0.15
-0.50
-0.81
-1.04
-1.16
-1.18
-1.13
-1.12
-1.23
-1.56
-2.09
-2.77
-3.47
-4.07
-4.53
-4.89
-5.24
-5.67
-6.24
-6.93
-7.71
-8.53
-9.33
-10.05
-10.59
-10.84
-10.72
-10.21
-9.39
-8.40
-7.41
-6.52
-5.74
-4.98
-4.14
-3.15
-1.97
-0.65
0.72
2.01
3.14
4.08
4.87
5.63
6.45
7.35
8.30
9.18
9.88
10.37
10.65
10.74
10.65
10.32
9.74
8.91
7.95
7.02
6.29
5.84
5.64
5.57
5.49
5.27
4.87
4.30
3.64
3.02
2.54
2.22
2.05
1.89
1.62
1.13
0.43
-0.42
-1.26
-1.99
-2.53
-2.88
-3.08
-3.21
-3.33
-3.54
-3.89
-4.39
-5.01
-5.65
-6.20
-6.52
-6.55
-6.24
-5.63
-4.77
-3.73
-2.57
-1.37
-0.19
0.90
1.83
2.60
3.21
3.67
3.99
4.17
4.20
4.10
3.90
3.66
3.46
3.38
3.43
3.59
3.77
3.85
3.75
3.44
2.93
2.29
1.62
0.99
0.47
0.06
-0.25
-0.51
-0.73
-0.91
-1.00
-0.95
-0.78
-0.57
-0.48
-0.66
-1.14
-1.84
-2.54
-3.08
-3.39
-3.56
-3.71
-3.97
-4.30
-4.62
-4.81
-4.86
-4.85
-4.90
-5.07
-5.30
-5.44
-5.35
-4.96
-4.33
-3.60
-2.87
-2.18
-1.49
-0.72
0.13
0.99
1.74
2.23
2.40
2.32
2.12
2.00
2.08
2.37
2.80
3.23
3.54
3.70
3.77
3.85
3.96
4.09
4.15
4.03
3.67
3.13
2.52
1.94
1.50
1.19
0.96
0.77
0.58
0.41
0.28
0.19
0.11
-0.02
-0.24
-0.58
-1.05
-1.61
-2.25
-2.94
-3.64
-4.26
-4.74
-5.00
-5.07
-5.03
-5.05
-5.28
-5.76
-6.42
-7.06
-7.47
-7.49
-7.10
-6.38
-5.45
-4.45
-3.45
-2.47
-1.50
-0.58
0.20
0.74
0.96
0.92
0.75
0.67
0.81
1.19
1.64
1.94
1.89
1.45
0.75
0.00
-0.59
-0.92
-0.98
-0.88
-0.68
-0.44
-0.18
0.07
0.30
0.49
0.65
0.83
1.14
1.64
2.37
3.29
4.28
5.22
5.97
6.43
6.54
6.30
5.76
5.00
4.15
3.31
2.58
1.97
1.47
1.03
0.58
0.08
-0.46
-1.02
-1.58
-2.14
-2.72
-3.31
-3.87
-4.30
-4.47
-4.27
-3.70
-2.85
-1.88
-0.97
-0.23
0.35
0.84
1.33
1.88
2.43
2.89
3.19
3.29
3.25
3.16
3.08
3.06
3.06
3.06
3.05
3.04
3.06
3.11
3.11
2.99
2.67
2.19
1.64
1.15
0.79
0.55
0.38
0.18
-0.10
-0.44
-0.81
-1.15
-1.44
-1.70
-1.94
-2.14
-2.33
-2.51
-2.68
-2.85
-2.98
-3.03
-2.98
-2.84
-2.71
-2.67
-2.80
-3.09
-3.48
-3.89
-4.23
-4.44
-4.48
-4.31
-3.91
-3.27
-2.48
-1.67
-0.97
-0.44
-0.05
0.34
0.84
1.50
2.25
2.96
3.47
3.71
3.70
3.55
3.42
3.38
3.45
3.59
3.69
3.68
3.52
3.24
2.94
2.70
2.57
2.53
2.49
2.33
1.97
1.45
0.86
0.36
0.04
-0.08
-0.09
-0.10
-0.21
-0.42
-0.69
-0.96
-1.24
-1.56
-1.96
-2.46
-2.99
-3.47
-3.80
-3.97
-4.02
-4.09
-4.31
-4.73
-5.32
-5.91
-6.31
-6.36
-6.02
-5.34
-4.46
-3.54
-2.67
-1.89
-1.19
-0.54
0.12
0.78
1.45
2.10
2.70
3.23
3.65
3.98
4.21
4.33
4.32
4.16
3.88
3.56
3.34
3.38
3.72
4.29
4.90
5.34
5.47
5.28
4.87
4.39
3.93
3.49
3.04
2.53
1.99
1.48
1.09
0.86
0.77
0.75
0.72
0.63
0.51
0.41
0.35
0.32
0.23
-0.04
-0.56
-1.32
-2.20
-3.00
-3.57
-3.85
-3.95
-4.07
-4.38
-4.97
-5.72
-6.48
-7.03
-7.25
-7.09
-6.58
-5.78
-4.73
-3.52
-2.28
-1.16
-0.30
0.27
0.62
0.86
1.13
1.47
1.85
2.18
2.41
2.52
2.49
2.35
2.12
1.87
1.71
1.74
2.03
2.55
3.14
3.58
3.71
3.45
2.87
2.11
1.36
0.73
0.29
0.06
-0.00
0.03
0.07
0.06
-0.09
-0.41
-0.87
-1.43
-2.02
-2.55
-2.95
-3.16
-3.21
-3.17
-3.20
-3.44
-3.98
-4.78
-5.70
-6.56
-7.14
-7.28
-6.91
-6.08
-4.92
-3.64
-2.42
-1.38
-0.50
0.29
1.08
1.86
2.60
3.18
3.56
3.72
3.73
3.67
3.56
3.44
3.34
3.28
3.31
3.42
3.54
3.59
3.51
3.32
3.09
2.91
2.78
2.63
2.39
2.02
1.58
1.16
0.85
0.68
0.59
0.54
0.51
0.51
0.56
0.65
0.70
0.61
0.33
-0.15
-0.76
-1.44
-2.09
-2.71
-3.28
-3.80
-4.26
-4.62
-4.84
-4.92
-4.93
-4.99
-5.19
-5.56
-6.06
-6.54
-6.81
-6.76
-6.34
-5.60
-4.63
-3.53
-2.38
-1.24
-0.18
0.76
1.50
2.05
2.44
2.74
3.01
3.28
3.53
3.72
3.83
3.88
3.92
4.06
4.35
4.74
5.15
5.45
5.58
5.59
5.63
5.80
6.11
6.41
6.52
6.31
5.77
5.03
4.26
3.57
2.97
2.40
1.79
1.13
0.40
-0.43
-1.39
-2.49
-3.68
-4.86
-5.89
-6.75
-7.51
-8.38
-9.50
-10.89
-12.43
-13.88
-15.07
-15.89
-16.34
-16.43
-16.10
-15.25
-13.78
-11.72
-9.19
-6.45
-3.71
-1.15
1.16
3.22
5.03
6.61
7.96
9.12
10.11
10.94
11.58
11.94
11.97
11.69
11.18
10.59
10.05
9.60
9.19
8.76
8.27
7.74
7.18
6.62
6.04
5.37
4.56
3.58
2.50
1.41
0.42
-0.36
-0.94
-1.35
-1.70
-2.11
-2.67
-3.36
-4.09
-4.72
-5.11
-5.23
-5.14
-5.00
-4.97
-5.23
-5.84
-6.73
-7.75
-8.63
-9.12
-9.05
-8.37
-7.21
-5.78
-4.26
-2.78
-1.35
0.06
1.41
2.62
3.55
4.11
4.33
4.32
4.25
4.25
4.33
4.38
4.31
4.08
3.74
3.43
3.25
3.26
3.44
3.70
3.94
4.11
4.15
4.06
3.85
3.54
3.18
2.82
2.52
2.28
2.09
1.92
1.72
1.48
1.18
0.82
0.38
-0.15
-0.77
-1.44
-2.07
-2.61
-3.01
-3.32
-3.63
-4.01
-4.54
-5.17
-5.83
-6.42
-6.85
-7.11
-7.21
-7.19
-7.05
-6.77
-6.30
-5.60
-4.66
-3.53
-2.28
-1.02
0.20
1.33
2.39
3.39
4.28
5.00
5.43
5.54
5.34
4.95
4.53
4.24
4.18
4.34
4.65
4.97
5.16
5.18
5.03
4.79
4.56
4.42
4.34
4.28
4.16
3.94
3.63
3.30
3.01
2.77
2.56
2.27
1.86
1.30
0.63
-0.06
-0.69
-1.21
-1.65
-2.08
-2.57
-3.19
-3.95
-4.79
-5.62
-6.39
-7.06
-7.70
-8.37
-9.11
-9.88
-10.52
-10.87
-10.77
-10.16
-9.11
-7.68
-5.97
-4.04
-1.95
0.19
2.23
4.00
5.37
6.30
6.84
7.05
7.03
6.81
6.45
6.03
5.64
5.35
5.21
5.18
5.20
5.20
5.13
5.00
4.79
4.51
4.10
3.53
2.77
1.85
0.85
-0.14
-1.06
-1.89
-2.70
-3.58
-4.58
-5.71
-6.90
-8.02
-8.98
-9.70
-10.16
-10.41
-10.47
-10.38
-10.11
-9.66
-9.02
-8.23
-7.31
-6.29
-5.14
-3.83
-2.35
-0.67
1.16
3.06
4.91
6.58
7.98
9.06
9.80
10.27
10.53
10.64
10.63
10.51
10.24
9.81
9.22
8.51
7.76
7.02
6.37
5.82
5.39
5.03
4.72
4.37
3.96
3.47
2.91
2.31
1.70
1.12
0.59
0.12
-0.28
-0.61
-0.86
-1.03
-1.12
-1.13
-1.09
-1.05
-1.07
-1.20
-1.47
-1.85
-2.26
-2.65
-2.98
-3.23
-3.44
-3.65
-3.91
-4.25
-4.69
-5.23
-5.82
-6.43
-7.03
-7.61
-8.12
-8.48
-8.56
-8.22
-7.40
-6.18
-4.74
-3.39
-2.33
-1.62
-1.15
-0.71
-0.13
0.63
1.47
2.23
2.77
3.09
3.23
3.28
3.33
3.39
3.46
3.53
3.63
3.76
3.95
4.18
4.39
4.55
4.61
4.55
4.38
4.13
3.85
3.60
3.50
3.60
3.95
4.47
5.03
5.47
5.66
5.53
5.14
4.60
4.03
3.50
3.04
2.60
2.13
1.63
1.12
0.65
0.20
-0.29
-0.89
-1.69
-2.65
-3.70
-4.69
-5.51
-6.13
-6.60
-6.95
-7.18
-7.21
-6.97
-6.39
-5.49
-4.35
-3.13
-1.95
-0.91
-0.05
0.63
1.16
1.55
1.82
1.95
1.93
1.77
1.55
1.38
1.40
1.66
2.11
2.62
3.04
3.28
3.34
3.25
3.06
2.77
2.36
1.82
1.24
0.75
0.49
0.52
0.78
1.13
1.40
1.45
1.23
0.75
0.12
-0.55
-1.11
-1.45
-1.54
-1.44
-1.29
-1.22
-1.33
-1.63
-2.07
-2.57
-3.09
-3.62
-4.18
-4.76
-5.39
-6.06
-6.73
-7.32
-7.70
-7.72
-7.27
-6.34
-5.07
-3.66
-2.30
-1.13
-0.14
0.72
1.51
2.27
2.92
3.37
3.55
3.51
3.33
3.13
3.02
2.99
3.01
3.00
2.94
2.87
2.85
2.97
3.22
3.52
3.76
3.83
3.69
3.38
3.00
2.65
2.37
2.13
1.91
1.68
1.47
1.33
1.31
1.38
1.43
1.32
0.96
0.39
-0.26
-0.78
-1.05
-1.05
-0.90
-0.78
-0.86
-1.19
-1.69
-2.25
-2.73
-3.09
-3.35
-3.61
-3.93
-4.36
-4.89
-5.50
-6.12
-6.68
-7.11
-7.34
-7.33
-7.03
-6.45
-5.59
-4.49
-3.24
-1.94
-0.72
0.32
1.13
1.76
2.27
2.76
3.26
3.74
4.14
4.43
4.62
4.73
4.78
4.78
4.71
4.57
4.42
4.32
4.37
4.57
4.90
5.23
5.40
5.27
4.79
3.99
3.05
2.16
1.52
1.20
1.17
1.26
1.30
1.19
0.93
0.61
0.33
0.13
-0.05
-0.31
-0.73
-1.27
-1.80
-2.17
-2.32
-2.31
-2.30
-2.46
-2.86
-3.46
-4.11
-4.68
-5.12
-5.46
-5.84
-6.31
-6.84
-7.32
-7.54
-7.37
-6.77
-5.81
-4.60
-3.26
-1.88
-0.50
0.82
1.98
2.85
3.35
3.47
3.31
3.06
2.88
2.88
3.04
3.29
3.51
3.62
3.62
3.51
3.34
3.11
2.83
2.51
2.14
1.72
1.29
0.87
0.50
0.17
-0.10
-0.32
-0.51
-0.65
-0.76
-0.83
-0.84
-0.83
-0.85
-0.96
-1.22
-1.63
-2.14
-2.64
-3.05
-3.33
-3.50
-3.63
-3.81
-4.09
-4.49
-4.96
-5.46
-5.95
-6.43
-6.90
-7.30
-7.51
-7.37
-6.79
-5.78
-4.47
-3.07
-1.79
-0.74
0.08
0.76
1.40
2.09
2.80
3.48
4.09
4.58
4.95
5.21
5.38
5.46
5.47
5.46
5.42
5.37
5.29
5.14
4.93
4.71
4.55
4.47
4.47
4.48
4.39
4.16
3.77
3.27
2.75
2.25
1.83
1.51
1.30
1.21
1.21
1.22
1.15
0.94
0.57
0.08
-0.43
-0.91
-1.31
-1.63
-1.88
-2.09
-2.35
-2.72
-3.26
-3.95
-4.70
-5.36
-5.80
-6.00
-6.06
-6.10
-6.21
-6.38
-6.45
-6.24
-5.65
-4.67
-3.44
-2.18
-1.04
-0.11
0.66
1.35
2.03
2.70
3.30
3.78
4.08
4.25
4.38
4.54
4.79
5.09
5.37
5.56
5.64
5.63
5.57
5.48
5.33
5.05
4.60
3.99
3.31
2.70
2.28
2.08
2.05
2.09
2.09
2.00
1.83
1.60
1.32
0.97
0.53
0.05
-0.40
-0.76
-1.00
-1.17
-1.38
-1.70
-2.16
-2.70
-3.20
-3.59
-3.86
-4.06
-4.31
-4.70
-5.25
-5.89
-6.51
-6.95
-7.09
-6.89
-6.35
-5.56
-4.63
-3.67
-2.74
-1.87
-1.08
-0.34
0.37
1.03
1.64
2.13
2.45
2.58
2.52
2.34
2.13
1.99
1.97
2.10
2.30
2.50
2.64
2.71
2.73
2.75
2.76
2.70
2.53
2.19
1.73
1.26
0.88
0.68
0.64
0.68
0.68
0.54
0.26
-0.13
-0.52
-0.84
-1.07
-1.26
-1.47
-1.81
-2.32
-2.98
-3.72
-4.40
-4.92
-5.23
-5.36
-5.44
-5.62
-5.97
-6.46
-6.92
-7.14
-6.93
-6.23
-5.09
-3.68
-2.23
-0.93
0.12
0.89
1.48
1.98
2.47
2.98
3.47
3.85
4.06
4.08
3.97
3.82
3.69
3.66
3.72
3.88
4.12
4.39
4.65
4.83
4.91
4.91
4.88
4.84
4.77
4.61
4.28
3.77
3.12
2.47
1.93
1.58
1.41
1.34
1.26
1.08
0.78
0.39
-0.02
-0.38
-0.67
-0.89
-1.12
-1.38
-1.71
-2.09
-2.48
-2.85
-3.22
-3.60
-3.99
-4.38
-4.76
-5.11
-5.43
-5.74
-6.01
-6.14
-6.03
-5.56
-4.71
-3.57
-2.31
-1.10
-0.07
0.77
1.42
1.93
2.34
2.66
2.92
3.11
3.26
3.34
3.35
3.25
3.05
2.80
2.60
2.54
2.65
2.92
3.27
3.59
3.78
3.79
3.61
3.26
2.77
2.19
1.61
1.12
0.81
0.67
0.63
0.59
0.42
0.10
-0.31
-0.70
-0.98
-1.15
-1.28
-1.49
-1.84
-2.31
-2.83
-3.33
-3.80
-4.26
-4.75
-5.27
-5.75
-6.10
-6.24
-6.13
-5.83
-5.43
-5.02
-4.63
-4.19
-3.62
-2.83
-1.83
-0.69
0.44
1.44
2.24
2.81
3.17
3.32
3.29
3.12
2.91
2.77
2.77
2.93
3.19
3.46
3.67
3.80
3.87
3.90
3.86
3.70
3.42
3.03
2.59
2.17
1.80
1.48
1.18
0.87
0.57
0.30
0.05
-0.17
-0.41
-0.65
-0.87
-0.99
-0.97
-0.84
-0.69
-0.67
-0.94
-1.53
-2.38
-3.35
-4.21
-4.81
-5.12
-5.21
-5.28
-5.47
-5.89
-6.45
-6.98
-7.22
-7.03
-6.36
-5.33
-4.12
-2.90
-1.76
-0.69
0.36
1.42
2.46
3.41
4.14
4.60
4.78
4.76
4.66
4.60
4.65
4.84
5.13
5.44
5.73
5.94
6.06
6.03
5.82
5.45
4.95
4.44
4.02
3.78
3.68
3.65
3.56
3.34
3.01
2.62
2.26
1.97
1.72
1.45
1.10
0.65
0.13
-0.38
-0.79
-1.04
-1.13
-1.14
-1.15
-1.26
-1.50
-1.82
-2.13
-2.39
-2.60
-2.85
-3.23
-3.81
-4.58
-5.44
-6.22
-6.78
-7.00
-6.85
-6.34
-5.54
-4.55
-3.48
-2.43
-1.45
-0.55
0.27
1.06
1.84
2.57
3.16
3.48
3.47
3.13
2.60
2.06
1.68
1.53
1.54
1.60
1.62
1.60
1.63
1.80
2.09
2.43
2.64
2.62
2.38
2.00
1.62
1.33
1.14
0.96
0.74
0.46
0.14
-0.15
-0.38
-0.56
-0.76
-1.03
-1.40
-1.85
-2.32
-2.77
-3.16
-3.54
-4.00
-4.62
-5.42
-6.33
-7.18
-7.74
-7.84
-7.38
-6.44
-5.21
-3.95
-2.84
-1.96
-1.27
-0.64
0.05
0.82
1.61
2.31
2.81
3.07
3.17
3.21
3.32
3.53
3.81
4.08
4.28
4.38
4.38
4.30
4.13
3.86
3.54
3.22
2.98
2.87
2.88
2.89
2.74
2.32
1.64
0.81
0.02
-0.56
-0.77
-0.60
-0.19
0.20
0.33
0.03
-0.66
-1.61
-2.60
-3.35
-3.72
-3.79
-3.86
-4.20
-4.88
-5.78
-6.64
-7.24
-7.28
-6.64
-5.50
-4.26
-3.25
-2.60
-2.16
-1.63
-0.65
1.47
5.38
11.35
19.04
27.54
35.54
41.63
44.70
42.89
35.84
25.35
14.67
6.51
1.77
-0.19
-0.58
-0.43
-0.49
-0.55
-0.15
1.16
3.61
7.26
12.00
17.44
23.02
28.05
32.09
34.88
36.30
36.18
34.28
30.44
24.75
17.60
9.59
1.56
-5.88
-12.53
-18.55
-24.10
-29.06
-33.05
-35.59
-36.49
-36.05
-34.98
-34.23
-34.47
-35.74
-37.46
-38.69
-38.63
-36.96
-33.90
-29.96
-25.63
-21.21
-16.75
-12.30
-8.02
-4.26
-1.40
0.45
1.58
2.60
4.15
6.55
9.62
12.72
15.04
15.96
15.28
13.28
10.58
7.82
5.53
4.06
3.55
3.97
5.16
6.77
8.18
8.59
7.17
3.46
-2.37
-9.40
-16.24
-21.49
-24.25
-24.47
-22.82
-20.34
-17.98
-16.32
-15.48
-15.36
-15.79
-16.70
-18.03
-19.58
-20.97
-21.68
-21.27
-19.57
-16.79
-13.45
-10.19
-7.52
-5.65
-4.45
-3.54
-2.47
-0.99
0.88
2.87
4.58
5.73
6.19
6.14
5.89
5.73
5.83
6.17
6.58
6.87
6.95
6.88
6.80
6.84
7.06
7.36
7.55
7.43
6.91
6.03
4.96
3.93
3.10
2.57
2.33
2.33
2.52
2.81
3.09
3.16
2.82
1.95
0.57
-1.13
-2.90
-4.55
-5.98
-7.20
-8.24
-8.99
-9.28
-8.93
-7.87
-6.26
-4.38
-2.55
-1.01
0.22
1.25
2.22
3.23
4.28
5.25
6.01
6.44
6.50
6.27
5.90
5.62
5.67
6.23
7.34
8.83
10.40
11.67
12.37
12.37
11.77
10.76
9.54
8.23
6.87
5.45
4.01
2.65
1.51
0.71
0.29
0.13
0.07
-0.09
-0.44
-0.98
-1.63
-2.26
-2.81
-3.26
-3.66
-4.05
-4.49
-4.98
-5.56
-6.21
-6.92
-7.63
-8.24
-8.59
-8.55
-8.04
-7.10
-5.84
-4.45
-3.09
-1.82
-0.61
0.63
2.04
3.62
5.30
6.88
8.15
8.91
9.12
8.87
8.31
7.69
7.17
6.87
6.83
7.02
7.32
7.65
7.86
7.88
7.64
7.16
6.45
5.57
4.59
3.55
2.50
1.45
0.42
-0.56
-1.47
-2.28
-3.00
-3.66
-4.30
-4.93
-5.51
-6.00
-6.39
-6.74
-7.13
-7.63
-8.17
-8.54
-8.46
-7.74
-6.35
-4.50
-2.54
-0.79
0.59
1.60
2.42
3.19
3.98
4.76
5.39
5.76
5.84
5.71
5.51
5.44
5.59
5.97
6.47
6.91
7.14
7.12
6.91
6.65
6.44
6.27
6.10
5.80
5.33
4.71
4.04
3.38
2.79
2.21
1.60
0.93
0.22
-0.44
-1.00
-1.44
-1.80
-2.17
-2.61
-3.10
-3.60
-4.04
-4.39
-4.74
-5.20
-5.87
-6.82
-7.95
-9.07
-9.94
-10.33
-10.14
-9.36
-8.13
-6.61
-5.00
-3.42
-1.92
-0.49
0.91
2.27
3.53
4.59
5.34
5.77
5.94
6.01
6.13
6.37
6.75
7.19
7.61
7.95
8.19
8.34
8.38
8.34
8.23
8.08
7.88
7.62
7.23
6.67
5.95
5.15
4.42
3.88
3.55
3.36
3.16
2.82
2.28
1.60
0.88
0.22
-0.33
-0.80
-1.22
-1.62
-2.03
-2.46
-2.94
-3.49
-4.12
-4.81
-5.55
-6.29
-7.04
-7.80
-8.61
-9.46
-10.22
-10.70
-10.68
-10.01
-8.70
-6.92
-4.96
-3.10
-1.53
-0.31
0.63
1.43
2.20
2.98
3.73
4.34
4.72
4.85
4.81
4.74
4.77
4.94
5.18
5.36
5.37
5.17
4.83
4.48
4.23
4.11
4.03
3.86
3.50
2.91
2.17
1.43
0.80
0.30
-0.10
-0.52
-1.02
-1.57
-2.09
-2.49
-2.72
-2.80
-2.84
-2.92
-3.06
-3.27
-3.51
-3.82
-4.27
-4.96
-5.88
-6.91
-7.82
-8.32
-8.22
-7.44
-6.05
-4.25
-2.29
-0.41
1.24
2.56
3.53
4.16
4.49
4.59
4.52
4.38
4.23
4.15
4.17
4.32
4.58
4.93
5.32
5.65
5.84
5.82
5.56
5.13
4.63
4.20
3.89
3.67
3.46
3.13
2.65
2.04
1.35
0.67
0.04
-0.50
-0.95
-1.29
-1.56
-1.82
-2.15
-2.62
-3.25
-3.95
-4.60
-5.09
-5.33
-5.40
-5.43
-5.58
-5.97
-6.63
-7.46
-8.31
-8.99
-9.34
-9.22
-8.59
-7.47
-5.97
-4.26
-2.51
-0.86
0.61
1.87
2.95
3.84
4.54
5.03
5.32
5.45
5.51
5.57
5.68
5.80
5.88
5.84
5.67
5.39
5.09
4.84
4.69
4.61
4.56
4.47
4.30
4.01
3.58
3.03
2.42
1.83
1.37
1.10
1.00
0.96
0.83
0.54
0.11
-0.36
-0.77
-1.06
-1.30
-1.59
-2.01
-2.58
-3.22
-3.82
-4.37
-4.89
-5.45
-6.10
-6.85
-7.63
-8.33
-8.83
-9.02
-8.85
-8.29
-7.34
-6.02
-4.42
-2.63
-0.78
0.97
2.49
3.64
4.33
4.57
4.44
4.11
3.78
3.58
3.57
3.72
3.97
4.27
4.55
4.77
4.86
4.78
4.45
3.89
3.18
2.42
1.76
1.28
1.01
0.90
0.83
0.66
0.29
-0.35
-1.18
-2.06
-2.82
-3.31
-3.52
-3.52
-3.44
-3.38
-3.44
-3.62
-3.95
-4.42
-5.04
-5.80
-6.62
-7.39
-7.91
-8.02
-7.58
-6.59
-5.13
-3.39
-1.64
-0.09
1.14
2.03
2.66
3.13
3.53
3.87
4.10
4.19
4.14
4.01
3.92
3.97
4.15
4.37
4.50
4.44
4.16
3.75
3.35
3.06
2.92
2.88
2.84
2.72
2.52
2.26
2.01
1.77
1.48
1.07
0.45
-0.37
-1.28
-2.13
-2.76
-3.09
-3.21
-3.27
-3.45
-3.80
-4.31
-4.85
-5.36
-5.82
-6.33
-6.98
-7.83
-8.77
-9.56
-9.94
-9.70
-8.79
-7.33
-5.56
-3.75
-2.08
-0.61
0.71
1.92
3.05
4.04
4.77
5.14
5.14
4.90
4.61
4.47
4.58
4.96
5.47
5.95
6.19
6.10
5.69
5.10
4.55
4.20
4.14
4.30
4.47
4.44
4.10
3.48
2.69
1.87
1.12
0.46
-0.10
-0.57
-0.94
-1.12
-1.03
-0.74
-0.46
-0.44
-0.89
-1.79
-2.98
-4.25
-5.24
-5.72
-5.73
-5.60
-5.74
-6.42
-7.58
-8.90
-9.99
-10.26
-9.32
-7.14
-4.25
-1.29
1.23
3.27
5.04
6.87
9.37
13.10
18.26
24.51
31.20
37.50
42.49
44.97
42.18
32.40
16.55
-1.62
-17.63
-28.40
-34.05
-36.06
-36.12
-35.75
-35.80
-36.54
-37.28
-37.72
-37.56
-36.30
-33.30
-28.23
-21.33
-13.15
-4.48
3.83
10.91
16.31
19.97
22.21
23.32
23.54
23.19
22.70
22.42
22.42
22.51
22.32
21.49
19.77
17.14
14.02
11.11
9.12
8.37
8.83
10.10
11.64
12.96
13.67
13.56
12.51
10.47
7.45
3.64
-0.54
-4.42
-7.30
-8.68
-8.46
-6.95
-4.79
-2.60
-0.75
0.79
2.38
4.41
7.11
10.40
14.02
17.72
21.40
25.18
29.16
33.26
37.04
39.82
40.82
39.50
35.66
29.45
21.40
12.20
2.68
-6.38
-14.38
-20.97
-26.12
-30.13
-33.43
-36.45
-39.48
-42.53
-45.35
-47.46
-48.31
-47.47
-44.80
-40.52
-35.17
-29.43
-23.93
-19.17
-15.45
-12.88
-11.47
-11.14
-11.68
-12.77
-14.03
-15.09
-15.71
-15.78
-15.26
-14.22
-12.74
-10.94
-9.00
-7.10
-5.39
-3.92
-2.65
-1.47
-0.29
0.90
2.03
2.98
3.67
4.05
4.16
4.08
3.86
3.55
3.17
2.76
2.38
2.10
1.96
1.91
1.83
1.52
0.81
-0.36
-1.91
-3.63
-5.19
-6.28
-6.66
-6.22
-5.03
-3.32
-1.41
0.37
1.71
2.44
2.53
2.03
1.09
-0.08
-1.26
-2.23
-2.76
-2.75
-2.21
-1.36
-0.53
-0.06
-0.20
-0.96
-2.14
-3.37
-4.29
-4.62
-4.30
-3.49
-2.49
-1.61
-1.08
-0.98
-1.25
-1.79
-2.48
-3.23
-3.95
-4.53
-4.90
-5.06
-5.16
-5.51
-6.42
-8.05
-10.26
-12.58
-14.39
-15.20
-14.85
-13.60
-11.99
-10.65
-9.96
-9.96
-10.32
-10.55
-10.23
-9.30
-8.08
-7.14
-7.07
-8.20
-10.46
-13.37
-16.15
-17.77
-16.99
-12.60
-3.80
9.26
25.14
41.25
54.75
63.62
67.48
67.67
66.51
66.11
67.51
70.44
73.85
76.66
78.35
79.01
79.03
78.61
77.56
75.40
71.66
66.16
59.07
50.84
41.96
32.86
23.84
15.12
6.96
-0.23
-5.96
-9.80
-11.62
-11.82
-11.30
-11.23
-12.64
-16.01
-21.02
-26.67
-31.63
-34.73
-35.40
-33.83
-30.78
-27.21
-23.89
-21.22
-19.23
-17.75
-16.63
-15.80
-15.34
-15.37
-15.94
-17.03
-18.49
-20.09
-21.55
-22.56
-22.80
-22.03
-20.19
-17.45
-14.19
-10.88
-7.92
-5.59
-4.00
-3.19
-3.15
-3.79
-4.95
-6.32
-7.56
-8.42
-8.88
-9.15
-9.54
-10.33
-11.57
-13.08
-14.61
-16.01
-17.32
-18.78
-20.61
-22.85
-25.27
-27.41
-28.79
-29.09
-28.27
-26.57
-24.38
-22.05
-19.86
-17.87
-16.10
-14.51
-13.10
-11.90
-10.95
-10.25
-9.71
-9.24
-8.70
-8.05
-7.30
-6.55
-5.98
-5.73
-5.87
-6.35
-7.02
-7.62
-7.93
-7.74
-6.95
-5.60
-3.79
-1.69
0.54
2.78
4.95
6.99
8.81
10.32
11.41
12.02
12.11
11.74
11.04
10.15
9.25
8.50
8.03
7.90
8.13
8.64
9.32
10.03
10.58
10.85
10.77
10.37
9.79
9.23
8.84
8.65
8.56
8.39
7.94
7.19
6.21
5.18
4.27
3.55
2.93
2.25
1.36
0.18
-1.23
-2.71
-4.00
-4.87
-5.14
-4.76
-3.77
-2.30
-0.48
1.55
3.62
5.51
6.99
7.82
7.93
7.38
6.42
5.39
4.55
4.02
3.71
3.47
3.12
2.60
1.96
1.33
0.85
0.59
0.52
0.54
0.58
0.57
0.54
0.52
0.53
0.54
0.48
0.29
-0.04
-0.46
-0.91
-1.36
-1.84
-2.40
-3.06
-3.76
-4.34
-4.59
-4.35
-3.56
-2.28
-0.66
1.11
2.81
4.31
5.48
6.30
6.79
7.00
6.99
6.78
6.36
5.70
4.82
3.75
2.62
1.55
0.66
-0.01
-0.44
-0.65
-0.72
-0.73
-0.79
-0.99
-1.35
-1.82
-2.34
-2.85
-3.36
-3.91
-4.52
-5.17
-5.82
-6.41
-6.98
-7.57
-8.24
-8.93
-9.47
-9.65
-9.30
-8.41
-7.09
-5.49
-3.75
-1.91
0.01
1.98
3.89
5.57
6.84
7.57
7.73
7.38
6.68
5.78
4.84
3.97
3.22
2.65
2.30
2.23
2.46
2.94
3.50
3.92
4.02
3.74
3.20
2.58
2.05
1.63
1.23
0.71
-0.01
-0.91
-1.84
-2.69
-3.41
-4.04
-4.72
-5.56
-6.57
-7.64
-8.54
-9.00
-8.79
-7.84
-6.24
-4.27
-2.26
-0.48
0.94
2.04
2.92
3.66
4.27
4.67
4.80
4.68
4.42
4.15
3.96
3.81
3.62
3.33
2.99
2.74
2.68
2.85
3.17
3.47
3.60
3.46
3.09
2.53
1.89
1.20
0.50
-0.17
-0.76
-1.22
-1.54
-1.78
-2.06
-2.56
-3.38
-4.52
-5.85
-7.08
-7.92
-8.15
-7.69
-6.62
-5.11
-3.37
-1.57
0.17
1.78
3.21
4.39
5.25
5.74
5.80
5.44
4.70
3.71
2.64
1.70
1.07
0.83
0.95
1.26
1.51
1.52
1.22
0.73
0.24
-0.06
-0.14
-0.12
-0.26
-0.79
-1.77
-3.06
-4.40
-5.51
-6.23
-6.56
-6.66
-6.79
-7.18
-8.00
-9.29
-10.96
-12.76
-14.34
-15.37
-15.66
-15.25
-14.41
-13.44
-12.55
-11.72
-10.69
-9.15
-6.94
-4.20
-1.33
1.15
2.95
4.06
4.77
5.59
7.23
10.58
16.77
26.93
41.64
60.24
80.50
98.83
111.36
115.20
109.48
95.42
75.73
53.47
31.28
11.07
-5.76
-18.04
-24.84
-25.87
-21.92
-15.04
-8.01
-3.40
-2.63
-5.43
-10.17
-14.75
-17.67
-18.67
-18.62
-18.80
-20.00
-22.07
-24.01
-24.65
-23.35
-20.39
-16.70
-13.34
-10.97
-9.63
-8.93
-8.30
-7.39
-6.14
-4.77
-3.58
-2.75
-2.23
-1.76
-0.95
0.50
2.62
5.12
7.48
9.18
9.95
9.88
9.38
8.87
8.66
8.76
9.02
9.23
9.31
9.34
9.53
10.08
11.14
12.69
14.62
16.75
18.86
20.71
22.05
22.59
22.12
20.52
17.84
14.27
10.08
5.54
0.89
-3.70
-8.08
-12.13
-15.70
-18.71
-21.14
-23.01
-24.35
-25.21
-25.58
-25.46
-24.87
-23.90
-22.68
-21.38
-20.12
-19.00
-18.11
-17.52
-17.31
-17.51
-18.06
-18.81
-19.55
-20.04
-20.09
-19.60
-18.57
-17.09
-15.31
-13.39
-11.52
-9.89
-8.70
-8.11
-8.24
-9.02
-10.29
-11.76
-13.12
-14.18
-14.84
-15.12
-15.10
-14.81
-14.25
-13.41
-12.35
-11.24
-10.35
-9.86
-9.85
-10.22
-10.76
-11.28
-11.73
-12.18
-12.74
-13.46
-14.23
-14.82
-15.00
-14.64
-13.78
-12.57
-11.20
-9.79
-8.40
-7.03
-5.67
-4.39
-3.24
-2.26
-1.46
-0.82
-0.32
0.05
0.28
0.35
0.30
0.19
0.04
-0.15
-0.47
-1.03
-1.88
-2.95
-4.00
-4.71
-4.80
-4.20
-3.01
-1.48
0.11
1.60
2.91
4.05
5.00
5.69
6.09
6.20
6.15
6.12
6.28
6.69
7.28
7.97
8.65
9.28
9.84
10.29
10.58
10.69
10.60
10.32
9.84
9.11
8.11
6.84
5.42
4.05
2.89
2.00
1.30
0.61
-0.24
-1.35
-2.66
-4.05
-5.38
-6.52
-7.36
-7.79
-7.68
-6.93
-5.50
-3.51
-1.16
1.26
3.50
5.35
6.74
7.67
8.17
8.28
8.04
7.53
6.89
6.28
5.87
5.76
5.91
6.20
6.42
6.43
6.15
5.60
4.87
4.06
3.21
2.33
1.39
0.37
-0.74
-1.91
-3.03
-4.05
-4.89
-5.59
-6.21
-6.83
-7.53
-8.31
-9.17
-10.03
-10.84
-11.52
-11.96
-12.07
-11.74
-10.91
-9.61
-7.98
-6.17
-4.37
-2.70
-1.19
0.13
1.22
2.02
2.46
2.53
2.36
2.12
2.05
2.32
2.99
4.00
5.23
6.53
7.80
8.99
10.06
10.98
11.71
12.19
12.39
12.34
12.17
12.12
12.56
13.89
16.46
20.38
25.53
31.47
37.53
42.92
46.86
48.76
48.28
45.42
40.50
34.14
27.10
20.19
14.15
9.54
6.62
5.38
5.53
6.62
8.13
9.74
11.37
13.30
16.03
20.10
25.88
33.32
42.01
51.14
59.80
67.11
72.43
75.45
76.23
75.12
72.69
69.55
66.18
62.83
59.44
55.79
51.69
47.06
41.84
35.85
28.59
19.41
7.74
-6.49
-22.62
-39.44
-55.55
-69.92
-82.04
-91.86
-99.48
-104.86
-107.80
-108.01
-105.43
-100.41
-93.75
-86.53
-79.76
-74.08
-69.51
-65.44
-60.99
-55.40
-48.40
-40.35
-32.07
-24.45
-18.14
-13.40
-10.18
-8.32
-7.64
-7.89
-8.74
-9.78
-10.69
-11.44
-12.34
-13.92
-16.67
-20.82
-26.10
-31.83
-37.12
-41.08
-43.11
-43.01
-40.98
-37.49
-33.08
-28.20
-23.13
-18.12
-13.53
-9.93
-8.01
-8.33
-10.89
-15.06
-19.72
-23.61
-25.82
-25.87
-23.69
-19.52
-14.05
-8.67
-5.45
-6.36
-11.97
-20.39
-27.31
-27.62
-17.91
1.56
26.66
51.19
69.75
79.98
83.05
82.26
80.75
79.88
79.04
76.77
72.27
66.15
60.13
55.92
54.06
53.51
52.24
48.40
41.40
32.35
23.50
17.01
13.91
13.62
14.44
14.64
13.37
10.97
8.60
7.42
8.03
10.24
13.41
16.79
19.79
21.97
22.94
22.30
19.78
15.48
9.99
4.27
-0.61
-3.92
-5.48
-5.65
-5.13
-4.58
-4.46
-4.86
-5.68
-6.69
-7.70
-8.57
-9.21
-9.65
-10.08
-10.87
-12.46
-15.25
-19.30
-24.26
-29.36
-33.68
-36.40
-37.10
-35.81
-32.88
-28.84
-24.24
-19.59
-15.38
-11.97
-9.62
-8.28
-7.69
-7.39
-6.94
-6.02
-4.49
-2.33
0.49
4.02
8.27
13.16
18.40
23.53
28.03
31.55
34.14
36.31
38.95
43.05
49.17
56.97
65.03
71.15
73.06
69.25
59.46
44.69
26.72
7.61
-10.60
-25.96
-36.80
-42.08
-41.92
-37.72
-31.82
-26.58
-23.40
-22.25
-21.95
-20.94
-18.30
-14.12
-9.37
-5.25
-2.65
-1.86
-2.74
-4.92
-8.02
-11.64
-15.20
-18.00
-19.35
-18.85
-16.61
-13.46
-10.71
-9.77
-11.55
-16.10
-22.60
-29.64
-35.76
-39.94
-41.79
-41.57
-39.97
-37.82
-35.86
-34.62
-34.35
-35.00
-36.33
-37.94
-39.44
-40.41
-40.57
-39.77
-38.06
-35.59
-32.54
-29.02
-25.01
-20.36
-14.89
-8.54
-1.42
6.17
13.85
21.26
28.12
34.26
39.54
43.78
46.78
48.37
48.51
47.37
45.30
42.75
40.08
37.50
34.97
32.32
29.39
26.07
22.39
18.46
14.44
10.54
6.93
3.77
1.20
-0.75
-2.13
-3.07
-3.80
-4.49
-5.23
-5.98
-6.57
-6.77
-6.40
-5.42
-3.93
-2.17
-0.48
0.86
1.66
1.84
1.33
0.07
-2.03
-5.06
-9.06
-13.90
-19.22
-24.49
-29.06
-32.36
-34.10
-34.27
-33.17
-31.16
-28.59
-25.61
-22.29
-18.65
-14.86
-11.20
-8.00
-5.53
-3.86
-2.89
-2.37
-2.02
-1.64
-1.08
-0.32
0.63
1.68
2.76
3.78
4.68
5.39
5.90
6.21
6.37
6.47
6.61
6.85
7.21
7.62
7.94
8.05
7.87
7.40
6.71
5.87
4.97
4.08
3.24
2.50
1.94
1.57
1.41
1.37
1.34
1.18
0.85
0.35
-0.21
-0.78
-1.39
-2.17
-3.26
-4.72
-6.43
-8.13
-9.50
-10.26
-10.26
-9.49
-8.04
-6.06
-3.75
-1.35
0.93
2.89
4.43
5.56
6.34
6.84
7.12
7.25
7.29
7.32
7.41
7.60
7.87
8.14
8.38
8.56
8.70
8.83
8.99
9.17
9.34
9.46
9.48
9.36
9.07
8.64
8.14
7.68
7.35
7.19
7.13
7.01
6.72
6.18
5.45
4.67
3.98
3.42
2.93
2.41
1.74
0.91
-0.04
-0.99
-1.86
-2.64
-3.37
-4.09
-4.84
-5.61
-6.39
-7.10
-7.71
-8.18
-8.47
-8.46
-8.03
-7.11
-5.76
-4.14
-2.42
-0.72
0.87
2.32
3.59
4.63
5.31
5.52
5.26
4.71
4.09
3.62
3.37
3.36
3.58
3.97
4.48
5.02
5.72
6.62
7.62
8.49
9.00
9.09
8.77
8.19
7.59
7.80
9.41
12.36
15.93
19.10
21.17
21.97
22.01
22.25
24.58
30.24
39.19
50.07
61.10
70.88
78.67
84.35
88.21
91.76
96.13
101.52
107.12
111.81
114.74
115.11
111.97
97.87
69.21
28.46
-16.49
-57.14
-87.98
-107.29
-116.63
-119.49
-119.87
-119.88
-120.10
-120.00
-118.70
-115.52
-110.25
-103.89
-97.89
-93.43
-90.41
-88.80
-89.33
-93.13
-100.84
-109.40
-114.02
-109.34
-91.86
-61.53
-22.82
16.89
48.19
66.21
71.78
69.35
64.21
59.88
57.42
55.98
54.30
51.89
49.57
48.53
49.09
50.67
52.23
52.88
52.66
52.31
52.55
53.44
53.68
50.77
42.45
28.14
9.54
-9.81
-26.06
-36.58
-40.84
-39.88
-35.67
-30.02
-24.10
-18.55
-13.84
-10.51
-9.05
-9.50
-11.30
-13.46
-14.97
-15.07
-13.57
-10.77
-7.26
-3.62
-0.24
2.72
5.20
7.19
8.70
9.70
10.26
10.61
11.10
12.16
14.03
16.70
19.86
22.89
24.97
25.38
23.61
19.62
13.84
7.13
0.59
-4.69
-8.01
-9.24
-8.86
-7.78
-7.06
-7.02
-7.99
-9.94
-12.53
-15.34
-17.97
-20.18
-21.92
-23.21
-24.11
-24.70
-24.96
-24.82
-24.23
-23.20
-21.83
-20.27
-18.66
-17.07
-15.56
-14.11
-12.73
-11.49
-10.56
-10.09
-10.18
-10.76
-11.59
-12.47
-13.23
-13.84
-14.40
-15.04
-15.78
-16.49
-16.92
-16.82
-15.99
-14.37
-11.91
-8.63
-4.60
-0.00
4.69
8.81
11.61
12.59
11.75
9.65
7.20
5.30
4.44
4.58
5.27
5.97
6.33
6.38
6.49
7.13
8.65
11.22
14.77
19.03
23.41
27.01
28.77
27.84
24.02
18.01
11.31
5.60
2.04
0.87
1.38
2.45
3.17
3.19
2.76
2.30
2.12
2.20
2.34
2.40
2.47
2.85
3.87
5.64
7.97
10.26
11.81
12.08
10.92
8.61
5.75
2.94
0.55
-1.39
-3.09
-4.80
-6.63
-8.49
-10.22
-11.68
-12.80
-13.60
-14.09
-14.26
-14.10
-13.59
-12.80
-11.84
-10.81
-9.80
-8.79
-7.67
-6.31
-4.59
-2.50
-0.17
2.13
4.09
5.47
6.18
6.31
6.05
5.59
5.06
4.44
3.70
2.81
1.79
0.74
-0.25
-1.10
-1.79
-2.32
-2.69
-2.88
-2.92
-2.87
-2.82
-2.87
-3.07
-3.41
-3.81
-4.19
-4.47
-4.57
-4.49
-4.22
-3.80
-3.27
-2.73
-2.26
-1.94
-1.81
-1.85
-2.02
-2.27
-2.61
-3.05
-3.62
-4.26
-4.88
-5.29
-5.35
-4.94
-4.08
-2.88
-1.52
-0.17
1.05
2.03
2.74
3.13
3.19
2.96
2.51
1.97
1.45
1.02
0.73
0.58
0.59
0.80
1.23
1.88
2.66
3.45
4.12
4.63
5.02
5.39
5.83
6.31
6.72
6.92
6.81
6.43
5.87
5.25
4.59
3.86
3.01
2.04
1.02
0.10
-0.64
-1.15
-1.53
-1.86
-2.23
-2.69
-3.27
-4.01
-4.94
-6.03
-7.08
-7.81
-7.90
-7.16
-5.62
-3.48
-1.06
1.36
3.60
5.52
7.05
8.07
8.52
8.44
8.00
7.45
7.03
6.82
6.74
6.54
6.01
5.02
3.69
2.25
1.03
0.25
0.01
0.24
0.76
1.38
1.95
2.42
2.79
3.11
3.43
3.81
4.26
4.76
5.27
5.69
5.89
5.78
5.33
4.60
3.74
2.91
2.24
1.74
1.33
0.84
0.08
-1.02
-2.47
-4.14
-5.81
-7.22
-8.12
-8.38
-7.95
-6.95
-5.57
-4.04
-2.55
-1.21
-0.02
1.08
2.15
3.19
4.22
5.20
6.11
6.97
7.79
8.56
9.23
9.72
9.94
9.84
9.41
8.73
7.85
6.87
5.76
4.48
2.97
1.25
-0.52
-2.07
-3.12
-3.48
-3.18
-2.47
-1.76
-1.44
-1.75
-2.73
-4.28
-6.18
-8.18
-10.03
-11.46
-12.23
-12.17
-11.26
-9.68
-7.75
-5.79
-4.03
-2.52
-1.14
0.30
1.91
3.71
5.60
7.38
8.89
9.95
10.47
10.38
9.70
8.53
7.04
5.46
3.97
2.71
1.72
0.98
0.45
0.11
-0.04
-0.01
0.17
0.44
0.74
1.00
1.18
1.28
1.34
1.38
1.44
1.50
1.56
1.57
1.49
1.28
0.97
0.64
0.37
0.24
0.24
0.26
0.16
-0.18
-0.79
-1.63
-2.55
-3.34
-3.83
-3.93
-3.61
-2.99
-2.19
-1.41
-0.76
-0.33
-0.11
-0.02
0.00
0.05
0.16
0.33
0.51
0.63
0.59
0.34
-0.10
-0.64
-1.12
-1.43
-1.47
-1.24
-0.74
-0.00
0.97
2.15
3.48
4.84
6.12
7.19
7.96
8.40
8.54
8.40
8.03
7.48
6.79
6.01
5.18
4.31
3.45
2.63
1.89
1.27
0.78
0.39
0.02
-0.41
-0.98
-1.70
-2.55
-3.43
-4.22
-4.79
-5.06
-5.01
-4.71
-4.28
-3.81
-3.38
-3.00
-2.67
-2.38
-2.17
-2.06
-2.09
-2.26
-2.55
-2.90
-3.27
-3.63
-3.93
-4.12
-4.19
-4.13
-4.05
-4.05
-4.31
-4.91
-5.85
-7.03
-8.29
-9.51
-10.64
-11.71
-12.81
-14.00
-15.30
-16.61
-17.86
-18.98
-20.06
-21.23
-22.63
-24.31
-26.20
-28.14
-29.92
-31.40
-32.54
-33.28
-33.57
-33.21
-31.93
-29.47
-25.70
-20.64
-14.48
-7.41
0.45
9.02
18.22
27.76
37.16
45.82
53.16
58.83
62.75
65.09
66.15
66.21
65.47
64.08
62.10
59.55
56.36
52.43
47.68
42.09
35.82
29.15
22.48
16.23
10.75
6.27
2.87
0.42
-1.30
-2.61
-3.76
-4.92
-6.11
-7.26
-8.29
-9.14
-9.80
-10.31
-10.72
-11.06
-11.35
-11.59
-11.75
-11.77
-11.54
-10.99
-10.10
-8.98
-7.80
-6.76
-5.97
-5.44
-5.09
-4.82
-4.62
-4.54
-4.70
-5.10
-5.64
-6.11
-6.34
-6.26
-5.96
-5.61
-5.36
-5.23
-5.15
-5.00
-4.74
-4.41
-4.16
-4.14
-4.36
-4.70
-4.97
-4.99
-4.71
-4.22
-3.72
-3.40
-3.42
-3.83
-4.56
-5.47
-6.36
-6.99
-7.20
-6.94
-6.27
-5.44
-4.71
-4.32
-4.37
-4.82
-5.52
-6.25
-6.80
-6.99
-6.69
-5.90
-4.70
-3.32
-1.98
-0.93
-0.25
0.11
0.28
0.40
0.57
0.75
0.90
0.93
0.86
0.75
0.69
0.76
0.94
1.13
1.21
1.05
0.63
0.00
-0.69
-1.30
-1.73
-1.98
-2.13
-2.28
-2.52
-2.84
-3.17
-3.44
-3.61
-3.72
-3.84
-4.06
-4.38
-4.79
-5.22
-5.64
-6.01
-6.32
-6.59
-6.86
-7.19
-7.64
-8.26
-9.00
-9.75
-10.31
-10.54
-10.36
-9.84
-9.17
-8.56
-8.13
-7.92
-7.90
-8.00
-8.15
-8.29
-8.26
-7.82
-6.68
-4.58
-1.50
2.34
6.46
10.29
13.36
15.48
16.74
17.45
18.01
18.68
19.57
20.55
21.38
21.79
21.68
21.12
20.30
19.48
18.77
18.16
17.56
16.98
16.62
16.77
17.73
19.50
21.77
24.00
25.65
26.42
26.35
25.71
24.80
23.72
22.40
20.65
18.36
15.64
12.77
10.07
7.72
5.67
3.64
1.29
-1.58
-4.89
-8.28
-11.23
-13.34
-14.50
-14.92
-15.07
-15.45
-16.40
-18.09
-20.49
-23.52
-27.03
-30.83
-34.64
-38.08
-40.78
-42.44
-42.99
-42.55
-41.39
-39.81
-38.07
-36.29
-34.48
-32.53
-30.27
-27.60
-24.52
-21.22
-18.02
-15.30
-13.34
-12.16
-11.49
-10.84
-9.65
-7.54
-4.45
-0.70
3.12
6.36
8.48
9.24
8.63
6.88
4.35
1.46
-1.26
-3.24
-3.99
-3.23
-1.09
1.95
5.23
8.21
10.65
12.66
14.60
16.79
19.34
22.15
25.00
27.69
30.13
32.30
34.16
35.62
36.58
36.97
36.82
36.19
35.19
33.86
32.21
30.24
27.98
25.49
22.79
19.94
16.94
13.84
10.75
7.77
4.94
2.25
-0.41
-3.08
-5.71
-8.14
-10.16
-11.64
-12.60
-13.21
-13.67
-14.14
-14.73
-15.42
-16.17
-16.89
-17.43
-17.62
-17.30
-16.40
-14.97
-13.25
-11.53
-10.07
-8.93
-7.89
-6.59
-4.70
-2.18
0.57
2.85
3.92
3.37
1.39
-1.33
-3.87
-5.47
-5.85
-5.24
-4.16
-3.13
-2.40
-1.97
-1.66
-1.30
-0.89
-0.56
-0.45
-0.65
-1.12
-1.72
-2.24
-2.58
-2.68
-2.66
-2.68
-2.91
-3.44
-4.27
-5.27
-6.25
-7.01
-7.43
-7.49
-7.28
-6.95
-6.62
-6.40
-6.30
-6.30
-6.36
-6.38
-6.29
-5.99
-5.45
-4.66
-3.70
-2.69
-1.75
-0.98
-0.37
0.11
0.54
0.94
1.32
1.63
1.84
1.91
1.86
1.71
1.46
1.17
0.89
0.72
0.74
0.98
1.41
1.88
2.25
2.40
2.31
2.05
1.70
1.35
1.01
0.68
0.35
0.00
-0.35
-0.68
-0.96
-1.18
-1.35
-1.49
-1.65
-1.85
-2.12
-2.45
-2.85
-3.31
-3.81
-4.33
-4.80
-5.11
-5.16
-4.86
-4.19
-3.23
-2.12
-1.02
-0.07
0.68
1.22
1.61
1.91
2.13
2.29
2.37
2.37
2.34
2.32
2.37
2.47
2.60
2.71
2.78
2.86
2.98
3.17
3.38
3.54
3.53
3.33
2.94
2.46
1.99
1.66
1.52
1.57
1.74
1.90
1.91
1.68
1.17
0.45
-0.38
-1.20
-1.89
-2.42
-2.77
-2.94
-2.98
-2.95
-2.96
-3.09
-3.35
-3.67
-3.90
-3.89
-3.50
-2.71
-1.61
-0.35
0.87
1.92
2.69
3.14
3.25
3.06
2.64
2.15
1.72
1.46
1.40
1.48
1.57
1.56
1.38
1.07
0.72
0.41
0.20
0.07
0.00
-0.05
-0.08
-0.09
-0.07
-0.05
-0.07
-0.17
-0.36
-0.63
-0.96
-1.36
-1.85
-2.43
-3.08
-3.75
-4.38
-4.91
-5.34
-5.68
-5.94
-6.18
-6.42
-6.69
-6.98
-7.21
-7.27
-7.02
-6.36
-5.27
-3.79
-2.05
-0.17
1.72
3.51
5.11
6.39
7.22
7.56
7.42
6.94
6.28
5.62
5.09
4.72
4.48
4.33
4.23
4.18
4.16
4.18
4.21
4.22
4.19
4.10
3.96
3.79
3.56
3.21
2.73
2.12
1.48
0.98
0.74
0.79
1.04
1.27
1.29
1.01
0.50
-0.06
-0.47
-0.62
-0.57
-0.49
-0.57
-0.89
-1.45
-2.12
-2.72
-3.11
-3.21
-3.01
-2.56
-1.93
-1.20
-0.40
0.42
1.21
1.91
2.40
2.61
2.51
2.15
1.71
1.36
1.22
1.28
1.47
1.66
1.77
1.75
1.61
1.38
1.02
0.54
-0.05
-0.70
-1.31
-1.82
-2.20
-2.51
-2.80
-3.11
-3.44
-3.77
-4.03
-4.19
-4.26
-4.25
-4.14
-3.91
-3.55
-3.05
-2.43
-1.72
-0.96
-0.18
0.59
1.30
1.88
2.27
2.41
2.30
1.99
1.59
1.25
1.09
1.20
1.59
2.16
2.78
3.29
3.59
3.69
3.65
3.57
3.49
3.39
3.23
2.97
2.66
2.40
2.29
2.36
2.56
2.75
2.84
2.81
2.73
2.67
2.63
2.57
2.41
2.08
1.63
1.19
0.88
0.74
0.77
0.86
0.94
0.99
1.02
1.05
1.07
1.00
0.81
0.48
0.08
-0.29
-0.59
-0.80
-1.00
-1.25
-1.59
-1.96
-2.30
-2.53
-2.63
-2.67
-2.76
-2.96
-3.27
-3.56
-3.67
-3.46
-2.91
-2.12
-1.25
-0.48
0.11
0.54
0.87
1.17
1.42
1.55
1.50
1.26
0.93
0.64
0.50
0.55
0.76
1.02
1.22
1.28
1.21
1.05
0.89
0.76
0.65
0.52
0.33
0.09
-0.14
-0.29
-0.32
-0.25
-0.15
-0.12
-0.18
-0.31
-0.43
-0.49
-0.52
-0.58
-0.78
-1.15
-1.62
-2.06
-2.33
-2.38
-2.27
-2.16
-2.21
-2.55
-3.14
-3.89
-4.59
-5.05
-5.15
-4.83
-4.15
-3.25
-2.32
-1.54
-1.04
-0.88
-1.02
-1.39
-1.88
-2.41
-2.87
-3.17
-3.24
-3.04
-2.56
-1.82
-0.87
0.20
1.33
2.44
3.43
4.24
4.83
5.20
5.39
5.48
5.52
5.53
5.49
5.34
5.04
4.58
4.05
3.52
3.08
2.76
2.53
2.31
2.06
1.77
1.48
1.23
1.02
0.79
0.47
-0.01
-0.63
-1.30
-1.92
-2.37
-2.56
-2.46
-2.05
-1.38
-0.55
0.30
1.00
1.41
1.48
1.29
0.98
0.69
0.51
0.42
0.40
0.42
0.51
0.70
1.00
1.35
1.65
1.79
1.74
1.53
1.25
0.99
0.80
0.66
0.50
0.26
-0.08
-0.47
-0.82
-1.03
-1.03
-0.86
-0.59
-0.38
-0.32
-0.44
-0.71
-1.01
-1.29
-1.48
-1.62
-1.74
-1.85
-2.00
-2.16
-2.33
-2.50
-2.65
-2.72
-2.65
-2.37
-1.85
-1.14
-0.36
0.34
0.83
1.06
1.05
0.90
0.67
0.42
0.19
-0.02
-0.17
-0.21
-0.13
0.05
0.30
0.53
0.70
0.79
0.79
0.75
0.73
0.76
0.87
1.04
1.17
1.17
0.97
0.54
-0.02
-0.58
-1.00
-1.20
-1.22
-1.16
-1.12
-1.18
-1.34
-1.56
-1.77
-1.94
-2.10
-2.27
-2.44
-2.60
-2.66
-2.57
-2.27
-1.83
-1.33
-0.93
-0.73
-0.78
-1.04
-1.39
-1.72
-1.92
-1.98
-1.96
-1.97
-2.08
-2.30
-2.56
-2.72
-2.66
-2.38
-1.94
-1.49
-1.11
-0.79
-0.46
-0.02
0.57
1.24
1.87
2.35
2.67
2.92
3.25
3.73
4.32
4.86
5.14
5.00
4.44
3.57
2.61
1.75
1.06
0.54
0.11
-0.28
-0.57
-0.65
-0.46
0.01
0.65
1.28
1.76
2.04
2.16
2.20
2.24
2.28
2.29
2.23
2.11
1.97
1.88
1.85
1.88
1.94
1.97
1.95
1.85
1.65
1.39
1.12
0.90
0.78
0.79
0.88
0.99
1.01
0.87
0.56
0.10
-0.40
-0.84
-1.11
-1.16
-0.98
-0.68
-0.39
-0.27
-0.40
-0.74
-1.16
-1.50
-1.67
-1.67
-1.61
-1.61
-1.70
-1.85
-1.93
-1.84
-1.54
-1.08
-0.54
0.00
0.50
0.94
1.25
1.37
1.23
0.82
0.26
-0.29
-0.67
-0.78
-0.63
-0.30
0.11
0.53
0.89
1.17
1.34
1.39
1.33
1.19
1.05
0.92
0.80
0.67
0.49
0.24
-0.02
-0.24
-0.36
-0.36
-0.26
-0.11
0.04
0.14
0.12
-0.03
-0.31
-0.68
-1.10
-1.50
-1.86
-2.16
-2.40
-2.57
-2.60
-2.45
-2.08
-1.49
-0.76
-0.01
0.65
1.15
1.45
1.58
1.60
1.56
1.49
1.42
1.31
1.18
1.01
0.83
0.67
0.54
0.48
0.52
0.66
0.85
1.04
1.14
1.10
0.92
0.66
0.41
0.28
0.28
0.39
0.52
0.61
0.61
0.52
0.38
0.18
-0.07
-0.37
-0.68
-0.95
-1.10
-1.12
-1.03
-0.96
-1.02
-1.30
-1.74
-2.21
-2.52
-2.52
-2.20
-1.63
-0.96
-0.33
0.16
0.50
0.71
0.82
0.86
0.81
0.66
0.41
0.10
-0.20
-0.42
-0.52
-0.51
-0.43
-0.38
-0.42
-0.56
-0.76
-0.96
-1.11
-1.25
-1.42
-1.66
-1.95
-2.25
-2.51
-2.75
-3.03
-3.44
-3.98
-4.54
-4.94
-5.01
-4.68
-4.02
-3.20
-2.41
-1.74
-1.17
-0.63
-0.05
0.57
1.16
1.64
1.99
2.26
2.57
3.00
3.54
4.09
4.51
4.68
4.59
4.34
4.06
3.85
3.73
3.66
3.55
3.36
3.11
2.87
2.69
2.57
2.45
2.24
1.88
1.45
1.07
0.88
0.92
1.12
1.29
1.28
1.02
0.59
0.15
-0.16
-0.30
-0.31
-0.27
-0.21
-0.16
-0.08
-0.00
0.01
-0.13
-0.45
-0.91
-1.39
-1.75
-1.94
-2.00
-2.03
-2.14
-2.34
-2.60
-2.76
-2.69
-2.32
-1.66
-0.85
-0.06
0.55
0.89
0.95
0.83
0.67
0.55
0.54
0.60
0.70
0.77
0.78
0.71
0.59
0.43
0.29
0.24
0.32
0.54
0.86
1.14
1.27
1.16
0.81
0.36
-0.04
-0.23
-0.18
0.05
0.32
0.52
0.59
0.58
0.50
0.38
0.22
-0.00
-0.27
-0.52
-0.69
-0.75
-0.79
-0.91
-1.22
-1.71
-2.25
-2.68
-2.86
-2.73
-2.35
-1.81
-1.21
-0.61
-0.07
0.38
0.74
1.01
1.21
1.36
1.48
1.56
1.58
1.55
1.46
1.34
1.19
1.00
0.81
0.63
0.52
0.54
0.70
0.95
1.18
1.32
1.31
1.19
0.98
0.75
0.51
0.26
0.01
-0.22
-0.40
-0.48
-0.48
-0.45
-0.48
-0.64
-0.97
-1.43
-1.96
-2.50
-2.97
-3.37
-3.69
-3.92
-4.04
-3.99
-3.70
-3.15
-2.38
-1.52
-0.74
-0.22
-0.06
-0.27
-0.75
-1.33
-1.87
-2.27
-2.55
-2.77
-2.98
-3.21
-3.44
-3.61
-3.66
-3.55
-3.26
-2.77
-2.10
-1.26
-0.31
0.69
1.67
2.56
3.35
4.04
4.62
5.08
5.36
5.41
5.22
4.83
4.30
3.72
3.13
2.55
1.96
1.37
0.80
0.33
0.03
-0.10
-0.09
-0.05
-0.05
-0.14
-0.27
-0.35
-0.25
0.07
0.60
1.25
1.90
2.43
2.79
2.94
2.82
2.42
1.72
0.83
-0.07
-0.76
-1.08
-1.00
-0.65
-0.25
0.02
0.11
0.06
0.02
0.05
0.13
0.15
0.01
-0.32
-0.73
-1.04
-1.10
-0.84
-0.36
0.18
0.60
0.82
0.87
0.88
0.95
1.09
1.23
1.26
1.11
0.79
0.41
0.08
-0.14
-0.30
-0.52
-0.88
-1.42
-2.05
-2.62
-2.99
-3.11
-2.99
-2.66
-2.19
-1.60
-0.92
-0.21
0.45
0.96
1.24
1.30
1.18
0.96
0.69
0.42
0.20
0.07
0.05
0.16
0.36
0.58
0.75
0.81
0.74
0.58
0.35
0.11
-0.10
-0.23
-0.30
-0.30
-0.29
-0.29
-0.32
-0.41
-0.53
-0.67
-0.83
-0.97
-1.06
-1.05
-0.93
-0.73
-0.50
-0.32
-0.24
-0.29
-0.43
-0.62
-0.77
-0.81
-0.68
-0.36
0.11
0.62
1.05
1.29
1.29
1.09
0.81
0.56
0.45
0.51
0.71
0.96
1.17
1.21
1.06
0.75
0.37
0.05
-0.13
-0.16
-0.06
0.09
0.24
0.35
0.39
0.36
0.24
0.05
-0.18
-0.40
-0.59
-0.72
-0.85
-0.98
-1.11
-1.20
-1.21
-1.13
-1.05
-1.06
-1.27
-1.68
-2.21
-2.70
-2.99
-2.97
-2.60
-1.95
-1.15
-0.34
0.37
0.90
1.24
1.41
1.43
1.36
1.20
0.97
0.68
0.38
0.15
0.07
0.16
0.39
0.67
0.92
1.07
1.11
1.06
0.94
0.78
0.60
0.40
0.19
0.02
-0.08
-0.14
-0.20
-0.36
-0.64
-1.02
-1.38
-1.55
-1.48
-1.18
-0.83
-0.60
-0.59
-0.76
-0.98
-1.15
-1.20
-1.19
-1.16
-1.15
-1.10
-0.90
-0.47
0.13
0.78
1.28
1.52
1.49
1.29
1.07
0.93
0.89
0.92
0.95
0.94
0.92
0.91
0.92
0.94
0.95
0.91
0.84
0.76
0.69
0.64
0.55
0.39
0.16
-0.14
-0.43
-0.67
-0.87
-1.02
-1.11
-1.13
-1.00
-0.74
-0.41
-0.17
-0.18
-0.50
-1.08
-1.76
-2.34
-2.66
-2.65
-2.32
-1.78
-1.13
-0.48
0.08
0.48
0.72
0.82
0.84
0.83
0.83
0.83
0.83
0.80
0.75
0.70
0.64
0.61
0.59
0.61
0.65
0.69
0.67
0.58
0.41
0.18
-0.08
-0.37
-0.70
-1.07
-1.48
-1.91
-2.30
-2.62
-2.88
-3.10
-3.29
-3.46
-3.62
-3.81
-4.05
-4.36
-4.73
-5.05
-5.24
-5.23
-5.06
-4.80
-4.53
-4.25
-3.92
-3.48
-2.92
-2.31
-1.69
-1.07
-0.38
0.44
1.42
2.48
3.44
4.19
4.68
4.98
5.18
5.33
5.43
5.41
5.26
5.02
4.78
4.61
4.53
4.45
4.29
3.98
3.52
3.00
2.51
2.10
1.77
1.45
1.07
0.63
0.14
-0.33
-0.74
-1.07
-1.31
-1.46
-1.48
-1.32
-0.99
-0.51
0.01
0.47
0.80
1.00
1.12
1.20
1.27
1.32
1.34
1.33
1.34
1.39
1.52
1.71
1.88
1.95
1.85
1.56
1.19
0.87
0.75
0.85
1.07
1.19
1.02
0.50
-0.24
-0.96
-1.39
-1.42
-1.12
-0.68
-0.32
-0.17
-0.27
-0.56
-0.97
-1.43
-1.86
-2.16
-2.22
-1.98
-1.51
-0.93
-0.45
-0.22
-0.26
-0.48
-0.71
-0.81
-0.71
-0.43
-0.05
0.36
0.70
0.94
1.04
1.00
0.87
0.74
0.66
0.66
0.72
0.81
0.90
1.02
1.18
1.35
1.44
1.33
0.99
0.46
-0.09
-0.48
-0.64
-0.58
-0.43
-0.35
-0.44
-0.74
-1.18
-1.66
-2.09
-2.40
-2.56
-2.56
-2.39
-2.07
-1.63
-1.12
-0.62
-0.18
0.17
0.43
0.61
0.73
0.76
0.68
0.51
0.28
0.11
0.09
0.26
0.57
0.91
1.12
1.10
0.83
0.43
0.02
-0.24
-0.29
-0.12
0.16
0.43
0.60
0.62
0.49
0.24
-0.08
-0.41
-0.71
-0.91
-0.99
-0.96
-0.90
-0.90
-1.05
-1.38
-1.83
-2.28
-2.59
-2.66
-2.50
-2.12
-1.59
-0.99
-0.36
0.26
0.83
1.31
1.65
1.81
1.78
1.57
1.23
0.84
0.48
0.22
0.12
0.20
0.42
0.71
0.99
1.17
1.22
1.14
0.98
0.81
0.66
0.58
0.55
0.55
0.55
0.52
0.43
0.24
-0.05
-0.40
-0.74
-1.02
-1.22
-1.38
-1.57
-1.85
-2.17
-2.43
-2.50
-2.35
-2.06
-1.77
-1.59
-1.56
-1.56
-1.48
-1.24
-0.85
-0.43
-0.12
0.02
-0.00
-0.12
-0.26
-0.41
-0.55
-0.69
-0.83
-0.95
-1.09
-1.24
-1.42
-1.61
-1.76
-1.82
-1.81
-1.81
-1.93
-2.25
-2.76
-3.33
-3.81
-4.11
-4.18
-4.05
-3.74
-3.23
-2.49
-1.52
-0.40
0.68
1.54
2.03
2.16
2.07
1.92
1.87
2.00
2.31
2.75
3.23
3.66
3.97
4.08
3.98
3.72
3.39
3.13
3.01
3.09
3.33
3.60
3.76
3.68
3.34
2.80
2.23
1.77
1.54
1.52
1.61
1.67
1.61
1.40
1.12
0.83
0.56
0.29
0.00
-0.29
-0.53
-0.63
-0.56
-0.38
-0.21
-0.16
-0.27
-0.48
-0.71
-0.90
-1.10
-1.41
-1.91
-2.57
-3.24
-3.68
-3.71
-3.29
-2.51
-1.58
-0.67
0.12
0.78
1.33
1.76
2.04
2.10
1.91
1.51
0.99
0.51
0.19
0.11
0.23
0.48
0.74
0.93
1.03
1.09
1.16
1.29
1.47
1.62
1.66
1.50
1.18
0.77
0.39
0.13
0.00
-0.05
-0.10
-0.24
-0.44
-0.67
-0.89
-1.05
-1.18
-1.33
-1.53
-1.80
-2.11
-2.40
-2.60
-2.63
-2.47
-2.16
-1.74
-1.29
-0.85
-0.41
0.08
0.64
1.25
1.78
2.11
2.11
1.80
1.30
0.83
0.57
0.67
1.09
1.66
2.19
2.51
2.57
2.45
2.26
2.06
1.86
1.62
1.32
0.98
0.67
0.45
0.32
0.22
0.07
-0.13
-0.33
-0.42
-0.33
-0.09
0.15
0.24
0.06
-0.35
-0.88
-1.36
-1.67
-1.79
-1.78
-1.71
-1.67
-1.67
-1.69
-1.68
-1.64
-1.57
-1.52
-1.49
-1.44
-1.30
-0.99
-0.49
0.14
0.79
1.32
1.65
1.77
1.72
1.57
1.36
1.14
0.94
0.80
0.79
0.92
1.19
1.50
1.75
1.85
1.76
1.49
1.10
0.66
0.21
-0.23
-0.66
-1.10
-1.58
-2.10
-2.62
-3.10
-3.53
-3.89
-4.19
-4.43
-4.59
-4.68
-4.75
-4.86
-5.09
-5.45
-5.88
-6.21
-6.31
-6.08
-5.58
-4.93
-4.23
-3.53
-2.79
-1.94
-0.94
0.18
1.32
2.43
3.43
4.27
4.92
5.33
5.49
5.43
5.25
5.04
4.88
4.77
4.67
4.52
4.32
4.09
3.85
3.61
3.36
3.08
2.76
2.41
2.04
1.68
1.30
0.90
0.52
0.20
0.04
0.05
0.20
0.42
0.60
0.65
0.53
0.24
-0.19
-0.69
-1.20
-1.65
-2.00
-2.25
-2.42
-2.54
-2.60
-2.57
-2.39
-2.02
-1.44
-0.75
-0.05
0.53
0.94
1.20
1.37
1.55
1.74
1.92
2.02
2.04
1.98
1.92
1.91
1.95
2.00
2.00
1.92
1.77
1.57
1.36
1.18
1.04
0.95
0.90
0.89
0.91
0.91
0.84
0.68
0.46
0.22
0.01
-0.17
-0.35
-0.56
-0.81
-1.08
-1.31
-1.44
-1.45
-1.38
-1.27
-1.19
-1.16
-1.19
-1.25
-1.30
-1.36
-1.47
-1.65
-1.88
-2.07
-2.07
-1.79
-1.23
-0.49
0.25
0.84
1.19
1.35
1.41
1.48
1.60
1.73
1.80
1.74
1.54
1.24
0.94
0.74
0.72
0.89
1.22
1.61
1.94
2.09
2.01
1.71
1.25
0.71
0.15
-0.38
-0.87
-1.29
-1.58
-1.69
-1.61
-1.37
-1.07
-0.85
-0.76
-0.81
-0.95
-1.12
-1.28
-1.44
-1.63
-1.82
-2.00
-2.12
-2.16
-2.12
-2.01
-1.83
-1.57
-1.20
-0.77
-0.36
-0.04
0.16
0.26
0.37
0.54
0.76
0.96
1.03
0.92
0.69
0.46
0.33
0.35
0.47
0.59
0.60
0.49
0.32
0.18
0.13
0.16
0.19
0.15
-0.00
-0.23
-0.50
-0.79
-1.07
-1.37
-1.69
-2.06
-2.44
-2.81
-3.12
-3.37
-3.51
-3.58
-3.65
-3.81
-4.15
-4.72
-5.43
-6.11
-6.57
-6.68
-6.41
-5.88
-5.20
-4.42
-3.54
-2.49
-1.29
-0.03
1.14
2.06
2.72
3.21
3.67
4.21
4.84
5.46
5.93
6.18
6.21
6.09
5.89
5.62
5.25
4.78
4.25
3.78
3.47
3.35
3.36
3.33
3.13
2.70
2.12
1.55
1.15
0.99
1.00
1.04
0.98
0.73
0.33
-0.12
-0.50
-0.71
-0.72
-0.59
-0.44
-0.37
-0.45
-0.65
-0.91
-1.17
-1.39
-1.57
-1.70
-1.74
-1.60
-1.25
-0.67
0.01
0.62
1.02
1.16
1.13
1.06
1.08
1.20
1.37
1.47
1.43
1.24
0.98
0.77
0.72
0.90
1.28
1.77
2.23
2.53
2.57
2.34
1.88
1.31
0.69
0.13
-0.30
-0.56
-0.62
-0.48
-0.19
0.14
0.41
0.50
0.33
-0.10
-0.75
-1.52
-2.31
-3.05
-3.70
-4.26
-4.69
-4.91
-4.78
-4.18
-3.07
-1.56
0.15
1.80
3.15
4.06
4.44
4.29
3.63
2.54
1.20
-0.14
-1.20
-1.76
-1.73
-1.20
-0.36
0.56
1.36
1.95
2.27
2.35
2.21
1.92
1.53
1.14
0.84
0.68
0.65
0.70
0.74
0.67
0.47
0.16
-0.15
-0.38
-0.48
-0.46
-0.38
-0.30
-0.25
-0.24
-0.23
-0.21
-0.22
-0.31
-0.57
-1.01
-1.60
-2.24
-2.78
-3.10
-3.11
-2.81
-2.30
-1.74
-1.33
-1.21
-1.39
-1.71
-1.94
-1.83
-1.27
-0.29
0.93
2.08
2.87
3.06
2.57
1.47
-0.02
-1.57
-2.84
-3.60
-3.77
-3.42
-2.70
-1.80
-0.87
0.01
0.75
1.28
1.52
1.39
0.89
0.09
-0.85
-1.71
-2.31
-2.53
-2.37
-1.98
-1.54
-1.21
-1.03
-0.96
-0.88
-0.71
-0.44
-0.16
0.03
0.07
0.03
0.05
0.23
0.58
0.97
1.18
1.06
0.60
0.00
-0.43
-0.44
0.03
0.84
1.65
2.21
2.37
2.25
2.07
2.06
2.32
2.82
3.38
3.83
4.06
4.04
3.82
3.47
3.03
2.55
2.06
1.61
1.22
0.88
0.52
0.03
-0.70
-1.71
-2.90
-4.11
-5.06
-5.56
-5.52
-4.98
-4.12
-3.19
-2.40
-1.86
-1.64
-1.66
-1.84
-2.06
-2.20
-2.17
-1.95
-1.61
-1.27
-1.06
-1.04
-1.14
-1.21
-1.15
-0.94
-0.64
-0.38
-0.26
-0.25
-0.25
-0.19
-0.06
0.09
0.15
0.13
0.10
0.15
0.37
0.72
1.10
1.35
1.40
1.23
0.91
0.53
0.15
-0.16
-0.34
-0.35
-0.15
0.24
0.76
1.27
1.65
1.84
1.82
1.66
1.39
1.06
0.69
0.33
-0.00
-0.26
-0.40
-0.44
-0.39
-0.30
-0.22
-0.17
-0.19
-0.29
-0.51
-0.85
-1.30
-1.79
-2.20
-2.45
-2.49
-2.32
-2.05
-1.78
-1.64
-1.72
-2.04
-2.55
-3.15
-3.72
-4.18
-4.46
-4.56
-4.52
-4.38
-4.19
-3.96
-3.70
-3.41
-3.08
-2.73
-2.35
-1.91
-1.35
-0.61
0.36
1.51
2.74
3.88
4.79
5.39
5.67
5.71
5.62
5.50
5.38
5.25
5.09
4.91
4.75
4.63
4.53
4.35
4.00
3.44
2.73
2.03
1.54
1.36
1.43
1.57
1.57
1.29
0.76
0.14
-0.36
-0.60
-0.55
-0.29
0.06
0.41
0.70
0.91
1.04
1.07
0.98
0.75
0.41
0.06
-0.17
-0.17
0.07
0.49
0.95
1.29
1.43
1.37
1.18
0.99
0.86
0.83
0.82
0.78
0.64
0.40
0.12
-0.14
-0.38
-0.60
-0.83
-1.05
-1.20
-1.18
-0.96
-0.58
-0.19
0.02
-0.05
-0.39
-0.83
-1.16
-1.24
-1.05
-0.69
-0.31
-0.02
0.15
0.29
0.47
0.75
1.07
1.35
1.47
1.36
1.06
0.65
0.25
-0.04
-0.16
-0.17
-0.16
-0.23
-0.43
-0.72
-0.99
-1.09
-0.95
-0.63
-0.28
-0.09
-0.17
-0.48
-0.85
-1.09
-1.06
-0.77
-0.32
0.10
0.36
0.40
0.24
-0.08
-0.52
-1.01
-1.45
-1.72
-1.73
-1.41
-0.85
-0.18
0.41
0.81
0.97
0.97
0.90
0.85
0.87
0.92
0.97
0.97
0.89
0.71
0.45
0.14
-0.13
-0.31
-0.32
-0.17
0.10
0.37
0.55
0.55
0.37
0.03
-0.37
-0.78
-1.16
-1.47
-1.66
-1.67
-1.44
-0.97
-0.37
0.18
0.50
0.51
0.24
-0.18
-0.58
-0.90
-1.13
-1.31
-1.45
-1.47
-1.32
-0.96
-0.48
-0.00
0.34
0.53
0.60
0.68
0.84
1.06
1.28
1.36
1.27
1.07
0.88
0.81
0.90
1.09
1.24
1.22
1.00
0.63
0.23
-0.06
-0.20
-0.20
-0.15
-0.12
-0.11
-0.13
-0.14
-0.12
-0.11
-0.11
-0.13
-0.16
-0.16
-0.15
-0.11
-0.09
-0.12
-0.23
-0.44
-0.72
-1.02
-1.26
-1.37
-1.30
-1.10
-0.85
-0.66
-0.58
-0.61
-0.70
-0.75
-0.72
-0.62
-0.48
-0.36
-0.25
-0.16
-0.05
0.11
0.30
0.49
0.64
0.73
0.78
0.82
0.89
1.00
1.13
1.25
1.34
1.37
1.32
1.19
0.96
0.66
0.35
0.10
-0.02
0.01
0.14
0.26
0.26
0.10
-0.19
-0.52
-0.78
-0.96
-1.08
-1.20
-1.35
-1.53
-1.65
-1.67
-1.59
-1.52
-1.57
-1.82
-2.24
-2.67
-2.94
-2.91
-2.55
-1.98
-1.36
-0.82
-0.40
-0.12
0.06
0.16
0.18
0.17
0.17
0.25
0.46
0.79
1.18
1.50
1.63
1.50
1.15
0.69
0.34
0.27
0.53
1.03
1.58
1.96
2.03
1.81
1.40
0.94
0.53
0.20
-0.07
-0.27
-0.38
-0.35
-0.18
0.08
0.33
0.46
0.39
0.10
-0.36
-0.86
-1.30
-1.61
-1.79
-1.88
-1.96
-2.05
-2.18
-2.32
-2.45
-2.53
-2.55
-2.46
-2.18
-1.68
-0.98
-0.16
0.64
1.30
1.71
1.87
1.82
1.63
1.42
1.26
1.21
1.28
1.42
1.55
1.59
1.52
1.37
1.22
1.15
1.20
1.31
1.39
1.34
1.13
0.77
0.34
-0.06
-0.34
-0.44
-0.38
-0.21
-0.01
0.15
0.21
0.13
-0.10
-0.47
-0.91
-1.33
-1.62
-1.68
-1.51
-1.18
-0.85
-0.65
-0.63
-0.74
-0.87
-0.92
-0.86
-0.73
-0.57
-0.39
-0.17
0.14
0.53
0.96
1.32
1.48
1.40
1.12
0.74
0.40
0.19
0.17
0.28
0.45
0.59
0.60
0.48
0.25
0.01
-0.13
-0.10
0.10
0.40
0.68
0.84
0.80
0.58
0.26
-0.09
-0.36
-0.53
-0.59
-0.60
-0.62
-0.72
-0.97
-1.36
-1.88
-2.43
-2.89
-3.14
-3.12
-2.84
-2.38
-1.86
-1.36
-0.94
-0.61
-0.35
-0.13
0.02
0.10
0.10
0.10
0.20
0.49
0.97
1.54
2.00
2.22
2.15
1.93
1.73
1.68
1.78
1.92
1.97
1.87
1.67
1.48
1.36
1.29
1.14
0.79
0.22
-0.44
-1.02
-1.40
-1.56
-1.61
-1.70
-1.87
-2.11
-2.33
-2.47
-2.58
-2.76
-3.10
-3.63
-4.24
-4.74
-4.98
-4.91
-4.55
-3.99
-3.35
-2.71
-2.13
-1.69
-1.40
-1.30
-1.37
-1.57
-1.84
-2.08
-2.21
-2.17
-1.91
-1.44
-0.83
-0.20
0.38
0.84
1.26
1.71
2.28
2.95
3.65
4.27
4.76
5.11
5.37
5.54
5.62
5.54
5.26
4.79
4.22
3.64
3.13
2.72
2.38
2.04
1.65
1.16
0.61
0.07
-0.36
-0.65
-0.80
-0.90
-1.02
-1.19
-1.30
-1.22
-0.87
-0.27
0.45
1.07
1.46
1.60
1.58
1.53
1.54
1.60
1.67
1.69
1.64
1.57
1.56
1.67
1.90
2.17
2.34
2.28
1.91
1.30
0.58
-0.09
-0.60
-0.90
-1.04
-1.05
-0.97
-0.79
-0.57
-0.35
-0.25
-0.33
-0.58
-0.94
-1.29
-1.55
-1.71
-1.83
-1.97
-2.17
-2.39
-2.55
-2.54
-2.30
-1.82
-1.21
-0.60
-0.15
0.07
0.06
-0.06
-0.13
-0.01
0.34
0.84
1.33
1.63
1.67
1.49
1.24
1.07
1.10
1.32
1.63
1.88
1.98
1.88
1.62
1.25
0.83
0.42
0.05
-0.19
-0.27
-0.20
-0.04
0.06
0.02
-0.19
-0.51
-0.83
-1.06
-1.20
-1.28
-1.38
-1.53
-1.69
-1.81
-1.84
-1.79
-1.69
-1.58
-1.46
-1.28
-0.99
-0.59
-0.14
0.29
0.62
0.83
0.98
1.13
1.31
1.49
1.58
1.52
1.29
0.98
0.72
0.64
0.79
1.10
1.44
1.71
1.83
1.79
1.64
1.42
1.17
0.91
0.67
0.44
0.22
-0.01
-0.22
-0.40
-0.51
-0.55
-0.54
-0.55
-0.66
-0.84
-1.06
-1.28
-1.45
-1.61
-1.82
-2.10
-2.37
-2.53
-2.42
-1.97
-1.19
-0.24
0.69
1.42
1.85
1.96
1.83
1.58
1.33
1.15
1.09
1.14
1.20
1.21
1.13
0.97
0.82
0.76
0.84
1.03
1.24
1.37
1.40
1.37
1.33
1.27
1.12
0.80
0.29
-0.33
-0.93
-1.34
-1.53
-1.50
-1.35
-1.11
-0.84
-0.58
-0.40
-0.40
-0.66
-1.16
-1.78
-2.36
-2.75
-2.87
-2.72
-2.36
-1.85
-1.25
-0.66
-0.12
0.30
0.58
0.75
0.89
1.03
1.19
1.35
1.44
1.44
1.35
1.17
0.98
0.81
0.71
0.69
0.75
0.85
0.94
0.98
0.95
0.87
0.75
0.62
0.52
0.44
0.38
0.32
0.24
0.14
-0.01
-0.21
-0.44
-0.71
-1.01
-1.32
-1.58
-1.74
-1.76
-1.68
-1.56
-1.54
-1.70
-2.06
-2.54
-2.94
-3.10
-2.92
-2.39
-1.64
-0.82
-0.06
0.54
0.90
1.04
0.98
0.76
0.47
0.19
0.05
0.12
0.45
0.98
1.56
2.04
2.28
2.27
2.06
1.79
1.60
1.55
1.60
1.69
1.74
1.71
1.57
1.35
1.08
0.78
0.49
0.25
0.10
0.04
0.06
0.08
0.02
-0.19
-0.56
-1.02
-1.46
-1.76
-1.86
-1.76
-1.57
-1.39
-1.32
-1.41
-1.64
-1.96
-2.25
-2.41
-2.33
-1.95
-1.33
-0.60
0.03
0.41
0.49
0.38
0.27
0.35
0.67
1.12
1.54
1.79
1.80
1.66
1.48
1.38
1.42
1.55
1.72
1.87
1.98
2.01
1.93
1.69
1.25
0.65
-0.00
-0.57
-0.91
-0.97
-0.79
-0.47
-0.16
0.03
0.07
-0.03
-0.22
-0.47
-0.75
-1.03
-1.28
-1.47
-1.60
-1.70
-1.83
-2.03
-2.28
-2.54
-2.73
-2.77
-2.64
-2.34
-1.93
-1.48
-1.03
-0.64
-0.33
-0.12
-0.00
0.07
0.12
0.21
0.33
0.47
0.61
0.72
0.77
0.79
0.81
0.89
1.08
1.38
1.76
2.14
2.41
2.51
2.46
2.30
2.11
1.91
1.71
1.50
1.30
1.16
1.14
1.22
1.35
1.45
1.44
1.35
1.23
1.14
1.06
0.93
0.65
0.16
-0.52
-1.29
-2.06
-2.75
-3.33
-3.80
-4.13
-4.27
-4.19
-3.90
-3.49
-3.09
-2.79
-2.61
-2.49
-2.32
-2.02
-1.60
-1.14
-0.70
-0.33
-0.02
0.22
0.35
0.31
0.06
-0.39
-0.89
-1.24
-1.27
-0.91
-0.25
0.55
1.32
1.96
2.46
2.86
3.22
3.56
3.89
4.21
4.54
4.91
5.35
5.86
6.33
6.64
6.63
6.21
5.40
4.35
3.20
2.12
1.15
0.29
-0.53
-1.33
-2.12
-2.85
-3.46
-3.92
-4.25
-4.46
-4.61
-4.72
-4.81
-4.89
-4.94
-4.94
-4.87
-4.75
-4.59
-4.44
-4.35
-4.36
-4.40
-4.39
-4.20
-3.74
-2.97
-1.98
-0.97
-0.18
0.20
0.07
-0.48
-1.24
-1.93
-2.33
-2.34
-2.00
-1.48
-0.97
-0.69
-0.75
-1.22
-2.04
-3.09
-4.18
-5.13
-5.77
-5.94
-5.60
-4.71
-3.35
-1.65
0.22
2.11
3.96
5.78
7.63
9.58
11.57
13.43
14.92
15.82
16.03
15.60
14.72
13.64
12.54
11.53
10.63
9.86
9.18
8.59
8.04
7.46
6.72
5.76
4.53
3.11
1.65
0.39
-0.51
-0.98
-1.06
-0.94
-0.82
-0.87
-1.13
-1.53
-1.95
-2.30
-2.55
-2.78
-3.05
-3.41
-3.78
-4.04
-4.13
-4.03
-3.88
-3.83
-3.99
-4.36
-4.81
-5.21
-5.47
-5.63
-5.81
-6.08
-6.40
-6.62
-6.56
-6.12
-5.36
-4.44
-3.56
-2.84
-2.26
-1.75
-1.25
-0.74
-0.30
0.00
0.15
0.16
0.09
-0.01
-0.12
-0.20
-0.27
-0.31
-0.31
-0.26
-0.18
-0.08
0.01
0.07
0.07
0.03
-0.03
-0.05
0.00
0.10
0.17
0.11
-0.14
-0.52
-0.93
-1.26
-1.45
-1.54
-1.66
-1.89
-2.26
-2.72
-3.13
-3.40
-3.44
-3.27
-2.99
-2.73
-2.64
-2.81
-3.21
-3.71
-4.12
-4.24
-3.99
-3.42
-2.68
-1.95
-1.38
-1.02
-0.80
-0.66
-0.54
-0.47
-0.52
-0.77
-1.20
-1.73
-2.17
-2.37
-2.27
-1.96
-1.64
-1.54
-1.77
-2.37
-3.21
-4.13
-4.98
-5.65
-6.17
-6.60
-7.06
-7.65
-8.39
-9.20
-9.90
-10.27
-10.14
-9.44
-8.23
-6.62
-4.74
-2.64
-0.23
2.60
5.88
9.53
13.33
16.98
20.26
23.03
25.23
26.85
27.81
27.98
27.22
25.53
23.05
20.11
17.12
14.39
12.11
10.25
8.70
7.35
6.12
4.99
3.90
2.76
1.47
-0.03
-1.64
-3.14
-4.26
-4.83
-4.81
-4.38
-3.83
-3.42
-3.34
-3.66
-4.31
-5.14
-5.96
-6.58
-6.87
-6.84
-6.59
-6.35
-6.36
-6.78
-7.60
-8.63
-9.56
-10.08
-10.01
-9.32
-8.19
-6.89
-5.69
-4.73
-4.01
-3.45
-2.97
-2.54
-2.24
-2.17
-2.37
-2.77
-3.15
-3.27
-2.94
-2.13
-1.03
0.10
0.96
1.41
1.47
1.30
1.08
0.95
0.99
1.15
1.39
1.66
1.94
2.19
2.38
2.48
2.44
2.25
1.93
1.50
1.05
0.59
0.15
-0.31
-0.80
-1.35
-1.94
-2.51
-3.00
-3.37
-3.63
-3.81
-3.96
-4.08
-4.19
-4.25
-4.29
-4.30
-4.32
-4.33
-4.26
-4.04
-3.61
-2.96
-2.11
-1.11
0.01
1.22
2.51
3.81
5.00
5.95
6.62
7.02
7.25
7.42
7.55
7.64
7.59
7.35
6.91
6.34
5.71
5.08
4.48
3.93
3.45
3.00
2.57
2.12
1.61
1.05
0.49
-0.01
-0.41
-0.72
-0.97
-1.20
-1.42
-1.61
-1.75
-1.87
-2.04
-2.33
-2.76
-3.26
-3.70
-3.94
-3.91
-3.63
-3.20
-2.74
-2.37
-2.11
-1.98
-1.88
-1.75
-1.53
-1.18
-0.73
-0.21
0.33
0.82
1.20
1.42
1.45
1.31
1.07
0.83
0.68
0.68
0.81
1.00
1.12
1.09
0.89
0.58
0.25
-0.00
-0.15
-0.21
-0.24
-0.26
-0.29
-0.31
-0.31
-0.30
-0.31
-0.36
-0.47
-0.62
-0.77
-0.89
-0.96
-1.02
-1.06
-1.09
-1.06
-0.96
-0.83
-0.69
-0.63
-0.65
-0.71
-0.73
-0.62
-0.34
0.07
0.53
0.91
1.12
1.18
1.17
1.19
1.34
1.62
1.97
2.29
2.48
2.52
2.46
2.41
2.42
2.53
2.68
2.78
2.74
2.54
2.21
1.79
1.33
0.84
0.31
-0.28
-0.94
-1.65
-2.34
-2.97
-3.46
-3.80
-3.97
-3.99
-3.89
-3.70
-3.42
-3.09
-2.74
-2.41
-2.16
-2.05
-2.12
-2.34
-2.64
-2.89
-2.95
-2.73
-2.19
-1.41
-0.51
0.36
1.07
1.55
1.77
1.78
1.64
1.46
1.30
1.24
1.31
1.52
1.83
2.21
2.57
2.84
2.92
2.80
2.49
2.06
1.59
1.15
0.78
0.51
0.32
0.23
0.20
0.18
0.08
-0.16
-0.57
-1.05
-1.44
-1.57
-1.41
-1.03
-0.66
-0.49
-0.63
-1.07
-1.65
-2.22
-2.69
-3.04
-3.32
-3.53
-3.62
-3.53
-3.21
-2.68
-2.06
-1.44
-0.89
-0.37
0.15
0.71
1.27
1.72
1.96
1.86
1.41
0.66
-0.24
-1.06
-1.59
-1.69
-1.33
-0.62
0.23
1.00
1.53
1.75
1.71
1.48
1.19
0.98
1.05
1.62
2.83
4.68
6.90
9.05
10.61
11.23
10.85
9.71
8.22
6.80
5.69
4.93
4.45
4.13
3.98
4.06
4.47
5.21
6.16
7.07
7.66
7.73
7.21
6.18
4.84
3.43
2.09
0.83
-0.43
-1.76
-3.18
-4.60
-5.84
-6.75
-7.33
-7.71
-8.14
-8.87
-9.98
-11.37
-12.76
-13.74
-13.99
-13.40
-12.11
-10.53
-9.13
-8.32
-8.24
-8.78
-9.58
-10.14
-9.97
-8.61
-5.83
-1.70
3.28
8.25
12.24
14.49
14.80
13.61
11.75
10.09
9.15
8.99
9.31
9.70
9.82
9.45
8.50
6.85
4.48
1.54
-1.63
-4.48
-6.48
-7.27
-6.84
-5.48
-3.68
-1.94
-0.63
0.06
0.08
-0.48
-1.49
-2.82
-4.32
-5.82
-7.19
-8.31
-9.09
-9.36
-8.91
-7.43
-4.67
-0.68
4.12
8.89
12.71
14.86
15.16
14.02
12.15
10.29
8.82
7.77
6.86
5.83
4.57
3.15
1.74
0.40
-0.91
-2.33
-3.98
-5.86
-7.80
-9.52
-10.80
-11.51
-11.69
-11.53
-11.26
-11.08
-11.04
-11.07
-10.98
-10.59
-9.80
-8.65
-7.29
-5.90
-4.63
-3.51
-2.49
-1.47
-0.40
0.70
1.74
2.63
3.34
3.88
4.29
4.62
4.83
4.89
4.77
4.48
4.11
3.77
3.54
3.48
3.59
3.85
4.21
4.61
4.97
5.21
5.30
5.24
5.14
5.12
5.26
5.57
5.97
6.33
6.55
6.57
6.39
6.04
5.55
4.93
4.23
3.52
2.92
2.49
2.26
2.16
2.07
1.85
1.37
0.62
-0.36
-1.45
-2.52
-3.42
-4.09
-4.50
-4.69
-4.69
-4.58
-4.38
-4.11
-3.75
-3.28
-2.68
-2.00
-1.33
-0.81
-0.51
-0.44
-0.52
-0.61
-0.59
-0.45
-0.27
-0.17
-0.27
-0.59
-1.05
-1.52
-1.87
-2.05
-2.09
-2.10
-2.18
-2.40
-2.78
-3.25
-3.72
-4.11
-4.35
-4.44
-4.38
-4.19
-3.90
-3.56
-3.22
-2.97
-2.88
-2.97
-3.17
-3.35
-3.42
-3.32
-3.09
-2.80
-2.47
-2.09
-1.58
-0.92
-0.15
0.59
1.17
1.52
1.68
1.73
1.74
1.72
1.62
1.44
1.26
1.20
1.36
1.75
2.24
2.64
2.81
2.73
2.48
2.18
1.90
1.61
1.21
0.65
-0.05
-0.75
-1.31
-1.61
-1.67
-1.60
-1.53
-1.55
-1.67
-1.87
-2.10
-2.35
-2.66
-3.06
-3.50
-3.89
-4.10
-4.01
-3.60
-2.91
-2.11
-1.34
-0.74
-0.34
-0.12
-0.01
0.08
0.21
0.42
0.70
0.99
1.25
1.45
1.61
1.74
1.83
1.86
1.82
1.70
1.57
1.50
1.55
1.73
1.98
2.20
2.32
2.34
2.27
2.12
1.89
1.58
1.21
0.83
0.52
0.30
0.14
-0.00
-0.18
-0.41
-0.64
-0.84
-1.02
-1.22
-1.49
-1.84
-2.19
-2.42
-2.43
-2.16
-1.65
-0.99
-0.29
0.35
0.86
1.21
1.38
1.39
1.28
1.12
0.98
0.91
0.93
0.99
1.08
1.17
1.25
1.32
1.37
1.35
1.27
1.13
0.98
0.88
0.86
0.87
0.85
0.69
0.35
-0.13
-0.65
-1.07
-1.33
-1.41
-1.35
-1.24
-1.13
-1.09
-1.13
-1.28
-1.56
-1.96
-2.44
-2.96
-3.44
-3.79
-3.96
-3.88
-3.56
-3.00
-2.30
-1.55
-0.84
-0.24
0.24
0.64
0.98
1.26
1.47
1.55
1.50
1.36
1.21
1.09
1.04
1.06
1.12
1.21
1.34
1.52
1.77
2.05
2.29
2.39
2.30
2.00
1.56
1.10
0.72
0.49
0.37
0.29
0.17
-0.02
-0.24
-0.42
-0.52
-0.52
-0.49
-0.51
-0.63
-0.88
-1.27
-1.76
-2.28
-2.72
-2.95
-2.86
-2.42
-1.66
-0.71
0.25
1.10
1.74
2.16
2.39
2.47
2.42
2.25
2.00
1.69
1.38
1.12
0.95
0.88
0.90
0.98
1.09
1.19
1.25
1.25
1.16
0.98
0.69
0.32
-0.07
-0.40
-0.61
-0.65
-0.55
-0.37
-0.20
-0.11
-0.15
-0.33
-0.65
-1.11
-1.68
-2.29
-2.81
-3.14
-3.23
-3.14
-3.00
-2.93
-2.99
-3.12
-3.21
-3.15
-2.93
-2.59
-2.23
-1.91
-1.61
-1.26
-0.80
-0.23
0.41
1.00
1.46
1.71
1.70
1.48
1.12
0.75
0.48
0.39
0.48
0.72
1.02
1.30
1.51
1.63
1.67
1.65
1.58
1.49
1.40
1.34
1.32
1.31
1.25
1.09
0.80
0.40
-0.03
-0.42
-0.72
-0.95
-1.14
-1.34
-1.57
-1.84
-2.13
-2.40
-2.60
-2.69
-2.61
-2.34
-1.88
-1.29
-0.63
-0.02
0.47
0.78
0.88
0.83
0.68
0.54
0.48
0.56
0.76
1.03
1.26
1.39
1.38
1.28
1.16
1.12
1.19
1.33
1.47
1.54
1.51
1.39
1.21
1.00
0.77
0.48
0.12
-0.29
-0.69
-1.00
-1.15
-1.13
-0.98
-0.80
-0.66
-0.60
-0.61
-0.63
-0.62
-0.57
-0.54
-0.57
-0.64
-0.66
-0.48
0.03
0.88
1.93
2.94
3.67
4.00
3.97
3.72
3.41
3.13
2.91
2.73
2.54
2.34
2.12
1.85
1.49
1.00
0.43
-0.11
-0.42
-0.30
0.34
1.47
2.87
4.23
5.25
5.68
5.46
4.72
3.71
2.68
1.78
1.05
0.37
-0.35
-1.15
-1.95
-2.61
-3.01
-3.18
-3.20
-3.22
-3.30
-3.43
-3.48
-3.36
-3.01
-2.51
-2.01
-1.64
-1.48
-1.48
-1.53
-1.53
-1.43
-1.27
-1.11
-1.00
-0.92
-0.77
-0.49
-0.07
0.44
0.88
1.15
1.22
1.13
1.01
0.95
0.98
1.06
1.10
1.05
0.87
0.63
0.41
0.26
0.21
0.20
0.20
0.16
0.09
0.05
0.06
0.14
0.27
0.40
0.50
0.52
0.46
0.32
0.11
-0.14
-0.41
-0.65
-0.79
-0.83
-0.78
-0.71
-0.70
-0.80
-0.97
-1.16
-1.26
-1.20
-0.97
-0.63
-0.26
0.09
0.39
0.65
0.89
1.12
1.31
1.42
1.42
1.29
1.01
0.63
0.22
-0.13
-0.35
-0.38
-0.27
-0.07
0.13
0.30
0.44
0.58
0.70
0.77
0.72
0.52
0.22
-0.08
-0.30
-0.42
-0.48
-0.52
-0.54
-0.50
-0.32
0.02
0.44
0.78
0.87
0.63
0.12
-0.54
-1.21
-1.75
-2.11
-2.25
-2.13
-1.75
-1.15
-0.45
0.22
0.71
0.96
0.98
0.84
0.64
0.41
0.17
-0.06
-0.23
-0.27
-0.13
0.16
0.47
0.63
0.54
0.22
-0.18
-0.47
-0.51
-0.28
0.08
0.40
0.55
0.48
0.27
0.05
-0.08
-0.07
0.04
0.15
0.19
0.07
-0.20
-0.57
-0.95
-1.26
-1.42
-1.42
-1.26
-0.97
-0.58
-0.11
0.39
0.86
1.20
1.33
1.26
1.02
0.70
0.39
0.15
0.01
0.01
0.14
0.39
0.72
1.05
1.29
1.39
1.38
1.32
1.29
1.35
1.47
1.58
1.60
1.52
1.32
1.05
0.77
0.52
0.33
0.20
0.14
0.13
0.16
0.22
0.26
0.26
0.17
-0.05
-0.40
-0.87
-1.36
-1.75
-1.90
-1.76
-1.41
-1.00
-0.71
-0.62
-0.69
-0.77
-0.70
-0.41
0.02
0.44
0.72
0.81
0.80
0.84
1.02
1.32
1.62
1.79
1.77
1.55
1.22
0.88
0.60
0.40
0.25
0.14
0.04
-0.04
-0.08
-0.09
-0.07
-0.04
0.00
0.08
0.18
0.26
0.27
0.18
0.01
-0.19
-0.35
-0.44
-0.50
-0.60
-0.79
-1.07
-1.38
-1.65
-1.86
-2.01
-2.13
-2.22
-2.24
-2.16
-1.97
-1.72
-1.48
-1.31
-1.19
-1.02
-0.71
-0.21
0.43
1.08
1.62
1.95
2.08
2.06
1.97
1.85
1.69
1.50
1.29
1.12
1.07
1.20
1.49
1.81
2.00
1.94
1.61
1.09
0.56
0.19
0.07
0.19
0.49
0.85
1.16
1.37
1.43
1.33
1.06
0.66
0.14
-0.42
-0.95
-1.37
-1.63
-1.75
-1.77
-1.77
-1.77
-1.77
-1.71
-1.58
-1.38
-1.19
-1.08
-1.07
-1.11
-1.10
-0.96
-0.68
-0.35
-0.05
0.15
0.27
0.42
0.65
0.96
1.30
1.53
1.58
1.45
1.19
0.93
0.76
0.73
0.80
0.90
0.94
0.88
0.68
0.39
0.06
-0.17
-0.22
-0.02
0.38
0.83
1.17
1.25
1.04
0.65
0.24
-0.02
-0.09
-0.02
0.10
0.18
0.17
0.09
-0.06
-0.24
-0.41
-0.53
-0.55
-0.48
-0.40
-0.42
-0.63
-1.04
-1.53
-1.95
-2.15
-2.07
-1.75
-1.30
-0.79
-0.30
0.12
0.45
0.70
0.84
0.90
0.89
0.84
0.76
0.68
0.64
0.65
0.71
0.81
0.88
0.90
0.85
0.71
0.50
0.25
0.01
-0.15
-0.17
-0.03
0.22
0.50
0.71
0.81
0.82
0.80
0.78
0.78
0.74
0.63
0.43
0.15
-0.14
-0.39
-0.55
-0.63
-0.65
-0.62
-0.56
-0.46
-0.34
-0.22
-0.12
-0.08
-0.12
-0.22
-0.34
-0.45
-0.51
-0.52
-0.48
-0.37
-0.17
0.14
0.55
0.97
1.32
1.49
1.45
1.23
0.94
0.69
0.54
0.53
0.62
0.72
0.74
0.65
0.47
0.26
0.11
0.07
0.11
0.13
0.03
-0.26
-0.67
-1.07
-1.26
-1.14
-0.77
-0.34
-0.08
-0.16
-0.61
-1.32
-2.06
-2.65
-2.93
-2.87
-2.51
-1.96
-1.34
-0.79
-0.43
-0.32
-0.46
-0.80
-1.23
-1.67
-2.05
-2.35
-2.58
-2.77
-2.88
-2.89
-2.77
-2.51
-2.15
-1.78
-1.44
-1.17
-0.93
-0.62
-0.14
0.57
1.52
2.65
3.89
5.14
6.31
7.32
8.10
8.58
8.75
8.66
8.40
8.07
7.76
7.50
7.28
7.05
6.75
6.28
5.58
4.57
3.26
1.76
0.23
-1.14
-2.22
-3.00
-3.56
-4.04
-4.48
-4.89
-5.19
-5.35
-5.41
-5.48
-5.64
-5.92
-6.23
-6.47
-6.51
-6.30
-5.87
-5.28
-4.61
-3.93
-3.28
-2.66
-2.09
-1.56
-1.07
-0.60
-0.19
0.16
0.38
0.45
0.34
0.08
-0.26
-0.60
-0.83
-0.91
-0.84
-0.71
-0.62
-0.64
-0.77
-0.95
-1.09
-1.10
-0.95
-0.67
-0.32
-0.05
0.07
-0.04
-0.33
-0.69
-0.94
-0.97
-0.76
-0.44
-0.19
-0.15
-0.30
-0.54
-0.69
-0.68
-0.55
-0.43
-0.47
-0.72
-1.14
-1.62
-2.08
-2.42
-2.61
-2.58
-2.27
-1.67
-0.84
0.03
0.76
1.20
1.36
1.32
1.26
1.30
1.46
1.71
1.97
2.16
2.23
2.16
1.98
1.70
1.35
0.96
0.56
0.17
-0.15
-0.35
-0.38
-0.23
0.04
0.34
0.57
0.68
0.67
0.57
0.44
0.32
0.20
0.11
0.05
0.01
-0.02
-0.06
-0.14
-0.25
-0.35
-0.41
-0.42
-0.40
-0.41
-0.47
-0.59
-0.74
-0.90
-1.07
-1.24
-1.39
-1.43
-1.27
-0.84
-0.19
0.53
1.14
1.48
1.50
1.31
1.06
0.91
0.94
1.12
1.36
1.54
1.57
1.43
1.18
0.94
0.81
0.85
1.04
1.26
1.43
1.48
1.44
1.35
1.26
1.12
0.86
0.42
-0.16
-0.76
-1.19
-1.33
-1.14
-0.74
-0.30
-0.00
0.07
-0.11
-0.45
-0.87
-1.24
-1.49
-1.55
-1.41
-1.14
-0.83
-0.55
-0.38
-0.29
-0.25
-0.20
-0.10
0.06
0.27
0.54
0.85
1.19
1.48
1.62
1.54
1.18
0.63
0.04
-0.40
-0.53
-0.31
0.16
0.69
1.09
1.24
1.17
0.99
0.82
0.76
0.81
0.89
0.89
0.73
0.38
-0.06
-0.44
-0.63
-0.55
-0.25
0.13
0.42
0.49
0.32
0.01
-0.31
-0.56
-0.70
-0.81
-0.96
-1.15
-1.34
-1.41
-1.31
-1.09
-0.88
-0.85
-1.08
-1.49
-1.86
-1.95
-1.63
-0.94
-0.13
0.49
0.74
0.62
0.31
0.05
-0.01
0.14
0.37
0.53
0.55
0.47
0.41
0.49
0.71
1.04
1.36
1.58
1.68
1.70
1.70
1.74
1.81
1.86
1.82
1.66
1.41
1.16
1.01
1.00
1.09
1.15
1.08
0.86
0.56
0.29
0.16
0.19
0.32
0.44
0.47
0.37
0.18
-0.04
-0.25
-0.44
-0.63
-0.84
-1.05
-1.24
-1.36
-1.38
-1.29
-1.10
-0.83
-0.54
-0.28
-0.09
0.03
0.10
0.15
0.23
0.39
0.62
0.89
1.12
1.17
0.97
0.47
-0.25
-1.05
-1.74
-2.17
-2.29
-2.14
-1.86
-1.55
-1.27
-0.97
-0.59
-0.06
0.58
1.23
1.73
1.93
1.80
1.37
0.78
0.17
-0.34
-0.68
-0.86
-0.93
-0.97
-1.06
-1.24
-1.50
-1.82
-2.16
-2.49
-2.77
-3.00
-3.14
-3.19
-3.13
-2.96
-2.72
-2.44
-2.13
-1.80
-1.47
-1.15
-0.90
-0.76
-0.83
-1.12
-1.64
-2.31
-2.99
-3.51
-3.72
-3.55
-3.06
-2.40
-1.70
-1.05
-0.45
0.17
0.84
1.52
2.11
2.49
2.64
2.63
2.59
2.62
2.76
2.95
3.08
3.08
2.96
2.80
2.71
2.74
2.85
2.95
2.92
2.72
2.38
2.03
1.77
1.63
1.59
1.55
1.41
1.13
0.73
0.28
-0.11
-0.38
-0.47
-0.40
-0.21
0.03
0.26
0.41
0.51
0.55
0.57
0.56
0.51
0.38
0.20
-0.03
-0.26
-0.47
-0.65
-0.78
-0.85
-0.81
-0.61
-0.27
0.12
0.41
0.43
0.13
-0.43
-1.07
-1.57
-1.79
-1.72
-1.45
-1.12
-0.83
-0.61
-0.43
-0.28
-0.18
-0.19
-0.36
-0.65
-0.99
-1.28
-1.44
-1.43
-1.29
-1.03
-0.69
-0.28
0.14
0.49
0.66
0.59
0.33
-0.02
-0.28
-0.35
-0.24
-0.02
0.19
0.32
0.39
0.45
0.57
0.75
0.95
1.13
1.25
1.32
1.38
1.46
1.56
1.65
1.68
1.61
1.41
1.06
0.60
0.11
-0.31
-0.59
-0.72
-0.79
-0.89
-1.12
-1.46
-1.80
-1.99
-1.95
-1.66
-1.25
-0.87
-0.61
-0.48
-0.44
-0.40
-0.30
-0.16
-0.02
0.09
0.17
0.24
0.35
0.56
0.90
1.36
1.92
2.48
2.94
3.21
3.27
3.15
2.95
2.72
2.47
2.13
1.64
0.99
0.28
-0.32
-0.69
-0.75
-0.55
-0.22
0.10
0.32
0.41
0.40
0.35
0.35
0.42
0.56
0.68
0.70
0.48
-0.05
-0.91
-2.01
-3.18
-4.23
-5.00
-5.43
-5.56
-5.51
-5.38
-5.19
-4.93
-4.53
-4.00
-3.38
-2.81
-2.40
-2.23
-2.29
-2.53
-2.83
-3.16
-3.48
-3.84
-4.27
-4.78
-5.31
-5.75
-5.99
-6.01
-5.92
-5.89
-6.14
-6.76
-7.72
-8.90
-10.13
-11.28
-12.26
-13.06
-13.65
-14.05
-14.27
-14.33
-14.32
-14.32
-14.37
-14.52
-14.77
-15.10
-15.49
-15.93
-16.36
-16.70
-16.84
-16.60
-15.78
-14.14
-11.45
-7.61
-2.60
3.43
10.27
17.68
25.49
33.59
41.92
50.39
58.77
66.64
73.44
78.51
81.28
81.38
78.79
73.82
67.01
59.04
50.56
42.15
34.27
27.28
21.39
16.65
12.88
9.70
6.73
3.65
0.42
-2.75
-5.49
-7.49
-8.58
-8.83
-8.43
-7.61
-6.59
-5.50
-4.46
-3.59
-3.01
-2.87
-3.31
-4.38
-6.11
-8.47
-11.35
-14.62
-18.09
-21.57
-24.87
-27.77
-30.09
-31.68
-32.45
-32.40
-31.60
-30.24
-28.51
-26.61
-24.72
-22.92
-21.26
-19.73
-18.30
-16.97
-15.74
-14.62
-13.61
-12.66
-11.76
-10.84
-9.91
-9.02
-8.24
-7.62
-7.16
-6.82
-6.51
-6.15
-5.70
-5.21
-4.75
-4.39
-4.14
-4.00
-3.89
-3.75
-3.50
-3.14
-2.68
-2.17
-1.68
-1.26
-0.94
-0.70
-0.54
-0.42
-0.34
-0.32
-0.38
-0.51
-0.68
-0.79
-0.75
-0.54
-0.21
0.11
0.26
0.19
-0.06
-0.34
-0.50
-0.44
-0.18
0.17
0.46
0.62
0.65
0.60
0.52
0.45
0.35
0.22
0.07
-0.07
-0.17
-0.28
-0.45
-0.72
-1.06
-1.36
-1.50
-1.42
-1.13
-0.72
-0.26
0.22
0.75
1.31
1.79
2.06
1.98
1.53
0.85
0.18
-0.27
-0.44
-0.40
-0.33
-0.37
-0.59
-0.93
-1.31
-1.64
-1.86
-1.96
-1.95
-1.88
-1.82
-1.91
-2.24
-2.87
-3.73
-4.67
-5.49
-6.07
-6.38
-6.51
-6.55
-6.55
-6.46
-6.23
-5.79
-5.10
-4.11
-2.70
-0.72
1.96
5.34
9.22
13.21
16.83
19.67
21.51
22.30
22.16
21.26
19.79
17.93
15.83
13.60
11.32
9.04
6.74
4.49
2.40
0.67
-0.48
-0.86
-0.44
0.68
2.31
4.19
6.15
8.04
9.78
11.33
12.61
13.58
14.25
14.67
14.98
15.30
15.70
16.16
16.50
16.49
15.90
14.62
12.69
10.33
7.83
5.46
3.34
1.44
-0.39
-2.27
-4.20
-6.04
-7.51
-8.36
-8.41
-7.71
-6.45
-4.99
-3.67
-2.74
-2.28
-2.20
-2.27
-2.21
-1.83
-1.03
0.11
1.40
2.62
3.57
4.13
4.27
4.06
3.66
3.33
3.35
3.97
5.34
7.45
10.11
13.07
15.97
18.45
20.22
21.06
20.88
19.70
17.65
14.93
11.78
8.41
4.96
1.55
-1.78
-4.92
-7.68
-9.73
-10.70
-10.26
-8.29
-4.93
-0.59
4.30
9.40
14.70
20.31
26.40
32.87
39.37
45.36
50.40
54.34
57.45
60.21
63.08
66.24
69.41
71.94
72.93
71.48
66.92
59.02
48.08
35.03
21.28
8.37
-2.46
-10.73
-16.89
-22.11
-27.74
-34.64
-42.70
-50.90
-57.74
-61.97
-63.20
-61.96
-59.46
-57.09
-55.99
-56.87
-60.03
-65.54
-73.18
-82.45
-92.53
-102.27
-110.49
-116.20
-118.89
-118.56
-115.62
-110.60
-103.96
-95.97
-86.80
-76.59
-65.56
-53.98
-42.17
-30.42
-19.08
-8.59
0.54
7.84
13.05
16.34
18.29
19.70
21.21
23.06
25.04
26.73
27.80
28.25
28.36
28.47
28.80
29.28
29.63
29.52
28.70
27.06
24.70
21.78
18.51
15.14
11.89
8.94
6.43
4.39
2.77
1.47
0.41
-0.47
-1.16
-1.64
-1.89
-1.96
-1.96
-2.01
-2.22
-2.60
-3.09
-3.60
-4.03
-4.34
-4.55
-4.67
-4.72
-4.72
-4.67
-4.62
-4.63
-4.71
-4.85
-4.97
-4.94
-4.68
-4.14
-3.33
-2.34
-1.29
-0.30
0.50
1.07
1.46
1.77
2.11
2.53
3.02
3.49
3.80
3.86
3.63
3.12
2.45
1.77
1.28
1.13
1.38
1.95
2.68
3.37
3.87
4.17
4.33
4.49
4.75
5.13
5.55
5.92
6.11
6.06
5.76
5.30
4.81
4.46
4.40
4.64
5.12
5.63
5.96
5.95
5.58
4.95
4.18
3.42
2.75
2.19
1.77
1.53
1.47
1.60
1.86
2.13
2.33
2.36
2.19
1.80
1.22
0.50
-0.32
-1.12
-1.80
-2.23
-2.34
-2.11
-1.59
-0.84
0.03
0.90
1.67
2.25
2.62
2.79
2.82
2.73
2.53
2.21
1.76
1.21
0.63
0.09
-0.34
-0.68
-0.97
-1.29
-1.67
-2.13
-2.64
-3.24
-3.93
-4.79
-5.80
-6.93
-8.09
-9.18
-10.14
-10.95
-11.66
-12.27
-12.79
-13.20
-13.49
-13.69
-13.75
-13.63
-13.17
-12.26
-10.86
-9.12
-7.37
-5.95
-5.12
-4.90
-5.07
-5.25
-4.97
-3.88
-1.79
1.27
5.08
9.25
13.40
17.14
20.23
22.59
24.26
25.41
26.28
27.13
28.21
29.71
31.65
33.97
36.50
39.07
41.54
43.83
45.85
47.54
48.77
49.34
48.97
47.30
44.01
38.95
32.29
24.55
16.51
8.98
2.53
-2.66
-6.83
-10.46
-14.03
-17.85
-21.95
-26.05
-29.70
-32.36
-33.61
-33.30
-31.69
-29.42
-27.29
-25.99
-25.88
-26.79
-28.17
-29.23
-29.19
-27.46
-23.74
-18.06
-10.79
-2.66
5.37
12.30
17.32
20.10
20.87
20.33
19.35
18.72
18.88
19.87
21.41
23.14
24.78
26.20
27.50
28.84
30.43
32.43
34.88
37.76
40.89
43.92
46.35
47.54
46.91
44.07
39.03
32.26
24.60
16.98
10.14
4.35
-0.51
-4.76
-8.65
-12.15
-14.98
-16.82
-17.57
-17.50
-17.13
-16.99
-17.35
-18.12
-18.97
-19.53
-19.64
-19.38
-18.98
-18.65
-18.42
-18.18
-17.72
-16.91
-15.74
-14.36
-12.95
-11.71
-10.78
-10.20
-10.00
-10.15
-10.59
-11.24
-11.99
-12.72
-13.34
-13.80
-14.09
-14.20
-14.10
-13.76
-13.16
-12.36
-11.44
-10.54
-9.74
-9.03
-8.38
-7.70
-6.96
-6.19
-5.48
-4.87
-4.38
-3.98
-3.62
-3.32
-3.12
-3.09
-3.27
-3.63
-4.10
-4.57
-4.93
-5.07
-4.96
-4.66
-4.29
-4.05
-4.04
-4.29
-4.67
-4.97
-4.97
-4.55
-3.72
-2.60
-1.35
-0.13
0.96
1.86
2.51
2.88
2.99
2.89
2.70
2.54
2.51
2.64
2.87
3.10
3.25
3.28
3.23
3.14
3.06
3.00
2.92
2.74
2.44
2.00
1.48
0.94
0.40
-0.14
-0.72
-1.35
-2.00
-2.59
-3.02
-3.20
-3.06
-2.64
-2.00
-1.27
-0.62
-0.19
-0.06
-0.24
-0.61
-1.00
-1.21
-1.10
-0.66
0.02
0.80
1.52
2.10
2.53
2.85
3.10
3.29
3.36
3.26
2.93
2.42
1.83
1.36
1.14
1.24
1.55
1.87
1.99
1.78
1.26
0.61
0.01
-0.42
-0.68
-0.85
-1.02
-1.19
-1.32
-1.34
-1.23
-1.07
-0.96
-1.03
-1.31
-1.77
-2.31
-2.86
-3.36
-3.78
-4.07
-4.20
-4.12
-3.82
-3.30
-2.64
-1.93
-1.25
-0.65
-0.12
0.38
0.90
1.44
1.95
2.35
2.57
2.56
2.37
2.10
1.85
1.72
1.75
1.92
2.16
2.37
2.49
2.49
2.34
2.08
1.72
1.29
0.80
0.30
-0.17
-0.56
-0.84
-1.02
-1.15
-1.30
-1.52
-1.80
-2.11
-2.39
-2.62
-2.85
-3.13
-3.48
-3.85
-4.11
-4.09
-3.70
-2.92
-1.86
-0.68
0.44
1.38
2.08
2.53
2.78
2.85
2.80
2.66
2.46
2.24
2.01
1.77
1.55
1.36
1.20
1.08
0.98
0.86
0.72
0.58
0.50
0.56
0.78
1.11
1.40
1.53
1.41
1.04
0.52
-0.01
-0.43
-0.66
-0.72
-0.68
-0.65
-0.73
-0.97
-1.36
-1.82
-2.27
-2.64
-2.87
-2.94
-2.83
-2.52
-2.00
-1.29
-0.46
0.34
0.99
1.37
1.46
1.30
0.97
0.59
0.24
0.03
-0.01
0.16
0.49
0.89
1.29
1.63
1.87
2.05
2.18
2.30
2.40
2.49
2.57
2.61
2.61
2.53
2.38
2.16
1.93
1.75
1.66
1.66
1.68
1.65
1.52
1.29
0.98
0.62
0.23
-0.20
-0.67
-1.13
-1.45
-1.50
-1.18
-0.48
0.49
1.55
2.49
3.14
3.45
3.45
3.28
3.05
2.82
2.59
2.33
2.03
1.76
1.58
1.57
1.75
2.02
2.27
2.38
2.27
1.96
1.50
0.98
0.48
0.05
-0.29
-0.56
-0.82
-1.10
-1.43
-1.85
-2.33
-2.85
-3.37
-3.83
-4.19
-4.42
-4.49
-4.41
-4.19
-3.92
-3.65
-3.44
-3.31
-3.23
-3.16
-3.10
-3.09
-3.18
-3.37
-3.62
-3.78
-3.70
-3.29
-2.57
-1.69
-0.88
-0.33
-0.20
-0.54
-1.30
-2.33
-3.47
-4.49
-5.20
-5.49
-5.37
-4.97
-4.48
-4.07
-3.79
-3.60
-3.37
-2.95
-2.27
-1.33
-0.23
0.92
2.01
2.93
3.59
3.89
3.76
3.16
2.18
1.00
-0.09
-0.83
-1.04
-0.66
0.25
1.57
3.13
4.77
6.33
7.63
8.48
8.76
8.44
7.66
6.64
5.65
4.89
4.37
3.97
3.50
2.80
1.85
0.77
-0.28
-1.13
-1.76
-2.23
-2.66
-3.13
-3.62
-4.05
-4.28
-4.23
-3.84
-3.13
-2.12
-0.86
0.54
1.92
3.07
3.75
3.77
3.09
1.84
0.27
-1.25
-2.41
-2.95
-2.83
-2.15
-1.18
-0.29
0.22
0.13
-0.59
-1.82
-3.34
-4.93
-6.41
-7.66
-8.59
-9.13
-9.18
-8.68
-7.61
-6.02
-4.07
-1.91
0.26
2.30
4.09
5.59
6.78
7.69
8.39
8.90
9.25
9.38
9.22
8.74
7.97
7.02
6.06
5.22
4.55
4.03
3.62
3.27
3.00
2.83
2.76
2.75
2.72
2.60
2.37
2.08
1.78
1.46
1.09
0.59
-0.04
-0.78
-1.52
-2.12
-2.47
-2.54
-2.40
-2.21
-2.20
-2.59
-3.49
-4.86
-6.47
-7.97
-8.97
-9.20
-8.62
-7.44
-6.04
-4.81
-3.99
-3.54
-3.21
-2.62
-1.42
0.63
3.57
7.28
11.42
15.54
19.11
21.66
22.94
23.05
22.38
21.50
20.94
20.98
21.57
22.46
23.31
23.84
23.94
23.59
22.84
21.69
20.12
18.16
15.89
13.52
11.34
9.63
8.53
7.97
7.69
7.34
6.58
5.29
3.51
1.46
-0.58
-2.39
-3.92
-5.22
-6.44
-7.71
-9.05
-10.39
-11.59
-12.51
-13.13
-13.52
-13.81
-14.11
-14.42
-14.67
-14.71
-14.45
-13.90
-13.17
-12.47
-11.96
-11.75
-11.86
-12.22
-12.76
-13.36
-13.95
-14.42
-14.71
-14.75
-14.51
-13.99
-13.24
-12.29
-11.19
-9.98
-8.65
-7.22
-5.72
-4.21
-2.81
-1.64
-0.77
-0.20
0.16
0.43
0.73
1.07
1.39
1.53
1.37
0.83
-0.07
-1.22
-2.46
-3.59
-4.41
-4.70
-4.36
-3.36
-1.82
-0.00
1.78
3.24
4.16
4.42
4.03
3.04
1.55
-0.27
-2.23
-4.08
-5.58
-6.54
-6.87
-6.60
-5.86
-4.87
-3.85
-2.96
-2.25
-1.63
-0.98
-0.20
0.73
1.71
2.62
3.33
3.81
4.05
4.07
3.87
3.50
3.03
2.62
2.43
2.57
3.01
3.58
4.04
4.17
3.89
3.24
2.36
1.45
0.65
0.09
-0.19
-0.18
0.03
0.34
0.56
0.55
0.24
-0.33
-0.97
-1.47
-1.66
-1.48
-1.01
-0.44
0.07
0.39
0.50
0.45
0.36
0.32
0.41
0.65
1.01
1.41
1.70
1.81
1.73
1.53
1.39
1.46
1.82
2.40
3.05
3.55
3.75
3.60
3.16
2.56
1.98
1.55
1.34
1.35
1.48
1.59
1.52
1.19
0.63
-0.03
-0.58
-0.88
-0.89
-0.75
-0.63
-0.72
-1.08
-1.63
-2.17
-2.51
-2.54
-2.32
-1.99
-1.73
-1.69
-1.91
-2.42
-3.17
-4.08
-5.05
-5.87
-6.31
-6.18
-5.42
-4.15
-2.68
-1.29
-0.22
0.48
0.91
1.17
1.35
1.42
1.35
1.09
0.72
0.41
0.31
0.55
1.10
1.83
2.50
2.90
2.94
2.60
1.99
1.25
0.51
-0.16
-0.68
-0.98
-1.01
-0.77
-0.34
0.15
0.52
0.67
0.56
0.22
-0.30
-0.95
-1.66
-2.33
-2.81
-2.92
-2.58
-1.83
-0.90
-0.04
0.54
0.82
0.85
0.78
0.67
0.47
0.10
-0.47
-1.18
-1.87
-2.36
-2.54
-2.37
-1.91
-1.26
-0.48
0.34
1.12
1.75
2.15
2.24
2.05
1.68
1.28
1.04
1.04
1.25
1.56
1.79
1.84
1.68
1.40
1.13
0.97
0.94
1.01
1.10
1.12
1.07
0.96
0.81
0.69
0.60
0.56
0.53
0.48
0.36
0.12
-0.20
-0.56
-0.85
-1.01
-0.98
-0.83
-0.63
-0.51
-0.56
-0.83
-1.25
-1.71
-2.11
-2.37
-2.50
-2.56
-2.59
-2.59
-2.48
-2.18
-1.66
-0.97
-0.24
0.44
1.00
1.46
1.84
2.18
2.46
2.65
2.73
2.72
2.63
2.48
2.28
2.05
1.81
1.59
1.43
1.32
1.24
1.13
0.97
0.77
0.59
0.52
0.60
0.78
1.00
1.14
1.12
0.90
0.52
0.05
-0.42
-0.83
-1.17
-1.43
-1.62
-1.76
-1.84
-1.88
-1.92
-2.02
-2.23
-2.60
-3.15
-3.84
-4.58
-5.25
-5.76
-6.01
-5.99
-5.73
-5.27
-4.70
-4.07
-3.42
-2.78
-2.14
-1.55
-1.07
-0.75
-0.66
-0.81
-1.16
-1.62
-2.06
-2.35
-2.42
-2.22
-1.78
-1.15
-0.43
0.30
0.97
1.52
1.92
2.17
2.29
2.30
2.23
2.09
1.87
1.58
1.27
1.00
0.85
0.86
0.99
1.19
1.44
1.72
2.07
2.54
3.14
3.79
4.34
4.62
4.54
4.10
3.41
2.62
1.87
1.19
0.57
-0.09
-0.85
-1.72
-2.60
-3.34
-3.81
-3.93
-3.73
-3.35
-2.93
-2.59
-2.36
-2.17
-1.94
-1.59
-1.15
-0.69
-0.31
-0.07
0.03
0.08
0.19
0.43
0.83
1.36
1.93
2.52
3.06
3.54
3.92
4.17
4.22
4.05
3.65
3.12
2.59
2.21
2.06
2.16
2.42
2.68
2.84
2.86
2.83
2.89
3.12
3.50
3.90
4.17
4.21
4.05
3.83
3.71
3.80
4.03
4.22
4.16
3.71
2.89
1.85
0.77
-0.26
-1.27
-2.37
-3.61
-4.91
-6.07
-6.84
-7.04
-6.67
-5.91
-4.98
-4.09
-3.34
-2.73
-2.21
-1.74
-1.32
-0.94
-0.62
-0.40
-0.29
-0.31
-0.45
-0.66
-0.85
-0.97
-0.94
-0.74
-0.37
0.11
0.57
0.87
0.90
0.62
0.13
-0.35
-0.60
-0.47
0.02
0.73
1.43
1.93
2.11
1.99
1.62
1.12
0.58
0.11
-0.27
-0.56
-0.82
-1.08
-1.33
-1.54
-1.66
-1.71
-1.77
-1.95
-2.28
-2.71
-3.08
-3.23
-3.08
-2.64
-2.02
-1.36
-0.77
-0.33
-0.06
0.01
-0.13
-0.50
-1.01
-1.55
-2.01
-2.25
-2.25
-2.08
-1.84
-1.68
-1.66
-1.79
-1.99
-2.17
-2.27
-2.31
-2.37
-2.59
-3.06
-3.82
-4.79
-5.85
-6.84
-7.61
-8.11
-8.37
-8.49
-8.67
-9.05
-9.75
-10.77
-11.97
-13.14
-14.05
-14.58
-14.77
-14.77
-14.80
-14.93
-15.07
-14.92
-14.09
-12.22
-9.08
-4.51
1.52
8.92
17.36
26.28
34.84
42.22
47.83
51.61
53.93
55.37
56.38
56.91
56.51
54.64
51.06
46.13
40.73
35.88
32.24
29.86
28.25
26.68
24.61
21.91
18.86
15.86
13.17
10.77
8.41
5.80
2.79
-0.52
-3.88
-6.98
-9.61
-11.73
-13.44
-14.91
-16.30
-17.70
-19.11
-20.42
-21.52
-22.29
-22.62
-22.45
-21.76
-20.58
-18.96
-16.99
-14.75
-12.38
-10.03
-7.91
-6.19
-5.04
-4.46
-4.34
-4.42
-4.43
-4.19
-3.68
-3.07
-2.63
-2.68
-3.42
-4.89
-6.96
-9.35
-11.69
-13.71
-15.29
-16.50
-17.55
-18.61
-19.65
-20.45
-20.68
-20.08
-18.59
-16.38
-13.74
-10.94
-8.15
-5.50
-3.14
-1.35
-0.43
-0.57
-1.67
-3.32
-4.95
-6.05
-6.42
-6.22
-5.80
-5.51
-5.49
-5.67
-5.84
-5.81
-5.55
-5.14
-4.72
-4.37
-4.09
-3.83
-3.52
-3.14
-2.72
-2.32
-2.00
-1.76
-1.58
-1.43
-1.26
-1.02
-0.72
-0.35
0.03
0.38
0.61
0.68
0.54
0.22
-0.21
-0.62
-0.93
-1.09
-1.16
-1.21
-1.33
-1.55
-1.82
-2.07
-2.23
-2.31
-2.37
-2.48
-2.73
-3.09
-3.47
-3.67
-3.51
-2.85
-1.72
-0.32
1.06
2.17
2.85
3.15
3.22
3.21
3.21
3.26
3.31
3.37
3.41
3.41
3.31
3.06
2.66
2.16
1.70
1.38
1.24
1.25
1.29
1.28
1.18
1.03
0.89
0.76
0.66
0.55
0.41
0.24
0.04
-0.19
-0.44
-0.72
-1.00
-1.24
-1.43
-1.55
-1.59
-1.61
-1.62
-1.68
-1.80
-2.00
-2.27
-2.58
-2.86
-2.98
-2.85
-2.40
-1.63
-0.64
0.44
1.45
2.28
2.86
3.23
3.45
3.61
3.75
3.88
3.96
3.92
3.77
3.57
3.42
3.38
3.47
3.59
3.64
3.55
3.36
3.16
3.03
3.00
3.00
2.91
2.67
2.27
1.81
1.41
1.16
1.07
1.05
1.00
0.82
0.48
-0.00
-0.55
-1.06
-1.45
-1.70
-1.85
-2.01
-2.26
-2.61
-3.00
-3.32
-3.43
-3.26
-2.81
-2.16
-1.40
-0.64
0.05
0.66
1.18
1.59
1.90
2.09
2.16
2.10
1.91
1.62
1.29
0.97
0.74
0.64
0.70
0.88
1.11
1.30
1.36
1.27
1.05
0.74
0.35
-0.08
-0.54
-0.96
-1.25
-1.33
-1.18
-0.89
-0.61
-0.46
-0.54
-0.82
-1.20
-1.62
-2.01
-2.38
-2.68
-2.87
-2.85
-2.55
-1.99
-1.27
-0.56
0.02
0.39
0.59
0.73
0.92
1.22
1.63
2.02
2.24
2.15
1.72
1.03
0.32
-0.17
-0.28
0.02
0.57
1.20
1.73
2.12
2.37
2.49
2.45
2.18
1.64
0.94
0.25
-0.20
-0.29
-0.07
0.28
0.54
0.56
0.33
-0.05
-0.46
-0.84
-1.17
-1.49
-1.81
-2.12
-2.38
-2.52
-2.49
-2.25
-1.80
-1.19
-0.51
0.12
0.62
0.94
1.10
1.13
1.07
0.95
0.74
0.48
0.23
0.08
0.13
0.44
0.97
1.59
2.13
2.49
2.57
2.41
2.07
1.66
1.24
0.87
0.57
0.32
0.10
-0.10
-0.26
-0.37
-0.41
-0.42
-0.45
-0.54
-0.72
-1.00
-1.32
-1.65
-1.99
-2.34
-2.71
-3.08
-3.38
-3.51
-3.41
-3.06
-2.50
-1.83
-1.14
-0.50
0.06
0.54
0.97
1.37
1.73
1.99
2.07
1.91
1.52
1.00
0.53
0.29
0.42
0.88
1.54
2.21
2.69
2.88
2.80
2.52
2.13
1.70
1.24
0.77
0.34
0.04
-0.03
0.14
0.46
0.76
0.86
0.66
0.22
-0.30
-0.71
-0.93
-1.01
-1.10
-1.32
-1.70
-2.14
-2.46
-2.54
-2.34
-1.94
-1.46
-0.99
-0.57
-0.17
0.23
0.62
0.97
1.24
1.39
1.42
1.36
1.22
1.05
0.88
0.73
0.65
0.64
0.68
0.73
0.76
0.77
0.77
0.83
0.96
1.14
1.31
1.37
1.29
1.05
0.70
0.33
0.02
-0.19
-0.27
-0.25
-0.13
0.03
0.20
0.34
0.36
0.21
-0.10
-0.55
-1.01
-1.38
-1.53
-1.42
-1.09
-0.65
-0.20
0.17
0.45
0.69
0.94
1.21
1.45
1.55
1.43
1.09
0.63
0.20
-0.08
-0.14
-0.01
0.22
0.48
0.72
0.93
1.10
1.22
1.29
1.30
1.25
1.13
0.94
0.67
0.37
0.08
-0.11
-0.14
-0.02
0.16
0.28
0.23
0.00
-0.33
-0.65
-0.87
-1.00
-1.08
-1.17
-1.27
-1.32
-1.25
-1.03
-0.69
-0.26
0.20
0.69
1.17
1.58
1.84
1.87
1.65
1.23
0.71
0.22
-0.17
-0.40
-0.43
-0.29
-0.01
0.31
0.55
0.63
0.55
0.37
0.18
0.06
0.04
0.09
0.18
0.29
0.43
0.54
0.56
0.43
0.13
-0.30
-0.77
-1.20
-1.51
-1.72
-1.85
-1.92
-1.95
-1.89
-1.72
-1.41
-0.97
-0.41
0.20
0.79
1.28
1.58
1.66
1.53
1.26
0.94
0.65
0.44
0.32
0.26
0.25
0.30
0.45
0.69
0.98
1.21
1.25
1.03
0.57
0.00
-0.48
-0.71
-0.66
-0.42
-0.17
-0.06
-0.19
-0.55
-1.04
-1.55
-1.98
-2.27
-2.40
-2.39
-2.26
-2.05
-1.80
-1.53
-1.24
-0.90
-0.48
0.04
0.62
1.19
1.65
1.90
1.93
1.77
1.53
1.31
1.20
1.22
1.29
1.35
1.35
1.31
1.26
1.25
1.25
1.24
1.15
0.98
0.74
0.47
0.21
-0.02
-0.22
-0.37
-0.45
-0.43
-0.32
-0.17
-0.04
0.00
-0.08
-0.30
-0.62
-0.99
-1.34
-1.58
-1.64
-1.45
-1.03
-0.42
0.26
0.88
1.32
1.54
1.56
1.44
1.26
1.07
0.90
0.78
0.74
0.77
0.87
1.01
1.14
1.22
1.24
1.23
1.23
1.27
1.33
1.36
1.30
1.09
0.73
0.26
-0.23
-0.66
-0.95
-1.06
-1.02
-0.90
-0.79
-0.77
-0.83
-0.96
-1.07
-1.12
-1.04
-0.83
-0.48
-0.02
0.48
0.93
1.24
1.38
1.37
1.28
1.20
1.15
1.13
1.10
1.04
0.95
0.88
0.86
0.89
0.95
1.02
1.06
1.06
1.03
0.98
0.92
0.86
0.79
0.70
0.57
0.37
0.07
-0.29
-0.63
-0.88
-0.98
-0.94
-0.82
-0.68
-0.57
-0.52
-0.50
-0.47
-0.39
-0.20
0.14
0.63
1.23
1.82
2.26
2.45
2.32
1.91
1.38
0.85
0.44
0.19
0.09
0.10
0.20
0.36
0.55
0.72
0.81
0.79
0.70
0.60
0.55
0.59
0.71
0.82
0.86
0.76
0.50
0.12
-0.29
-0.68
-0.95
-1.08
-1.12
-1.15
-1.30
-1.59
-1.98
-2.35
-2.52
-2.41
-2.04
-1.50
-0.90
-0.32
0.18
0.59
0.85
0.94
0.89
0.81
0.82
1.00
1.32
1.66
1.88
1.89
1.73
1.49
1.25
1.04
0.83
0.60
0.38
0.25
0.24
0.34
0.48
0.52
0.43
0.23
0.04
-0.07
-0.07
-0.03
-0.03
-0.14
-0.36
-0.63
-0.89
-1.08
-1.21
-1.32
-1.44
-1.55
-1.61
-1.54
-1.30
-0.93
-0.49
-0.11
0.15
0.29
0.37
0.45
0.56
0.67
0.74
0.73
0.65
0.55
0.49
0.48
0.44
0.33
0.12
-0.12
-0.27
-0.24
0.01
0.40
0.77
0.99
0.97
0.74
0.36
-0.07
-0.45
-0.73
-0.90
-0.97
-1.02
-1.08
-1.20
-1.35
-1.47
-1.50
-1.45
-1.35
-1.27
-1.25
-1.30
-1.42
-1.60
-1.83
-2.10
-2.38
-2.60
-2.62
-2.34
-1.75
-0.94
-0.13
0.49
0.78
0.76
0.59
0.44
0.42
0.51
0.63
0.63
0.50
0.29
0.13
0.14
0.33
0.62
0.89
1.06
1.10
1.03
0.87
0.62
0.30
-0.04
-0.30
-0.38
-0.23
0.06
0.33
0.41
0.22
-0.19
-0.67
-1.03
-1.17
-1.09
-0.91
-0.75
-0.71
-0.79
-0.95
-1.11
-1.19
-1.16
-1.03
-0.83
-0.62
-0.40
-0.20
0.02
0.26
0.51
0.75
0.92
0.97
0.90
0.72
0.47
0.20
-0.04
-0.22
-0.32
-0.31
-0.18
0.08
0.43
0.80
1.11
1.26
1.18
0.89
0.46
0.03
-0.30
-0.47
-0.49
-0.43
-0.35
-0.34
-0.40
-0.53
-0.71
-0.90
-1.08
-1.23
-1.36
-1.46
-1.52
-1.50
-1.39
-1.17
-0.88
-0.59
-0.32
-0.11
0.06
0.22
0.39
0.56
0.71
0.79
0.80
0.74
0.59
0.37
0.11
-0.11
-0.19
-0.04
0.34
0.88
1.43
1.88
2.15
2.26
2.22
2.11
1.96
1.78
1.59
1.34
1.04
0.65
0.20
-0.22
-0.54
-0.68
-0.66
-0.56
-0.48
-0.48
-0.57
-0.67
-0.74
-0.75
-0.75
-0.81
-0.96
-1.15
-1.32
-1.43
-1.45
-1.40
-1.29
-1.08
-0.73
-0.22
0.42
1.04
1.51
1.77
1.81
1.74
1.63
1.55
1.46
1.35
1.19
1.02
0.89
0.80
0.76
0.72
0.69
0.68
0.70
0.73
0.75
0.71
0.60
0.44
0.24
0.04
-0.16
-0.34
-0.46
-0.48
-0.37
-0.15
0.07
0.19
0.15
-0.05
-0.30
-0.51
-0.63
-0.65
-0.64
-0.63
-0.64
-0.62
-0.54
-0.39
-0.19
0.01
0.17
0.26
0.28
0.29
0.36
0.53
0.79
1.08
1.29
1.37
1.28
1.08
0.82
0.57
0.36
0.18
0.03
-0.08
-0.12
-0.03
0.19
0.52
0.86
1.09
1.15
1.02
0.76
0.46
0.19
0.01
-0.09
-0.12
-0.12
-0.12
-0.13
-0.15
-0.16
-0.16
-0.17
-0.20
-0.30
-0.47
-0.69
-0.89
-1.02
-1.04
-0.96
-0.81
-0.64
-0.47
-0.31
-0.16
-0.04
0.05
0.10
0.14
0.23
0.39
0.60
0.78
0.87
0.84
0.74
0.62
0.52
0.46
0.39
0.28
0.13
0.01
-0.01
0.13
0.40
0.71
0.91
0.91
0.73
0.48
0.34
0.41
0.68
1.04
1.32
1.38
1.20
0.84
0.43
0.09
-0.14
-0.29
-0.44
-0.63
-0.91
-1.27
-1.68
-2.10
-2.46
-2.67
-2.68
-2.44
-1.99
-1.38
-0.72
-0.12
0.34
0.63
0.75
0.74
0.66
0.59
0.59
0.67
0.82
0.98
1.09
1.11
1.04
0.93
0.83
0.78
0.79
0.78
0.70
0.50
0.17
-0.26
-0.69
-1.04
-1.21
-1.19
-1.00
-0.73
-0.49
-0.34
-0.29
-0.32
-0.38
-0.47
-0.58
-0.73
-0.90
-1.09
-1.26
-1.40
-1.51
-1.60
-1.66
-1.68
-1.61
-1.43
-1.16
-0.87
-0.63
-0.47
-0.38
-0.29
-0.14
0.10
0.44
0.80
1.11
1.32
1.40
1.34
1.21
1.06
0.96
0.96
1.07
1.23
1.36
1.39
1.28
1.08
0.86
0.70
0.66
0.70
0.74
0.68
0.46
0.09
-0.37
-0.81
-1.14
-1.30
-1.31
-1.20
-1.05
-0.90
-0.79
-0.72
-0.72
-0.81
-0.99
-1.28
-1.61
-1.94
-2.17
-2.21
-2.04
-1.67
-1.19
-0.71
-0.32
-0.02
0.25
0.55
0.89
1.19
1.35
1.29
1.03
0.69
0.40
0.29
0.39
0.65
1.01
1.38
1.65
1.76
1.64
1.31
0.85
0.41
0.12
0.03
0.07
0.13
0.11
0.02
-0.08
-0.14
-0.17
-0.24
-0.43
-0.74
-1.09
-1.33
-1.38
-1.27
-1.10
-1.04
-1.13
-1.31
-1.47
-1.50
-1.34
-1.05
-0.70
-0.36
-0.07
0.18
0.37
0.51
0.56
0.54
0.47
0.41
0.41
0.48
0.59
0.69
0.76
0.78
0.77
0.74
0.69
0.62
0.52
0.40
0.29
0.20
0.14
0.09
0.01
-0.10
-0.22
-0.30
-0.29
-0.15
0.07
0.29
0.44
0.49
0.44
0.35
0.25
0.13
-0.04
-0.28
-0.60
-0.96
-1.34
-1.70
-2.07
-2.42
-2.71
-2.81
-2.61
-2.08
-1.30
-0.47
0.22
0.66
0.84
0.89
0.93
1.05
1.25
1.46
1.62
1.68
1.66
1.58
1.49
1.41
1.37
1.36
1.38
1.38
1.32
1.17
0.91
0.61
0.32
0.16
0.16
0.29
0.46
0.54
0.43
0.11
-0.35
-0.80
-1.12
-1.19
-1.01
-0.68
-0.34
-0.16
-0.25
-0.60
-1.11
-1.61
-1.92
-1.98
-1.80
-1.49
-1.17
-0.88
-0.63
-0.34
0.01
0.44
0.87
1.20
1.37
1.36
1.21
1.01
0.86
0.83
0.93
1.09
1.21
1.20
1.03
0.75
0.45
0.23
0.14
0.15
0.21
0.23
0.18
0.09
0.01
-0.05
-0.10
-0.17
-0.31
-0.53
-0.81
-1.09
-1.31
-1.41
-1.36
-1.22
-1.04
-0.91
-0.89
-0.99
-1.16
-1.34
-1.50
-1.60
-1.65
-1.62
-1.47
-1.15
-0.64
0.01
0.72
1.37
1.85
2.11
2.16
2.08
1.94
1.80
1.68
1.55
1.34
1.08
0.80
0.61
0.60
0.76
0.99
1.10
0.98
0.65
0.25
-0.07
-0.21
-0.21
-0.19
-0.23
-0.36
-0.52
-0.64
-0.68
-0.68
-0.70
-0.82
-1.02
-1.29
-1.56
-1.78
-1.91
-1.90
-1.73
-1.42
-1.01
-0.58
-0.21
0.05
0.21
0.32
0.40
0.51
0.68
0.93
1.23
1.56
1.84
1.95
1.79
1.36
0.72
0.09
-0.32
-0.36
-0.04
0.46
0.91
1.12
1.05
0.77
0.43
0.12
-0.14
-0.36
-0.54
-0.68
-0.71
-0.62
-0.43
-0.24
-0.12
-0.12
-0.24
-0.42
-0.61
-0.76
-0.81
-0.72
-0.49
-0.18
0.12
0.28
0.24
0.04
-0.17
-0.25
-0.11
0.22
0.61
0.91
1.01
0.92
0.74
0.58
0.53
0.60
0.77
0.98
1.15
1.24
1.21
1.08
0.85
0.56
0.24
-0.08
-0.37
-0.60
-0.79
-0.95
-1.08
-1.19
-1.28
-1.31
-1.28
-1.16
-0.99
-0.82
-0.71
-0.69
-0.71
-0.73
-0.68
-0.53
-0.32
-0.10
0.11
0.31
0.53
0.78
1.04
1.23
1.31
1.27
1.17
1.07
1.04
1.06
1.11
1.13
1.11
1.05
0.93
0.77
0.56
0.33
0.13
-0.01
-0.11
-0.22
-0.36
-0.53
-0.67
-0.70
-0.62
-0.47
-0.37
-0.44
-0.69
-1.05
-1.42
-1.72
-1.93
-2.08
-2.17
-2.15
-1.95
-1.52
-0.88
-0.12
0.62
1.24
1.65
1.85
1.85
1.71
1.47
1.21
0.97
0.77
0.63
0.54
0.53
0.62
0.79
1.02
1.21
1.24
1.06
0.68
0.22
-0.18
-0.39
-0.41
-0.31
-0.25
-0.34
-0.58
-0.90
-1.16
-1.31
-1.33
-1.30
-1.33
-1.47
-1.69
-1.91
-2.01
-1.96
-1.76
-1.48
-1.16
-0.82
-0.41
0.10
0.69
1.28
1.74
1.96
1.90
1.61
1.23
0.85
0.53
0.26
0.03
-0.19
-0.34
-0.36
-0.22
0.06
0.39
0.67
0.78
0.69
0.43
0.09
-0.21
-0.36
-0.38
-0.32
-0.32
-0.46
-0.74
-1.06
-1.33
-1.45
-1.46
-1.45
-1.51
-1.67
-1.88
-2.03
-2.02
-1.83
-1.52
-1.18
-0.86
-0.60
-0.34
-0.04
0.32
0.70
1.00
1.13
1.02
0.72
0.36
0.10
0.01
0.12
0.31
0.51
0.66
0.80
0.95
1.16
1.38
1.55
1.57
1.43
1.14
0.79
0.44
0.13
-0.14
-0.38
-0.57
-0.68
-0.68
-0.58
-0.47
-0.47
-0.70
-1.18
-1.82
-2.41
-2.79
-2.84
-2.60
-2.21
-1.81
-1.47
-1.18
-0.86
-0.42
0.13
0.74
1.29
1.71
1.95
2.05
2.02
1.92
1.75
1.54
1.30
1.07
0.89
0.77
0.69
0.62
0.53
0.42
0.32
0.24
0.21
0.22
0.23
0.18
0.05
-0.18
-0.44
-0.71
-0.94
-1.14
-1.33
-1.51
-1.63
-1.67
-1.59
-1.40
-1.18
-1.02
-0.95
-0.94
-0.89
-0.68
-0.29
0.24
0.80
1.29
1.63
1.79
1.77
1.58
1.26
0.89
0.58
0.41
0.39
0.45
0.47
0.38
0.17
-0.08
-0.24
-0.23
-0.04
0.26
0.58
0.81
0.90
0.80
0.51
0.10
-0.34
-0.70
-0.89
-0.89
-0.80
-0.73
-0.77
-0.94
-1.17
-1.35
-1.41
-1.33
-1.15
-0.95
-0.75
-0.56
-0.36
-0.13
0.16
0.52
0.94
1.36
1.72
1.91
1.85
1.52
0.99
0.43
0.03
-0.07
0.13
0.56
1.06
1.46
1.67
1.66
1.49
1.20
0.84
0.45
0.03
-0.40
-0.84
-1.22
-1.47
-1.53
-1.38
-1.12
-0.88
-0.82
-1.00
-1.37
-1.76
-2.01
-2.02
-1.82
-1.54
-1.32
-1.21
-1.17
-1.06
-0.75
-0.23
0.40
0.98
1.35
1.43
1.28
1.02
0.78
0.64
0.60
0.61
0.60
0.56
0.49
0.42
0.37
0.34
0.29
0.21
0.09
-0.04
-0.15
-0.20
-0.16
-0.07
-0.02
-0.09
-0.34
-0.74
-1.19
-1.57
-1.79
-1.81
-1.71
-1.57
-1.46
-1.40
-1.39
-1.37
-1.30
-1.15
-0.88
-0.47
0.04
0.61
1.15
1.59
1.90
2.09
2.21
2.31
2.39
2.42
2.36
2.20
1.96
1.69
1.42
1.15
0.87
0.58
0.29
0.07
-0.03
0.03
0.20
0.38
0.42
0.24
-0.14
-0.64
-1.10
-1.39
-1.45
-1.31
-1.08
-0.86
-0.74
-0.73
-0.81
-0.94
-1.09
-1.20
-1.29
-1.36
-1.40
-1.39
-1.30
-1.08
-0.70
-0.20
0.37
0.92
1.39
1.72
1.89
1.89
1.74
1.47
1.13
0.81
0.56
0.44
0.49
0.70
1.02
1.38
1.66
1.75
1.58
1.13
0.50
-0.17
-0.74
-1.10
-1.24
-1.18
-1.00
-0.73
-0.45
-0.20
-0.07
-0.14
-0.46
-0.98
-1.55
-1.98
-2.11
-1.91
-1.48
-1.04
-0.78
-0.77
-0.90
-1.00
-0.87
-0.49
0.06
0.59
1.00
1.24
1.39
1.53
1.67
1.74
1.62
1.27
0.79
0.33
0.07
0.06
0.27
0.55
0.79
0.93
1.00
1.06
1.15
1.24
1.34
1.40
1.41
1.38
1.29
1.10
0.77
0.34
-0.14
-0.52
-0.72
-0.72
-0.56
-0.36
-0.22
-0.22
-0.34
-0.57
-0.86
-1.16
-1.44
-1.66
-1.76
-1.70
-1.47
-1.08
-0.59
-0.07
0.41
0.80
1.06
1.20
1.22
1.14
0.98
0.78
0.58
0.41
0.33
0.36
0.50
0.68
0.83
0.89
0.82
0.66
0.46
0.30
0.22
0.23
0.28
0.29
0.19
-0.05
-0.36
-0.67
-0.90
-1.00
-1.05
-1.10
-1.24
-1.44
-1.64
-1.80
-1.86
-1.87
-1.86
-1.85
-1.82
-1.70
-1.41
-0.93
-0.30
0.39
1.01
1.42
1.54
1.38
1.05
0.70
0.47
0.42
0.51
0.65
0.76
0.82
0.86
0.96
1.11
1.28
1.37
1.29
1.01
0.60
0.19
-0.09
-0.19
-0.15
-0.07
-0.07
-0.18
-0.37
-0.52
-0.56
-0.45
-0.29
-0.21
-0.32
-0.67
-1.17
-1.70
-2.12
-2.37
-2.44
-2.36
-2.17
-1.92
-1.63
-1.28
-0.88
-0.42
0.05
0.47
0.80
0.97
0.99
0.91
0.82
0.80
0.88
1.02
1.15
1.19
1.09
0.88
0.59
0.28
-0.03
-0.29
-0.52
-0.70
-0.84
-0.96
-1.11
-1.33
-1.63
-1.97
-2.29
-2.52
-2.62
-2.60
-2.55
-2.56
-2.71
-3.02
-3.42
-3.82
-4.16
-4.42
-4.63
-4.83
-4.97
-4.96
-4.69
-4.13
-3.31
-2.34
-1.30
-0.28
0.72
1.69
2.60
3.37
3.94
4.33
4.60
4.87
5.19
5.56
5.89
6.08
6.06
5.83
5.45
5.00
4.54
4.11
3.71
3.35
3.04
2.80
2.65
2.55
2.45
2.26
1.93
1.46
0.91
0.36
-0.08
-0.38
-0.55
-0.68
-0.83
-1.07
-1.37
-1.65
-1.83
-1.83
-1.65
-1.34
-0.97
-0.57
-0.19
0.15
0.43
0.62
0.66
0.57
0.36
0.12
-0.08
-0.17
-0.11
0.07
0.33
0.60
0.81
0.90
0.85
0.74
0.63
0.64
0.81
1.12
1.48
1.77
1.86
1.72
1.36
0.85
0.29
-0.27
-0.80
-1.30
-1.72
-2.04
-2.20
-2.20
-2.06
-1.81
-1.52
-1.21
-0.91
-0.61
-0.33
-0.07
0.18
0.44
0.72
1.00
1.27
1.47
1.60
1.67
1.69
1.68
1.62
1.46
1.18
0.84
0.52
0.34
0.34
0.49
0.69
0.79
0.70
0.41
-0.04
-0.58
-1.12
-1.61
-2.02
-2.30
-2.42
-2.36
-2.14
-1.84
-1.56
-1.40
-1.39
-1.46
-1.49
-1.37
-1.06
-0.57
-0.00
0.52
0.92
1.17
1.25
1.20
1.02
0.72
0.33
-0.05
-0.31
-0.34
-0.10
0.35
0.87
1.29
1.47
1.37
1.07
0.70
0.39
0.23
0.24
0.35
0.48
0.54
0.49
0.33
0.12
-0.11
-0.31
-0.48
-0.67
-0.93
-1.29
-1.70
-2.04
-2.21
-2.16
-1.91
-1.57
-1.22
-0.92
-0.67
-0.42
-0.11
0.26
0.65
0.99
1.25
1.40
1.44
1.40
1.25
1.01
0.70
0.38
0.15
0.10
0.27
0.64
1.12
1.57
1.86
1.90
1.71
1.32
0.86
0.45
0.15
-0.00
-0.06
-0.07
-0.11
-0.18
-0.30
-0.44
-0.61
-0.79
-0.98
-1.16
-1.28
-1.32
-1.25
-1.10
-0.92
-0.76
-0.61
-0.44
-0.23
0.01
0.27
0.49
0.60
0.57
0.40
0.11
-0.26
-0.61
-0.88
-0.98
-0.86
-0.53
-0.06
0.43
0.84
1.12
1.32
1.50
1.70
1.89
1.97
1.83
1.43
0.87
0.29
-0.15
-0.40
-0.53
-0.64
-0.81
-1.04
-1.25
-1.35
-1.31
-1.19
-1.07
-1.07
-1.22
-1.49
-1.78
-1.97
-1.96
-1.70
-1.22
-0.62
-0.02
0.45
0.74
0.88
0.94
0.98
0.99
0.93
0.80
0.61
0.48
0.54
0.86
1.36
1.84
2.09
1.99
1.58
1.05
0.60
0.36
0.28
0.22
0.05
-0.30
-0.73
-1.07
-1.18
-1.08
-0.88
-0.79
-0.92
-1.27
-1.70
-2.05
-2.22
-2.23
-2.19
-2.18
-2.20
-2.15
-1.92
-1.45
-0.85
-0.28
0.08
0.19
0.13
0.04
0.06
0.21
0.43
0.62
0.71
0.70
0.68
0.72
0.88
1.14
1.41
1.58
1.54
1.25
0.74
0.15
-0.36
-0.64
-0.62
-0.36
-0.02
0.21
0.23
0.03
-0.27
-0.54
-0.70
-0.78
-0.88
-1.10
-1.43
-1.82
-2.13
-2.26
-2.20
-2.00
-1.72
-1.43
-1.13
-0.80
-0.44
-0.06
0.32
0.68
1.00
1.28
1.46
1.51
1.45
1.31
1.20
1.21
1.38
1.65
1.88
1.98
1.90
1.68
1.39
1.11
0.88
0.70
0.55
0.45
0.43
0.49
0.59
0.65
0.56
0.27
-0.19
-0.70
-1.13
-1.41
-1.55
-1.64
-1.78
-2.04
-2.41
-2.80
-3.10
-3.23
-3.18
-2.98
-2.68
-2.32
-1.91
-1.45
-0.94
-0.42
0.02
0.35
0.58
0.80
1.10
1.53
2.04
2.50
2.76
2.76
2.53
2.16
1.80
1.53
1.38
1.33
1.36
1.43
1.52
1.59
1.58
1.44
1.14
0.71
0.22
-0.22
-0.54
-0.69
-0.68
-0.59
-0.49
-0.48
-0.63
-0.93
-1.35
-1.79
-2.14
-2.35
-2.36
-2.19
-1.89
-1.52
-1.12
-0.75
-0.41
-0.14
0.07
0.23
0.36
0.48
0.61
0.74
0.85
0.90
0.87
0.76
0.58
0.36
0.19
0.14
0.25
0.53
0.90
1.22
1.34
1.14
0.64
-0.02
-0.66
-1.11
-1.28
-1.20
-0.94
-0.61
-0.31
-0.09
0.02
-0.01
-0.16
-0.40
-0.66
-0.86
-0.96
-0.93
-0.77
-0.55
-0.30
-0.07
0.09
0.22
0.33
0.43
0.53
0.57
0.54
0.40
0.18
-0.06
-0.22
-0.26
-0.16
0.02
0.22
0.36
0.42
0.42
0.39
0.35
0.28
0.17
-0.03
-0.29
-0.56
-0.72
-0.70
-0.48
-0.17
0.09
0.16
0.03
-0.21
-0.41
-0.48
-0.42
-0.37
-0.48
-0.83
-1.37
-1.90
-2.23
-2.19
-1.77
-1.07
-0.26
0.47
0.98
1.21
1.21
1.09
1.02
1.07
1.24
1.40
1.42
1.24
0.92
0.63
0.56
0.78
1.19
1.60
1.80
1.66
1.24
0.67
0.13
-0.22
-0.33
-0.21
0.06
0.36
0.57
0.63
0.53
0.28
-0.07
-0.46
-0.89
-1.33
-1.74
-2.07
-2.29
-2.36
-2.29
-2.08
-1.77
-1.35
-0.85
-0.33
0.14
0.52
0.77
0.91
0.99
1.08
1.21
1.39
1.59
1.77
1.85
1.80
1.60
1.31
1.02
0.85
0.88
1.12
1.48
1.80
1.95
1.85
1.52
1.06
0.58
0.18
-0.09
-0.24
-0.30
-0.29
-0.25
-0.18
-0.12
-0.11
-0.19
-0.39
-0.69
-1.05
-1.41
-1.68
-1.81
-1.78
-1.56
-1.19
-0.71
-0.19
0.30
0.73
1.04
1.24
1.29
1.18
0.94
0.64
0.37
0.26
0.33
0.54
0.75
0.87
0.83
0.69
0.52
0.43
0.45
0.57
0.71
0.80
0.78
0.63
0.35
-0.05
-0.51
-0.97
-1.34
-1.55
-1.55
-1.37
-1.09
-0.82
-0.68
-0.71
-0.88
-1.08
-1.20
-1.12
-0.87
-0.52
-0.17
0.06
0.11
0.03
-0.09
-0.13
0.00
0.31
0.70
1.01
1.09
0.88
0.43
-0.13
-0.65
-1.03
-1.27
-1.40
-1.52
-1.66
-1.85
-2.08
-2.32
-2.55
-2.75
-2.93
-3.09
-3.25
-3.44
-3.70
-4.07
-4.53
-4.99
-5.34
-5.45
-5.24
-4.74
-4.07
-3.34
-2.65
-2.00
-1.34
-0.60
0.17
0.91
1.52
1.98
2.38
2.83
3.37
3.99
4.55
4.91
5.03
4.93
4.73
4.54
4.42
4.33
4.20
3.95
3.52
2.91
2.18
1.43
0.76
0.29
0.08
0.13
0.42
0.83
1.25
1.55
1.60
1.39
0.94
0.35
-0.25
-0.74
-1.06
-1.22
-1.22
-1.09
-0.82
-0.41
0.11
0.64
1.06
1.27
1.23
1.01
0.76
0.59
0.57
0.64
0.72
0.73
0.64
0.52
0.46
0.54
0.75
1.05
1.32
1.49
1.51
1.40
1.19
0.93
0.61
0.23
-0.21
-0.71
-1.17
-1.49
-1.58
-1.43
-1.12
-0.83
-0.68
-0.75
-1.00
-1.31
-1.57
-1.73
-1.73
-1.58
-1.26
-0.77
-0.15
0.51
1.07
1.43
1.54
1.41
1.13
0.80
0.52
0.38
0.42
0.61
0.90
1.16
1.28
1.21
0.96
0.64
0.36
0.20
0.18
0.22
0.27
0.29
0.24
0.17
0.06
-0.08
-0.28
-0.53
-0.76
-0.91
-0.94
-0.87
-0.80
-0.86
-1.11
-1.51
-1.93
-2.16
-2.07
-1.62
-0.93
-0.17
0.47
0.84
0.93
0.80
0.56
0.32
0.12
-0.00
-0.05
-0.02
0.14
0.46
0.91
1.41
1.76
1.78
1.39
0.64
-0.27
-1.05
-1.47
-1.45
-1.08
-0.58
-0.19
-0.04
-0.15
-0.44
-0.77
-1.06
-1.27
-1.42
-1.51
-1.53
-1.48
-1.37
-1.27
-1.23
-1.26
-1.32
-1.33
-1.21
-0.96
-0.63
-0.31
-0.05
0.14
0.29
0.44
0.58
0.70
0.73
0.65
0.47
0.27
0.14
0.16
0.38
0.75
1.20
1.62
1.91
2.02
1.98
1.81
1.55
1.22
0.82
0.38
-0.10
-0.58
-1.03
-1.43
-1.74
-1.93
-1.98
-1.92
-1.79
-1.68
-1.65
-1.72
-1.80
-1.84
-1.74
-1.50
-1.14
-0.72
-0.26
0.25
0.82
1.41
1.91
2.19
2.13
1.75
1.19
0.66
0.37
0.39
0.67
1.08
1.46
1.72
1.83
1.84
1.76
1.62
1.42
1.22
1.03
0.89
0.77
0.64
0.44
0.16
-0.18
-0.53
-0.86
-1.13
-1.32
-1.39
-1.36
-1.28
-1.21
-1.25
-1.43
-1.71
-1.95
-2.03
-1.89
-1.55
-1.10
-0.62
-0.16
0.29
0.75
1.20
1.61
1.88
1.99
1.92
1.77
1.60
1.51
1.49
1.49
1.42
1.25
1.02
0.82
0.76
0.85
1.02
1.13
1.07
0.80
0.37
-0.08
-0.41
-0.54
-0.48
-0.32
-0.18
-0.16
-0.29
-0.51
-0.75
-0.92
-1.01
-1.07
-1.15
-1.29
-1.45
-1.53
-1.42
-1.08
-0.57
-0.03
0.43
0.73
0.91
1.06
1.22
1.39
1.51
1.53
1.45
1.32
1.21
1.17
1.18
1.20
1.19
1.12
1.02
0.90
0.76
0.58
0.35
0.10
-0.10
-0.20
-0.17
-0.08
-0.04
-0.15
-0.46
-0.91
-1.39
-1.73
-1.84
-1.69
-1.37
-1.04
-0.88
-0.98
-1.30
-1.67
-1.90
-1.87
-1.55
-1.04
-0.49
-0.02
0.35
0.60
0.76
0.80
0.67
0.33
-0.13
-0.58
-0.80
-0.67
-0.20
0.45
1.07
1.51
1.70
1.67
1.49
1.23
0.93
0.62
0.35
0.19
0.16
0.22
0.29
0.25
0.08
-0.17
-0.40
-0.52
-0.52
-0.49
-0.53
-0.69
-0.94
-1.19
-1.34
-1.39
-1.36
-1.28
-1.19
-1.07
-0.91
-0.68
-0.38
-0.04
0.34
0.73
1.14
1.49
1.74
1.78
1.58
1.14
0.55
-0.04
-0.47
-0.59
-0.36
0.16
0.80
1.38
1.76
1.86
1.74
1.48
1.19
0.90
0.60
0.28
-0.08
-0.43
-0.72
-0.90
-0.93
-0.88
-0.79
-0.77
-0.89
-1.17
-1.55
-1.91
-2.07
-1.95
-1.54
-1.00
-0.53
-0.25
-0.21
-0.26
-0.23
0.00
0.45
1.00
1.47
1.76
1.84
1.73
1.52
1.26
1.00
0.81
0.72
0.75
0.89
1.07
1.23
1.28
1.21
1.00
0.67
0.30
