1527037752.00
64.000000
-0.00
-0.00
-0.00
-0.00
-0.00
-0.00
-0.00
-0.00
-0.00
-0.00
0.00
0.01
0.01
-0.00
-0.03
-0.05
-0.05
0.00
0.13
0.36
0.66
1.01
1.37
1.72
2.06
2.40
2.79
3.24
3.80
4.42
5.06
5.67
6.20
6.68
7.14
7.67
8.32
9.18
10.15
11.10
11.89
12.44
12.82
13.22
13.88
14.99
16.82
19.14
21.67
24.07
26.13
27.94
29.83
32.28
35.65
40.34
45.97
51.93
57.56
62.43
66.61
70.66
75.38
81.44
89.39
98.64
108.22
117.00
124.25
130.01
135.10
141.15
147.18
155.54
166.70
180.34
194.80
206.81
212.05
206.23
186.61
152.87
107.65
54.56
-2.72
-61.77
-121.59
-181.96
-242.42
-301.85
-358.55
-410.64
-457.35
-498.58
-534.55
-565.23
-590.00
-607.58
-615.99
-612.67
-594.48
-558.75
-504.05
-431.43
-344.86
-250.69
-156.12
-67.29
11.89
80.04
137.25
184.09
220.85
247.62
264.80
273.63
276.13
274.58
270.79
265.57
258.82
249.89
238.30
224.21
208.50
192.44
177.26
163.61
151.42
140.14
129.03
117.63
105.94
94.38
83.53
73.89
65.62
58.51
52.16
46.11
40.09
34.08
28.24
22.83
18.04
14.03
10.73
8.01
5.75
3.85
2.23
0.82
-0.50
-1.84
-3.32
-4.99
-6.82
-8.66
-10.35
-11.77
-12.87
-13.66
-14.21
-14.55
-14.70
-14.60
-14.23
-13.62
-12.83
-11.99
-11.16
-10.33
-9.46
-8.53
-7.60
-6.76
-6.17
-5.84
-5.69
-5.53
-5.17
-4.57
-3.82
-3.10
-2.58
-2.30
-2.27
-2.47
-2.97
-3.82
-4.99
-6.22
-7.11
-7.26
-6.50
-5.01
-3.25
-1.68
-0.64
-0.12
0.10
0.29
0.61
1.05
1.54
1.99
2.44
2.94
3.52
4.06
4.46
4.61
4.42
3.90
3.19
2.47
1.84
1.39
1.08
0.89
0.73
0.58
0.41
0.25
0.15
0.18
0.35
0.62
0.92
1.16
1.28
1.24
1.03
0.67
0.20
-0.36
-0.93
-1.48
-2.02
-2.53
-3.03
-3.48
-3.82
-4.00
-3.97
-3.73
-3.34
-2.85
-2.32
-1.76
-1.17
-0.54
0.11
0.78
1.44
2.10
2.68
3.10
3.27
3.17
2.82
2.40
1.96
1.57
1.23
0.89
0.52
0.13
-0.25
-0.58
-0.85
-1.09
-1.33
-1.59
-1.83
-2.03
-2.17
-2.25
-2.29
-2.32
-2.36
-2.39
-2.39
-2.35
-2.26
-2.17
-2.14
-2.27
-2.55
-2.94
-3.26
-3.33
-3.07
-2.48
-1.73
-1.04
-0.59
-0.45
-0.56
-0.79
-1.01
-1.22
-1.47
-1.89
-2.59
-3.60
-4.82
-6.04
-7.01
-7.53
-7.51
-7.01
-6.21
-5.32
-4.56
-3.99
-3.61
-3.35
-3.21
-3.26
-3.66
-4.51
-5.85
-7.52
-9.34
-11.03
-12.29
-12.97
-12.97
-12.27
-10.88
-8.82
-6.19
-3.21
-0.14
2.73
5.21
7.22
8.79
9.99
10.87
11.44
11.69
11.66
11.43
11.13
10.86
10.71
10.68
10.76
10.86
10.91
10.84
10.59
10.13
9.46
8.64
7.75
6.87
6.09
5.45
4.98
4.68
4.50
4.36
4.18
3.85
3.33
2.64
1.86
1.12
0.50
0.03
-0.40
-0.92
-1.62
-2.52
-3.56
-4.62
-5.58
-6.36
-6.91
-7.17
-7.11
-6.65
-5.78
-4.54
-3.06
-1.52
-0.11
1.04
1.89
2.45
2.80
2.99
3.08
3.09
3.06
3.03
3.05
3.15
3.30
3.44
3.48
3.39
3.20
3.00
2.88
2.89
2.98
3.06
3.01
2.78
2.39
1.91
1.37
0.81
0.22
-0.41
-1.05
-1.66
-2.22
-2.72
-3.19
-3.63
-4.06
-4.45
-4.77
-5.07
-5.42
-5.91
-6.58
-7.44
-8.41
-9.39
-10.28
-10.93
-11.22
-11.02
-10.26
-8.95
-7.21
-5.26
-3.37
-1.72
-0.40
0.65
1.54
2.36
3.10
3.69
4.04
4.13
4.09
4.05
4.13
4.34
4.61
4.85
5.02
5.17
5.39
5.74
6.22
6.74
7.23
7.65
7.96
8.21
8.36
8.40
8.29
7.98
7.47
6.79
6.01
5.20
4.39
3.60
2.84
2.13
1.50
1.01
0.65
0.38
0.06
-0.47
-1.30
-2.41
-3.66
-4.88
-5.90
-6.69
-7.30
-7.80
-8.25
-8.61
-8.76
-8.55
-7.89
-6.75
-5.22
-3.46
-1.65
0.07
1.57
2.80
3.74
4.37
4.73
4.86
4.83
4.77
4.78
4.92
5.18
5.51
5.81
6.07
6.29
6.49
6.67
6.76
6.68
6.37
5.84
5.18
4.48
3.81
3.17
2.53
1.85
1.17
0.54
-0.01
-0.45
-0.80
-1.10
-1.37
-1.62
-1.83
-2.04
-2.29
-2.63
-3.13
-3.79
-4.61
-5.54
-6.52
-7.45
-8.22
-8.72
-8.85
-8.59
-7.96
-7.04
-5.94
-4.73
-3.47
-2.18
-0.90
0.29
1.32
2.09
2.57
2.78
2.84
2.89
3.05
3.39
3.87
4.41
4.89
5.25
5.43
5.43
5.30
5.11
4.90
4.69
4.39
3.93
3.24
2.38
1.49
0.77
0.37
0.31
0.48
0.76
1.01
1.19
1.33
1.41
1.37
1.15
0.67
-0.01
-0.78
-1.48
-2.02
-2.43
-2.84
-3.35
-4.07
-4.99
-6.03
-7.09
-8.12
-9.07
-9.91
-10.58
-10.95
-10.88
-10.23
-9.01
-7.36
-5.52
-3.76
-2.27
-1.10
-0.16
0.65
1.41
2.15
2.82
3.39
3.88
4.33
4.79
5.22
5.56
5.71
5.64
5.41
5.13
4.93
4.90
5.05
5.31
5.60
5.82
5.90
5.85
5.66
5.37
5.02
4.60
4.11
3.52
2.80
1.99
1.13
0.30
-0.47
-1.20
-1.89
-2.57
-3.21
-3.77
-4.25
-4.69
-5.16
-5.73
-6.39
-7.05
-7.59
-7.91
-8.04
-8.15
-8.41
-8.98
-9.85
-10.86
-11.74
-12.24
-12.18
-11.50
-10.25
-8.54
-6.52
-4.32
-2.14
-0.16
1.44
2.56
3.22
3.57
3.80
4.06
4.41
4.78
5.03
5.05
4.81
4.40
3.95
3.57
3.32
3.16
3.05
2.94
2.82
2.72
2.63
2.51
2.31
1.97
1.51
0.98
0.47
0.05
-0.26
-0.49
-0.72
-1.03
-1.50
-2.11
-2.81
-3.50
-4.09
-4.53
-4.84
-5.10
-5.41
-5.83
-6.43
-7.21
-8.19
-9.36
-10.66
-11.97
-13.08
-13.73
-13.72
-12.92
-11.36
-9.25
-6.85
-4.47
-2.33
-0.52
0.99
2.35
3.66
4.95
6.14
7.09
7.66
7.85
7.78
7.63
7.57
7.64
7.77
7.84
7.77
7.60
7.45
7.47
7.71
8.08
8.39
8.44
8.15
7.58
6.87
6.17
5.54
4.94
4.30
3.56
2.77
2.02
1.39
0.91
0.52
0.09
-0.48
-1.24
-2.16
-3.17
-4.18
-5.12
-5.97
-6.76
-7.54
-8.40
-9.39
-10.47
-11.56
-12.50
-13.16
-13.43
-13.23
-12.54
-11.34
-9.61
-7.44
-5.00
-2.57
-0.45
1.16
2.23
2.91
3.40
3.87
4.35
4.79
5.12
5.35
5.53
5.77
6.09
6.45
6.73
6.86
6.84
6.76
6.72
6.73
6.74
6.64
6.33
5.79
5.13
4.49
4.01
3.75
3.68
3.69
3.68
3.56
3.28
2.85
2.29
1.68
1.09
0.59
0.22
-0.04
-0.28
-0.58
-1.02
-1.62
-2.35
-3.13
-3.86
-4.47
-4.96
-5.32
-5.62
-5.97
-6.46
-7.15
-8.00
-8.88
-9.56
-9.76
-9.27
-8.00
-6.05
-3.68
-1.23
1.00
2.79
4.08
4.95
5.54
6.00
6.44
6.89
7.36
7.77
8.07
8.21
8.18
8.01
7.75
7.48
7.24
7.06
6.93
6.84
6.75
6.65
6.51
6.26
5.88
5.35
4.75
4.19
3.83
3.76
3.93
4.18
4.33
4.19
3.68
2.90
2.03
1.28
0.78
0.56
0.49
0.40
0.20
-0.17
-0.62
-1.09
-1.56
-2.05
-2.62
-3.28
-3.99
-4.70
-5.43
-6.25
-7.26
-8.46
-9.63
-10.47
-10.62
-9.91
-8.42
-6.47
-4.44
-2.62
-1.17
-0.08
0.73
1.34
1.82
2.23
2.63
3.05
3.49
3.94
4.38
4.82
5.30
5.88
6.55
7.22
7.78
8.09
8.13
8.00
7.83
7.75
7.78
7.85
7.86
7.74
7.49
7.17
6.84
6.52
6.14
5.64
4.94
4.07
3.06
2.00
0.96
-0.03
-0.93
-1.75
-2.55
-3.41
-4.41
-5.61
-7.03
-8.63
-10.30
-11.90
-13.27
-14.22
-14.54
-14.11
-12.91
-11.08
-8.93
-6.81
-5.01
-3.66
-2.71
-1.99
-1.32
-0.60
0.15
0.87
1.49
2.01
2.43
2.78
3.06
3.22
3.22
3.07
2.87
2.72
2.73
2.94
3.28
3.64
3.88
3.91
3.73
3.39
3.01
2.68
2.46
2.36
2.32
2.24
2.06
1.77
1.41
1.04
0.69
0.37
0.06
-0.29
-0.71
-1.20
-1.79
-2.46
-3.18
-3.93
-4.67
-5.44
-6.29
-7.31
-8.50
-9.79
-10.98
-11.81
-12.11
-11.80
-10.94
-9.68
-8.19
-6.60
-5.02
-3.53
-2.21
-1.08
-0.12
0.71
1.47
2.17
2.79
3.26
3.53
3.61
3.60
3.62
3.78
4.11
4.55
4.97
5.22
5.24
5.04
4.73
4.43
4.24
4.13
4.01
3.78
3.36
2.80
2.17
1.58
1.08
0.63
0.19
-0.28
-0.73
-1.04
-1.04
-0.68
-0.03
0.70
1.27
1.53
1.47
1.23
0.95
0.72
0.51
0.23
-0.25
-0.93
-1.76
-2.62
-3.43
-4.18
-4.94
-5.80
-6.81
-7.91
-8.94
-9.66
-9.84
-9.35
-8.19
-6.51
-4.56
-2.59
-0.80
0.69
1.82
2.63
3.20
3.63
4.06
4.58
5.20
5.90
6.57
7.12
7.43
7.48
7.29
6.95
6.61
6.39
6.37
6.51
6.70
6.81
6.74
6.50
6.16
5.80
5.42
4.99
4.43
3.74
3.00
2.31
1.79
1.42
1.11
0.73
0.20
-0.45
-1.12
-1.67
-2.03
-2.25
-2.47
-2.84
-3.45
-4.26
-5.09
-5.77
-6.17
-6.29
-6.28
-6.36
-6.73
-7.47
-8.51
-9.66
-10.65
-11.21
-11.13
-10.34
-8.88
-6.94
-4.79
-2.70
-0.84
0.68
1.88
2.81
3.55
4.16
4.67
5.13
5.58
6.03
6.47
6.84
7.09
7.19
7.14
6.98
6.77
6.56
6.39
6.28
6.17
5.99
5.63
5.01
4.14
3.14
2.19
1.46
0.98
0.66
0.35
-0.10
-0.75
-1.49
-2.20
-2.74
-3.09
-3.30
-3.47
-3.70
-4.04
-4.50
-5.07
-5.72
-6.44
-7.18
-7.89
-8.55
-9.11
-9.57
-9.98
-10.41
-10.92
-11.46
-11.91
-12.06
-11.72
-10.77
-9.23
-7.26
-5.09
-2.97
-1.07
0.52
1.77
2.72
3.41
3.93
4.37
4.84
5.37
5.97
6.57
7.08
7.42
7.57
7.58
7.53
7.51
7.55
7.68
7.83
7.93
7.92
7.72
7.30
6.66
5.87
5.04
4.27
3.65
3.22
2.95
2.80
2.67
2.52
2.30
1.98
1.57
1.09
0.54
-0.05
-0.68
-1.30
-1.90
-2.44
-2.92
-3.35
-3.75
-4.14
-4.55
-4.99
-5.49
-6.08
-6.80
-7.67
-8.71
-9.84
-10.93
-11.79
-12.23
-12.10
-11.37
-10.11
-8.52
-6.82
-5.19
-3.71
-2.38
-1.14
0.05
1.17
2.19
3.10
3.91
4.65
5.34
5.94
6.41
6.69
6.79
6.79
6.80
6.90
7.08
7.29
7.44
7.49
7.44
7.34
7.19
6.97
6.60
6.03
5.27
4.41
3.58
2.95
2.59
2.49
2.53
2.57
2.47
2.20
1.79
1.34
0.90
0.52
0.20
-0.11
-0.45
-0.84
-1.30
-1.88
-2.60
-3.46
-4.40
-5.29
-6.02
-6.55
-6.95
-7.36
-7.92
-8.62
-9.32
-9.76
-9.69
-9.00
-7.76
-6.20
-4.57
-3.09
-1.84
-0.78
0.20
1.17
2.14
3.04
3.77
4.23
4.41
4.36
4.19
4.05
4.05
4.23
4.58
5.05
5.53
5.96
6.25
6.37
6.27
5.94
5.41
4.75
4.04
3.38
2.84
2.43
2.15
1.92
1.73
1.53
1.31
1.07
0.79
0.46
0.03
-0.52
-1.22
-2.05
-2.96
-3.86
-4.71
-5.46
-6.16
-6.86
-7.58
-8.31
-8.97
-9.46
-9.66
-9.50
-8.98
-8.10
-6.90
-5.46
-3.83
-2.12
-0.45
1.06
2.32
3.27
3.94
4.43
4.82
5.19
5.58
5.95
6.22
6.33
6.26
6.07
5.88
5.78
5.80
5.90
5.95
5.85
5.55
5.10
4.62
4.20
3.89
3.65
3.37
2.99
2.48
1.90
1.33
0.82
0.39
-0.00
-0.38
-0.77
-1.16
-1.55
-1.96
-2.43
-2.98
-3.58
-4.20
-4.75
-5.22
-5.62
-6.03
-6.54
-7.19
-7.99
-8.88
-9.80
-10.67
-11.39
-11.83
-11.84
-11.26
-10.04
-8.25
-6.10
-3.86
-1.83
-0.16
1.10
2.04
2.77
3.40
3.95
4.41
4.79
5.12
5.47
5.91
6.43
6.93
7.28
7.34
7.11
6.70
6.30
6.07
6.08
6.27
6.44
6.44
6.15
5.61
4.96
4.39
4.01
3.83
3.75
3.62
3.34
2.90
2.34
1.75
1.19
0.69
0.21
-0.27
-0.78
-1.29
-1.79
-2.27
-2.73
-3.20
-3.70
-4.25
-4.85
-5.48
-6.07
-6.59
-7.01
-7.39
-7.81
-8.38
-9.16
-10.06
-10.88
-11.31
-11.06
-10.03
-8.30
-6.15
-3.97
-2.07
-0.58
0.49
1.29
1.96
2.62
3.31
4.02
4.74
5.42
6.02
6.50
6.81
6.96
6.97
6.88
6.75
6.59
6.42
6.22
5.99
5.73
5.46
5.22
5.00
4.84
4.70
4.55
4.31
3.94
3.39
2.70
1.96
1.25
0.68
0.28
0.04
-0.09
-0.19
-0.33
-0.55
-0.88
-1.32
-1.82
-2.32
-2.75
-3.08
-3.37
-3.78
-4.45
-5.48
-6.80
-8.17
-9.25
-9.65
-9.14
-7.71
-5.59
-3.18
-0.89
0.95
2.21
2.96
3.40
3.72
4.09
4.53
4.98
5.37
5.58
5.57
5.32
4.88
4.32
3.72
3.18
2.76
2.51
2.41
2.45
2.56
2.65
2.65
2.49
2.14
1.60
0.94
0.23
-0.44
-0.99
-1.36
-1.56
-1.66
-1.75
-1.95
-2.31
-2.82
-3.42
-4.03
-4.59
-5.13
-5.70
-6.35
-7.13
-7.99
-8.83
-9.52
-9.92
-9.90
-9.37
-8.32
-6.84
-5.10
-3.31
-1.62
-0.12
1.17
2.24
3.09
3.70
4.08
4.34
4.59
4.95
5.45
6.00
6.48
6.79
6.90
6.87
6.80
6.72
6.59
6.38
6.11
5.84
5.63
5.49
5.33
5.04
4.54
3.87
3.13
2.49
2.01
1.66
1.36
0.99
0.53
0.03
-0.41
-0.73
-0.93
-1.07
-1.22
-1.46
-1.82
-2.31
-2.94
-3.68
-4.50
-5.36
-6.21
-7.00
-7.74
-8.48
-9.25
-10.10
-10.94
-11.63
-11.99
-11.84
-11.11
-9.82
-8.13
-6.24
-4.37
-2.67
-1.22
-0.03
0.97
1.87
2.73
3.58
4.38
5.09
5.65
6.05
6.29
6.41
6.43
6.40
6.35
6.34
6.40
6.52
6.65
6.72
6.68
6.51
6.24
5.94
5.59
5.17
4.64
4.00
3.34
2.80
2.46
2.34
2.34
2.33
2.18
1.86
1.43
0.96
0.53
0.13
-0.29
-0.78
-1.37
-2.06
-2.80
-3.57
-4.31
-5.01
-5.63
-6.16
-6.56
-6.86
-7.10
-7.40
-7.84
-8.44
-9.09
-9.62
-9.79
-9.43
-8.51
-7.13
-5.49
-3.81
-2.24
-0.82
0.45
1.61
2.71
3.68
4.47
4.98
5.19
5.16
5.02
4.95
5.07
5.41
5.83
6.18
6.33
6.26
6.07
5.94
5.95
6.09
6.25
6.28
6.11
5.75
5.27
4.74
4.17
3.53
2.81
2.03
1.28
0.66
0.26
0.05
-0.05
-0.15
-0.35
-0.69
-1.14
-1.67
-2.22
-2.78
-3.33
-3.84
-4.31
-4.72
-5.09
-5.50
-6.09
-6.92
-7.97
-9.05
-9.83
-10.02
-9.43
-8.15
-6.44
-4.69
-3.14
-1.88
-0.81
0.22
1.31
2.43
3.46
4.27
4.78
4.99
4.96
4.79
4.56
4.34
4.20
4.18
4.29
4.51
4.76
5.03
5.28
5.49
5.61
5.57
5.31
4.79
4.13
3.46
2.93
2.61
2.41
2.18
1.79
1.20
0.52
-0.10
-0.53
-0.76
-0.88
-1.03
-1.29
-1.68
-2.13
-2.59
-3.05
-3.53
-4.05
-4.64
-5.23
-5.76
-6.19
-6.53
-6.89
-7.39
-8.12
-9.05
-10.03
-10.82
-11.15
-10.84
-9.84
-8.26
-6.34
-4.35
-2.55
-1.07
0.03
0.85
1.51
2.13
2.77
3.44
4.13
4.81
5.45
6.02
6.44
6.63
6.52
6.15
5.64
5.20
4.99
5.05
5.28
5.47
5.42
5.01
4.30
3.46
2.71
2.20
1.94
1.88
1.90
1.92
1.88
1.73
1.46
1.05
0.51
-0.11
-0.72
-1.19
-1.46
-1.55
-1.56
-1.61
-1.84
-2.29
-2.93
-3.67
-4.42
-5.14
-5.82
-6.54
-7.36
-8.31
-9.32
-10.21
-10.74
-10.74
-10.11
-8.91
-7.32
-5.54
-3.79
-2.21
-0.89
0.16
0.94
1.51
1.95
2.32
2.69
3.09
3.54
4.01
4.49
4.94
5.34
5.65
5.85
5.92
5.88
5.78
5.65
5.51
5.35
5.16
4.89
4.53
4.09
3.58
3.05
2.53
2.02
1.51
0.97
0.40
-0.19
-0.74
-1.20
-1.53
-1.80
-2.10
-2.52
-3.07
-3.70
-4.29
-4.77
-5.13
-5.49
-5.95
-6.59
-7.36
-8.08
-8.55
-8.62
-8.28
-7.61
-6.72
-5.73
-4.68
-3.54
-2.33
-1.09
0.10
1.18
2.08
2.82
3.44
3.99
4.49
4.90
5.18
5.31
5.32
5.28
5.30
5.41
5.59
5.78
5.90
5.89
5.74
5.49
5.20
4.89
4.56
4.16
3.69
3.20
2.77
2.46
2.22
2.00
1.71
1.33
0.90
0.54
0.30
0.12
-0.14
-0.61
-1.37
-2.32
-3.28
-4.09
-4.66
-5.03
-5.35
-5.79
-6.49
-7.45
-8.61
-9.77
-10.71
-11.20
-11.09
-10.34
-9.04
-7.40
-5.67
-4.07
-2.69
-1.53
-0.50
0.50
1.53
2.61
3.69
4.70
5.57
6.25
6.71
6.98
7.09
7.10
7.06
6.98
6.86
6.69
6.45
6.22
6.05
6.02
6.08
6.13
6.04
5.69
5.09
4.36
3.64
3.04
2.60
2.28
2.01
1.80
1.67
1.64
1.70
1.75
1.66
1.33
0.72
-0.12
-1.04
-1.91
-2.64
-3.20
-3.64
-4.04
-4.46
-4.92
-5.42
-5.92
-6.42
-6.93
-7.54
-8.30
-9.24
-10.28
-11.20
-11.73
-11.62
-10.75
-9.22
-7.32
-5.35
-3.59
-2.12
-0.89
0.24
1.35
2.45
3.44
4.25
4.86
5.34
5.78
6.22
6.68
7.05
7.26
7.26
7.07
6.78
6.50
6.33
6.28
6.33
6.37
6.29
6.04
5.62
5.10
4.57
4.10
3.71
3.33
2.91
2.38
1.77
1.15
0.59
0.11
-0.32
-0.78
-1.29
-1.83
-2.30
-2.61
-2.73
-2.76
-2.85
-3.15
-3.77
-4.71
-5.85
-7.01
-7.98
-8.58
-8.70
-8.28
-7.39
-6.10
-4.56
-2.89
-1.21
0.35
1.72
2.83
3.70
4.36
4.85
5.17
5.30
5.23
5.00
4.74
4.57
4.59
4.78
4.99
5.09
4.97
4.67
4.32
4.01
3.79
3.62
3.37
2.97
2.42
1.79
1.18
0.70
0.37
0.15
-0.06
-0.33
-0.70
-1.16
-1.65
-2.14
-2.60
-3.01
-3.38
-3.74
-4.13
-4.62
-5.30
-6.22
-7.34
-8.55
-9.61
-10.28
-10.36
-9.76
-8.53
-6.82
-4.86
-2.88
-1.08
0.38
1.45
2.17
2.68
3.11
3.56
4.07
4.59
5.06
5.43
5.69
5.87
6.02
6.13
6.17
6.10
5.89
5.56
5.15
4.72
4.32
3.98
3.71
3.51
3.37
3.25
3.11
2.86
2.47
1.95
1.36
0.81
0.34
-0.02
-0.32
-0.62
-0.94
-1.28
-1.62
-1.96
-2.30
-2.67
-3.08
-3.51
-3.93
-4.31
-4.69
-5.12
-5.65
-6.29
-7.02
-7.81
-8.62
-9.45
-10.20
-10.72
-10.83
-10.34
-9.20
-7.55
-5.64
-3.76
-2.12
-0.78
0.32
1.28
2.18
3.07
3.91
4.66
5.28
5.74
6.01
6.07
5.95
5.74
5.55
5.49
5.58
5.78
5.99
6.12
6.13
6.03
5.84
5.56
5.20
4.79
4.38
4.00
3.67
3.35
2.98
2.54
2.05
1.61
1.27
1.06
0.89
0.63
0.21
-0.36
-0.99
-1.56
-2.02
-2.43
-2.89
-3.49
-4.22
-5.02
-5.78
-6.42
-6.93
-7.35
-7.72
-8.04
-8.26
-8.30
-8.11
-7.65
-6.92
-5.98
-4.89
-3.72
-2.55
-1.38
-0.22
0.95
2.10
3.15
3.95
4.43
4.58
4.52
4.45
4.52
4.76
5.09
5.35
5.45
5.40
5.30
5.26
5.32
5.45
5.51
5.40
5.10
4.66
4.17
3.68
3.22
2.76
2.24
1.67
1.05
0.43
-0.14
-0.62
-1.01
-1.32
-1.65
-2.08
-2.68
-3.45
-4.30
-5.11
-5.76
-6.22
-6.55
-6.88
-7.31
-7.93
-8.69
-9.51
-10.25
-10.72
-10.78
-10.31
-9.28
-7.78
-6.01
-4.22
-2.61
-1.25
-0.08
1.04
2.21
3.43
4.62
5.62
6.34
6.75
6.93
6.98
6.98
6.96
6.91
6.84
6.77
6.73
6.74
6.82
6.92
6.98
6.93
6.72
6.32
5.75
5.08
4.39
3.75
3.14
2.53
1.86
1.13
0.37
-0.32
-0.86
-1.26
-1.55
-1.83
-2.16
-2.54
-2.96
-3.38
-3.83
-4.36
-5.01
-5.77
-6.57
-7.28
-7.84
-8.23
-8.57
-8.99
-9.60
-10.45
-11.44
-12.42
-13.15
-13.43
-13.10
-12.09
-10.46
-8.36
-6.02
-3.70
-1.64
0.03
1.27
2.15
2.79
3.30
3.76
4.19
4.59
4.97
5.34
5.71
6.09
6.43
6.67
6.79
6.78
6.71
6.65
6.69
6.80
6.92
6.96
6.83
6.50
6.00
5.37
4.70
4.04
3.42
2.87
2.38
1.97
1.60
1.24
0.82
0.34
-0.16
-0.60
-0.85
-0.89
-0.76
-0.62
-0.66
-0.96
-1.52
-2.22
-2.96
-3.66
-4.32
-4.99
-5.68
-6.38
-7.03
-7.56
-7.89
-7.94
-7.65
-7.00
-6.04
-4.86
-3.62
-2.42
-1.29
-0.19
0.93
2.09
3.21
4.15
4.80
5.13
5.21
5.19
5.18
5.22
5.28
5.32
5.30
5.24
5.18
5.16
5.17
5.20
5.20
5.14
5.00
4.76
4.41
3.95
3.40
2.81
2.28
1.87
1.63
1.50
1.37
1.13
0.70
0.11
-0.56
-1.18
-1.67
-2.06
-2.44
-2.92
-3.57
-4.35
-5.17
-5.92
-6.56
-7.10
-7.52
-7.76
-7.67
-7.13
-6.07
-4.63
-3.05
-1.59
-0.40
0.51
1.26
1.96
2.67
3.32
3.82
4.15
4.33
4.49
4.71
5.05
5.44
5.80
6.03
6.06
5.92
5.72
5.54
5.46
5.44
5.39
5.17
4.74
4.13
3.51
3.02
2.74
2.56
2.30
1.81
1.08
0.26
-0.45
-0.89
-1.09
-1.22
-1.47
-1.99
-2.76
-3.64
-4.43
-5.04
-5.47
-5.83
-6.23
-6.77
-7.48
-8.29
-9.12
-9.85
-10.35
-10.51
-10.25
-9.54
-8.40
-6.90
-5.15
-3.28
-1.48
0.08
1.29
2.13
2.70
3.17
3.69
4.33
5.02
5.62
5.97
6.03
5.87
5.63
5.44
5.36
5.37
5.40
5.43
5.45
5.50
5.56
5.57
5.43
5.06
4.42
3.59
2.69
1.87
1.19
0.67
0.29
-0.00
-0.19
-0.28
-0.31
-0.35
-0.52
-0.90
-1.52
-2.31
-3.16
-3.96
-4.66
-5.25
-5.74
-6.15
-6.50
-6.83
-7.18
-7.63
-8.18
-8.76
-9.20
-9.30
-8.94
-8.07
-6.76
-5.19
-3.51
-1.90
-0.48
0.68
1.55
2.20
2.75
3.29
3.90
4.51
4.99
5.28
5.34
5.27
5.23
5.32
5.54
5.81
5.99
6.01
5.85
5.56
5.22
4.85
4.47
4.05
3.58
3.05
2.49
1.93
1.44
1.11
0.96
0.95
0.98
0.87
0.50
-0.21
-1.15
-2.18
-3.09
-3.73
-4.08
-4.24
-4.37
-4.63
-5.12
-5.85
-6.77
-7.70
-8.44
-8.78
-8.53
-7.64
-6.22
-4.49
-2.76
-1.28
-0.19
0.56
1.09
1.59
2.15
2.75
3.32
3.73
3.94
3.99
4.01
4.11
4.38
4.76
5.15
5.38
5.37
5.11
4.69
4.24
3.84
3.49
3.12
2.63
1.98
1.20
0.43
-0.23
-0.67
-0.93
-1.13
-1.41
-1.87
-2.49
-3.13
-3.61
-3.87
-3.95
-4.04
-4.35
-5.01
-6.01
-7.17
-8.26
-9.08
-9.47
-9.37
-8.78
-7.73
-6.30
-4.62
-2.84
-1.10
0.49
1.84
2.91
3.72
4.25
4.55
4.65
4.61
4.50
4.40
4.35
4.39
4.54
4.77
5.08
5.40
5.69
5.89
5.98
5.92
5.71
5.36
4.85
4.21
3.49
2.78
2.18
1.78
1.61
1.60
1.63
1.53
1.19
0.63
-0.08
-0.81
-1.47
-2.06
-2.62
-3.17
-3.72
-4.21
-4.57
-4.80
-4.98
-5.26
-5.81
-6.71
-7.86
-9.08
-10.06
-10.54
-10.34
-9.45
-7.99
-6.21
-4.36
-2.68
-1.26
-0.13
0.80
1.64
2.49
3.37
4.26
5.09
5.79
6.29
6.56
6.61
6.49
6.28
6.06
5.91
5.86
5.88
5.95
6.01
6.07
6.12
6.12
6.02
5.71
5.14
4.30
3.30
2.30
1.47
0.90
0.58
0.46
0.41
0.33
0.14
-0.18
-0.63
-1.13
-1.66
-2.18
-2.72
-3.30
-3.94
-4.59
-5.23
-5.84
-6.41
-6.99
-7.62
-8.26
-8.81
-9.09
-8.89
-8.10
-6.74
-4.97
-3.04
-1.21
0.30
1.45
2.27
2.91
3.48
4.02
4.49
4.82
4.94
4.90
4.79
4.73
4.79
4.96
5.18
5.39
5.53
5.61
5.64
5.61
5.50
5.26
4.87
4.34
3.74
3.16
2.67
2.33
2.11
1.94
1.71
1.32
0.72
-0.01
-0.75
-1.33
-1.65
-1.73
-1.69
-1.71
-1.93
-2.38
-3.03
-3.80
-4.66
-5.57
-6.53
-7.47
-8.29
-8.78
-8.77
-8.14
-6.97
-5.42
-3.77
-2.27
-1.04
-0.07
0.75
1.56
2.44
3.32
4.06
4.51
4.62
4.48
4.25
4.13
4.18
4.37
4.57
4.64
4.52
4.23
3.92
3.70
3.63
3.67
3.74
3.71
3.51
3.13
2.61
2.04
1.48
0.98
0.54
0.16
-0.17
-0.45
-0.71
-1.00
-1.38
-1.88
-2.46
-3.04
-3.51
-3.83
-4.06
-4.32
-4.70
-5.28
-6.01
-6.84
-7.66
-8.39
-8.91
-9.07
-8.69
-7.69
-6.15
-4.31
-2.52
-1.05
-0.02
0.67
1.25
1.90
2.66
3.44
4.05
4.41
4.52
4.53
4.58
4.75
5.04
5.34
5.56
5.65
5.60
5.47
5.32
5.20
5.14
5.10
5.00
4.74
4.20
3.36
2.30
1.21
0.28
-0.33
-0.60
-0.61
-0.51
-0.40
-0.34
-0.34
-0.41
-0.60
-0.95
-1.48
-2.06
-2.57
-2.88
-2.95
-2.85
-2.70
-2.65
-2.75
-2.98
-3.29
-3.67
-4.12
-4.67
-5.33
-6.09
-6.91
-7.72
-8.47
-9.05
-9.37
-9.30
-8.76
-7.77
-6.41
-4.83
-3.20
-1.66
-0.33
0.76
1.60
2.26
2.80
3.31
3.85
4.43
5.02
5.54
5.91
6.09
6.06
5.88
5.68
5.55
5.54
5.62
5.71
5.74
5.63
5.42
5.15
4.85
4.49
4.01
3.39
2.71
2.11
1.75
1.65
1.72
1.79
1.68
1.36
0.87
0.35
-0.09
-0.44
-0.74
-1.07
-1.48
-1.95
-2.43
-2.84
-3.12
-3.27
-3.36
-3.48
-3.73
-4.15
-4.73
-5.42
-6.16
-6.91
-7.66
-8.37
-8.95
-9.24
-9.11
-8.49
-7.41
-6.01
-4.49
-3.01
-1.69
-0.53
0.49
1.42
2.26
3.02
3.65
4.13
4.46
4.69
4.86
5.03
5.23
5.46
5.67
5.80
5.79
5.59
5.24
4.82
4.44
4.23
4.22
4.34
4.40
4.23
3.71
2.86
1.84
0.86
0.11
-0.33
-0.50
-0.46
-0.32
-0.17
-0.09
-0.20
-0.57
-1.24
-2.14
-3.11
-3.96
-4.54
-4.88
-5.06
-5.27
-5.60
-6.07
-6.66
-7.27
-7.85
-8.36
-8.68
-8.71
-8.33
-7.46
-6.17
-4.63
-3.03
-1.56
-0.28
0.81
1.72
2.46
3.02
3.37
3.52
3.52
3.45
3.39
3.39
3.47
3.61
3.82
4.08
4.38
4.69
4.98
5.18
5.24
5.08
4.67
4.02
3.19
2.31
1.54
0.96
0.59
0.38
0.16
-0.20
-0.74
-1.42
-2.12
-2.73
-3.19
-3.50
-3.75
-4.00
-4.31
-4.70
-5.22
-5.85
-6.58
-7.30
-7.79
-7.83
-7.24
-5.99
-4.24
-2.24
-0.27
1.47
2.86
3.88
4.54
4.85
4.88
4.71
4.46
4.26
4.17
4.18
4.28
4.45
4.67
4.95
5.21
5.37
5.32
5.04
4.61
4.17
3.84
3.66
3.57
3.45
3.19
2.81
2.41
2.11
1.96
1.90
1.77
1.43
0.79
-0.11
-1.14
-2.11
-2.87
-3.33
-3.51
-3.53
-3.55
-3.73
-4.18
-4.87
-5.68
-6.39
-6.77
-6.57
-5.70
-4.22
-2.33
-0.38
1.31
2.51
3.17
3.42
3.45
3.45
3.52
3.68
3.90
4.18
4.52
4.90
5.30
5.63
5.80
5.78
5.60
5.35
5.16
5.11
5.23
5.47
5.71
5.80
5.62
5.10
4.28
3.24
2.15
1.19
0.50
0.15
0.12
0.34
0.65
0.90
0.97
0.80
0.40
-0.14
-0.71
-1.18
-1.48
-1.59
-1.59
-1.62
-1.84
-2.36
-3.20
-4.21
-5.18
-5.94
-6.41
-6.65
-6.81
-7.05
-7.45
-8.05
-8.81
-9.64
-10.39
-10.87
-10.85
-10.15
-8.74
-6.74
-4.43
-2.10
-0.00
1.75
3.14
4.19
4.92
5.33
5.48
5.43
5.33
5.29
5.40
5.67
6.00
6.28
6.42
6.40
6.26
6.11
6.01
5.98
6.03
6.10
6.14
6.08
5.86
5.42
4.75
3.89
2.98
2.19
1.68
1.48
1.51
1.58
1.50
1.17
0.63
-0.01
-0.62
-1.12
-1.52
-1.85
-2.16
-2.47
-2.81
-3.22
-3.73
-4.37
-5.09
-5.80
-6.39
-6.81
-7.13
-7.50
-8.05
-8.82
-9.70
-10.47
-10.91
-10.87
-10.32
-9.34
-8.05
-6.56
-4.97
-3.36
-1.82
-0.42
0.77
1.74
2.49
3.04
3.40
3.63
3.77
3.93
4.16
4.51
4.88
5.17
5.25
5.11
4.86
4.65
4.63
4.82
5.10
5.32
5.30
5.02
4.51
3.91
3.32
2.84
2.49
2.26
2.07
1.86
1.51
0.99
0.31
-0.44
-1.12
-1.62
-1.87
-1.92
-1.85
-1.81
-1.90
-2.21
-2.73
-3.40
-4.14
-4.83
-5.42
-5.89
-6.30
-6.72
-7.19
-7.73
-8.29
-8.86
-9.39
-9.84
-10.14
-10.11
-9.60
-8.52
-6.90
-4.96
-2.95
-1.10
0.47
1.78
2.89
3.78
4.43
4.78
4.84
4.73
4.60
4.60
4.79
5.12
5.48
5.76
5.92
5.97
5.92
5.79
5.59
5.31
4.98
4.60
4.19
3.73
3.23
2.73
2.28
1.97
1.87
1.96
2.15
2.29
2.26
1.99
1.55
1.04
0.60
0.29
0.07
-0.16
-0.50
-0.99
-1.57
-2.14
-2.58
-2.90
-3.14
-3.42
-3.83
-4.38
-5.02
-5.71
-6.44
-7.22
-8.09
-8.99
-9.76
-10.12
-9.86
-8.92
-7.41
-5.61
-3.80
-2.21
-0.94
0.04
0.77
1.31
1.71
2.01
2.28
2.57
2.88
3.14
3.28
3.24
3.03
2.80
2.67
2.74
3.01
3.39
3.75
4.01
4.11
4.04
3.83
3.48
3.07
2.66
2.32
2.09
1.96
1.84
1.66
1.36
0.94
0.45
-0.05
-0.49
-0.84
-1.11
-1.34
-1.57
-1.83
-2.11
-2.38
-2.61
-2.84
-3.11
-3.55
-4.28
-5.30
-6.53
-7.79
-8.86
-9.64
-10.09
-10.29
-10.31
-10.15
-9.71
-8.91
-7.75
-6.32
-4.77
-3.29
-1.96
-0.77
0.28
1.22
2.02
2.64
3.09
3.43
3.74
4.09
4.43
4.68
4.75
4.64
4.42
4.25
4.24
4.42
4.76
5.12
5.41
5.53
5.48
5.29
5.02
4.71
4.41
4.15
3.96
3.85
3.81
3.74
3.53
3.07
2.34
1.42
0.50
-0.23
-0.67
-0.87
-0.98
-1.16
-1.51
-2.03
-2.65
-3.30
-3.93
-4.51
-5.04
-5.52
-5.97
-6.46
-7.05
-7.78
-8.56
-9.17
-9.31
-8.73
-7.37
-5.44
-3.29
-1.31
0.26
1.35
2.09
2.67
3.22
3.75
4.20
4.49
4.60
4.59
4.55
4.59
4.74
5.00
5.31
5.64
5.95
6.20
6.36
6.39
6.28
5.99
5.55
4.99
4.39
3.85
3.44
3.21
3.12
3.07
2.91
2.57
2.04
1.45
0.94
0.60
0.42
0.25
-0.06
-0.58
-1.26
-1.98
-2.63
-3.19
-3.70
-4.24
-4.86
-5.54
-6.23
-6.84
-7.31
-7.60
-7.65
-7.40
-6.79
-5.78
-4.41
-2.79
-1.09
0.52
1.91
2.99
3.74
4.20
4.47
4.63
4.73
4.81
4.85
4.89
4.92
4.98
5.08
5.19
5.25
5.20
5.03
4.75
4.41
4.09
3.77
3.43
3.01
2.51
1.97
1.52
1.27
1.27
1.47
1.73
1.88
1.80
1.46
0.88
0.15
-0.63
-1.37
-2.01
-2.50
-2.84
-3.07
-3.26
-3.52
-3.91
-4.50
-5.33
-6.34
-7.46
-8.50
-9.28
-9.58
-9.27
-8.33
-6.86
-5.09
-3.25
-1.51
0.00
1.25
2.25
3.04
3.68
4.23
4.73
5.16
5.50
5.71
5.75
5.66
5.49
5.35
5.26
5.25
5.27
5.29
5.30
5.31
5.32
5.29
5.17
4.91
4.52
4.10
3.77
3.60
3.60
3.65
3.60
3.31
2.75
1.98
1.14
0.41
-0.12
-0.43
-0.61
-0.79
-1.09
-1.58
-2.21
-2.90
-3.52
-3.99
-4.32
-4.57
-4.85
-5.24
-5.78
-6.46
-7.27
-8.15
-9.02
-9.76
-10.22
-10.24
-9.74
-8.70
-7.21
-5.43
-3.54
-1.73
-0.17
1.04
1.85
2.33
2.60
2.83
3.15
3.58
4.03
4.37
4.51
4.49
4.40
4.35
4.43
4.60
4.82
5.04
5.25
5.48
5.71
5.91
5.95
5.76
5.29
4.63
3.94
3.38
3.09
3.08
3.24
3.42
3.45
3.23
2.77
2.16
1.55
1.09
0.80
0.65
0.51
0.27
-0.11
-0.58
-1.03
-1.36
-1.52
-1.55
-1.55
-1.62
-1.85
-2.26
-2.84
-3.53
-4.31
-5.15
-6.02
-6.88
-7.62
-8.05
-7.99
-7.30
-5.99
-4.22
-2.30
-0.56
0.77
1.58
1.95
2.03
2.04
2.17
2.50
3.02
3.63
4.17
4.51
4.61
4.48
4.22
3.96
3.78
3.69
3.67
3.67
3.65
3.63
3.56
3.42
3.16
2.72
2.12
1.46
0.87
0.44
0.21
0.10
0.03
-0.08
-0.25
-0.41
-0.54
-0.65
-0.86
-1.26
-1.90
-2.71
-3.53
-4.16
-4.49
-4.50
-4.30
-4.08
-4.03
-4.30
-4.94
-5.90
-7.04
-8.20
-9.17
-9.82
-10.03
-9.72
-8.84
-7.40
-5.45
-3.20
-0.90
1.16
2.78
3.91
4.63
5.11
5.52
5.98
6.47
6.96
7.39
7.74
8.01
8.23
8.39
8.45
8.38
8.17
7.82
7.40
6.95
6.50
5.98
5.33
4.46
3.35
2.07
0.77
-0.38
-1.23
-1.74
-1.94
-1.98
-1.98
-2.09
-2.36
-2.78
-3.29
-3.82
-4.29
-4.66
-4.94
-5.16
-5.39
-5.70
-6.12
-6.67
-7.30
-7.96
-8.64
-9.31
-10.01
-10.73
-11.39
-11.92
-12.16
-11.99
-11.35
-10.21
-8.65
-6.77
-4.73
-2.68
-0.78
0.88
2.25
3.35
4.19
4.81
5.23
5.47
5.59
5.68
5.80
5.98
6.22
6.46
6.63
6.72
6.70
6.64
6.56
6.49
6.42
6.33
6.21
6.02
5.77
5.44
5.07
4.65
4.20
3.74
3.29
2.88
2.50
2.15
1.82
1.50
1.17
0.80
0.34
-0.24
-0.91
-1.61
-2.24
-2.75
-3.11
-3.41
-3.71
-4.11
-4.63
-5.23
-5.90
-6.61
-7.36
-8.08
-8.67
-8.95
-8.75
-7.99
-6.70
-5.06
-3.31
-1.66
-0.26
0.85
1.69
2.35
2.88
3.33
3.69
3.96
4.16
4.29
4.38
4.45
4.51
4.55
4.57
4.58
4.58
4.54
4.47
4.38
4.28
4.22
4.21
4.22
4.18
4.03
3.75
3.41
3.10
2.89
2.79
2.73
2.58
2.22
1.65
0.96
0.32
-0.10
-0.25
-0.20
-0.11
-0.14
-0.35
-0.73
-1.20
-1.67
-2.17
-2.76
-3.53
-4.47
-5.53
-6.55
-7.41
-8.05
-8.42
-8.51
-8.24
-7.56
-6.49
-5.15
-3.74
-2.48
-1.46
-0.65
0.09
0.90
1.85
2.92
3.99
4.90
5.58
5.99
6.20
6.28
6.29
6.29
6.28
6.27
6.27
6.30
6.37
6.42
6.38
6.15
5.67
4.94
4.05
3.13
2.26
1.49
0.80
0.11
-0.59
-1.27
-1.87
-2.32
-2.63
-2.88
-3.21
-3.72
-4.40
-5.16
-5.82
-6.24
-6.41
-6.43
-6.48
-6.73
-7.23
-7.93
-8.70
-9.38
-9.85
-10.01
-9.74
-8.99
-7.76
-6.16
-4.40
-2.71
-1.30
-0.24
0.50
1.02
1.40
1.69
1.88
1.98
2.01
2.03
2.08
2.18
2.31
2.47
2.71
3.08
3.65
4.40
5.23
5.98
6.54
6.91
7.16
7.37
7.60
7.80
7.85
7.71
7.41
7.04
6.71
6.43
6.13
5.65
4.89
3.84
2.61
1.37
0.25
-0.68
-1.44
-2.08
-2.66
-3.23
-3.84
-4.55
-5.37
-6.32
-7.35
-8.37
-9.27
-9.90
-10.05
-9.59
-8.45
-6.72
-4.69
-2.67
-0.97
0.27
1.05
1.52
1.81
2.02
2.17
2.27
2.36
2.47
2.61
2.77
2.88
2.91
2.88
2.81
2.71
2.56
2.31
1.95
1.58
1.31
1.24
1.35
1.52
1.58
1.43
1.11
0.75
0.50
0.42
0.45
0.47
0.37
0.11
-0.30
-0.77
-1.23
-1.65
-2.00
-2.31
-2.59
-2.89
-3.29
-3.87
-4.68
-5.69
-6.82
-7.93
-8.84
-9.38
-9.44
-8.93
-7.85
-6.28
-4.40
-2.41
-0.52
1.12
2.46
3.51
4.33
4.95
5.38
5.56
5.48
5.21
4.83
4.47
4.25
4.19
4.25
4.37
4.49
4.61
4.77
5.00
5.27
5.48
5.51
5.25
4.66
3.82
2.84
1.91
1.15
0.67
0.44
0.39
0.35
0.16
-0.31
-1.06
-1.99
-2.89
-3.57
-3.95
-4.06
-4.05
-4.12
-4.42
-5.02
-5.90
-6.95
-7.99
-8.83
-9.28
-9.23
-8.66
-7.66
-6.37
-4.96
-3.58
-2.29
-1.14
-0.13
0.73
1.42
1.92
2.23
2.38
2.42
2.42
2.44
2.50
2.61
2.74
2.86
2.94
3.03
3.14
3.28
3.41
3.43
3.26
2.89
2.39
1.85
1.40
1.04
0.73
0.35
-0.16
-0.76
-1.38
-1.93
-2.38
-2.78
-3.20
-3.70
-4.30
-4.97
-5.69
-6.43
-7.17
-7.85
-8.33
-8.45
-8.07
-7.15
-5.78
-4.16
-2.53
-1.08
0.14
1.16
2.09
3.00
3.87
4.58
5.00
5.04
4.78
4.45
4.31
4.51
5.05
5.73
6.30
6.57
6.46
6.07
5.56
5.05
4.60
4.16
3.67
3.08
2.44
1.82
1.31
0.90
0.53
0.08
-0.54
-1.35
-2.23
-3.01
-3.58
-3.92
-4.15
-4.47
-5.02
-5.88
-6.95
-8.11
-9.15
-9.91
-10.22
-9.98
-9.12
-7.68
-5.81
-3.76
-1.79
-0.11
1.18
2.10
2.71
3.09
3.29
3.38
3.43
3.55
3.82
4.25
4.78
5.24
5.48
5.43
5.14
4.76
4.46
4.34
4.34
4.36
4.23
3.89
3.34
2.69
2.01
1.37
0.80
0.28
-0.21
-0.69
-1.16
-1.59
-1.93
-2.16
-2.27
-2.33
-2.47
-2.83
-3.51
-4.51
-5.65
-6.66
-7.24
-7.20
-6.49
-5.25
-3.76
-2.30
-1.07
-0.13
0.57
1.17
1.77
2.40
3.02
3.55
3.95
4.20
4.39
4.56
4.75
4.95
5.09
5.12
5.06
4.94
4.84
4.75
4.64
4.42
4.00
3.35
2.52
1.61
0.76
0.07
-0.44
-0.80
-1.09
-1.36
-1.67
-2.00
-2.33
-2.66
-3.00
-3.45
-4.05
-4.87
-5.85
-6.83
-7.59
-7.95
-7.80
-7.15
-6.09
-4.77
-3.30
-1.74
-0.12
1.49
3.01
4.31
5.25
5.76
5.87
5.69
5.39
5.12
4.99
5.01
5.13
5.27
5.34
5.29
5.11
4.87
4.60
4.37
4.20
4.08
4.01
3.97
3.94
3.88
3.73
3.43
2.93
2.23
1.39
0.50
-0.33
-1.04
-1.58
-2.01
-2.39
-2.81
-3.32
-3.91
-4.51
-5.06
-5.50
-5.79
-5.89
-5.75
-5.28
-4.41
-3.12
-1.52
0.21
1.84
3.20
4.25
5.03
5.61
6.02
6.24
6.22
6.01
5.68
5.39
5.28
5.41
5.73
6.15
6.59
6.97
7.28
7.50
7.62
7.61
7.49
7.34
7.22
7.19
7.23
7.24
7.13
6.81
6.26
5.52
4.68
3.86
3.17
2.71
2.52
2.55
2.66
2.71
2.57
2.24
1.78
1.34
1.05
0.95
1.01
1.11
1.17
1.12
0.95
0.69
0.34
-0.11
-0.70
-1.44
-2.27
-3.12
-3.92
-4.64
-5.33
-6.09
-7.02
-8.15
-9.46
-10.85
-12.21
-13.45
-14.53
-15.47
-16.27
-16.86
-17.12
-16.85
-15.87
-14.17
-11.89
-9.33
-6.82
-4.64
-2.91
-1.58
-0.55
0.31
1.06
1.71
2.29
2.81
3.32
3.85
4.42
4.96
5.44
5.79
6.01
6.10
6.11
6.08
6.08
6.14
6.27
6.45
6.62
6.70
6.62
6.33
5.85
5.25
4.64
4.15
3.84
3.70
3.66
3.57
3.32
2.85
2.19
1.40
0.59
-0.16
-0.81
-1.39
-1.93
-2.46
-2.97
-3.50
-4.08
-4.76
-5.54
-6.39
-7.20
-7.84
-8.25
-8.50
-8.77
-9.27
-10.14
-11.34
-12.66
-13.76
-14.30
-14.09
-13.09
-11.45
-9.38
-7.14
-4.97
-3.02
-1.41
-0.16
0.72
1.32
1.78
2.22
2.72
3.29
3.85
4.30
4.60
4.75
4.82
4.83
4.80
4.67
4.43
4.08
3.71
3.41
3.27
3.27
3.33
3.33
3.22
2.98
2.62
2.22
1.79
1.40
1.08
0.85
0.74
0.73
0.82
0.93
1.02
1.01
0.82
0.41
-0.23
-1.05
-1.97
-2.85
-3.60
-4.16
-4.56
-4.87
-5.23
-5.79
-6.63
-7.79
-9.19
-10.63
-11.84
-12.54
-12.47
-11.53
-9.79
-7.49
-5.03
-2.79
-1.04
0.15
0.89
1.38
1.86
2.42
3.05
3.65
4.10
4.37
4.54
4.71
5.01
5.45
5.93
6.31
6.46
6.36
6.06
5.68
5.32
5.01
4.70
4.32
3.84
3.27
2.66
2.06
1.52
1.05
0.64
0.27
-0.10
-0.47
-0.86
-1.29
-1.77
-2.30
-2.90
-3.55
-4.21
-4.85
-5.44
-5.99
-6.55
-7.17
-7.86
-8.56
-9.13
-9.42
-9.30
-8.70
-7.63
-6.16
-4.39
-2.49
-0.63
1.00
2.24
3.03
3.40
3.45
3.31
3.09
2.87
2.67
2.56
2.62
2.89
3.38
3.96
4.47
4.73
4.67
4.36
3.94
3.55
3.25
2.99
2.67
2.24
1.69
1.09
0.51
-0.00
-0.46
-0.88
-1.27
-1.62
-1.94
-2.25
-2.62
-3.14
-3.86
-4.80
-5.91
-7.08
-8.19
-9.06
-9.53
-9.46
-8.77
-7.50
-5.77
-3.82
-1.86
-0.06
1.51
2.83
3.89
4.67
5.13
5.24
5.04
4.69
4.37
4.25
4.40
4.77
5.20
5.53
5.68
5.68
5.62
5.58
5.54
5.40
5.04
4.44
3.72
3.04
2.55
2.26
2.08
1.87
1.52
1.05
0.56
0.15
-0.13
-0.31
-0.51
-0.83
-1.33
-2.04
-2.92
-3.86
-4.72
-5.33
-5.54
-5.26
-4.45
-3.20
-1.64
0.05
1.70
3.13
4.24
5.01
5.48
5.74
5.88
5.95
5.96
5.90
5.79
5.69
5.66
5.76
5.96
6.18
6.34
6.39
6.32
6.15
5.92
5.62
5.25
4.81
4.35
3.95
3.69
3.58
3.57
3.53
3.35
2.95
2.35
1.66
1.06
0.65
0.46
0.46
0.57
0.68
0.70
0.56
0.21
-0.40
-1.27
-2.31
-3.40
-4.36
-5.05
-5.47
-5.74
-6.06
-6.63
-7.54
-8.74
-10.08
-11.35
-12.34
-12.86
-12.78
-12.03
-10.64
-8.74
-6.55
-4.34
-2.34
-0.67
0.65
1.71
2.60
3.38
4.06
4.62
5.02
5.26
5.37
5.42
5.48
5.62
5.83
6.10
6.35
6.56
6.70
6.77
6.79
6.75
6.62
6.32
5.84
5.20
4.48
3.81
3.28
2.88
2.57
2.26
1.88
1.39
0.82
0.22
-0.40
-1.02
-1.65
-2.28
-2.86
-3.35
-3.73
-4.01
-4.25
-4.54
-4.97
-5.59
-6.38
-7.30
-8.31
-9.39
-10.48
-11.54
-12.41
-12.89
-12.76
-11.89
-10.29
-8.18
-5.89
-3.75
-1.96
-0.53
0.63
1.68
2.68
3.63
4.46
5.08
5.50
5.76
5.94
6.15
6.39
6.67
6.95
7.19
7.37
7.50
7.58
7.57
7.41
7.02
6.36
5.45
4.42
3.47
2.81
2.54
2.60
2.81
2.92
2.75
2.24
1.48
0.63
-0.15
-0.81
-1.37
-1.94
-2.63
-3.43
-4.29
-5.11
-5.80
-6.38
-6.96
-7.65
-8.46
-9.30
-9.92
-10.05
-9.48
-8.19
-6.40
-4.41
-2.55
-1.04
0.10
0.95
1.65
2.26
2.75
3.06
3.12
2.98
2.82
2.83
3.14
3.75
4.50
5.14
5.47
5.45
5.15
4.74
4.37
4.07
3.76
3.32
2.69
1.92
1.16
0.56
0.19
0.01
-0.10
-0.30
-0.64
-1.12
-1.66
-2.18
-2.63
-3.03
-3.44
-3.96
-4.64
-5.52
-6.48
-7.35
-7.92
-7.99
-7.52
-6.55
-5.24
-3.77
-2.32
-1.00
0.15
1.11
1.92
2.59
3.15
3.61
3.93
4.09
4.09
4.00
3.91
3.88
3.94
4.04
4.11
4.12
4.06
3.98
3.92
3.88
3.87
3.85
3.81
3.76
3.66
3.48
3.15
2.63
1.95
1.19
0.49
-0.08
-0.49
-0.82
-1.14
-1.50
-1.86
-2.16
-2.40
-2.64
-3.02
-3.63
-4.47
-5.33
-5.94
-6.03
-5.49
-4.39
-2.91
-1.29
0.32
1.82
3.18
4.37
5.28
5.81
5.92
5.70
5.31
4.94
4.74
4.74
4.88
5.03
5.12
5.14
5.12
5.10
5.05
4.93
4.67
4.26
3.75
3.22
2.72
2.23
1.70
1.06
0.34
-0.41
-1.10
-1.64
-1.97
-2.11
-2.11
-2.03
-1.98
-2.01
-2.15
-2.38
-2.63
-2.85
-3.02
-3.13
-3.23
-3.33
-3.46
-3.63
-3.84
-4.12
-4.47
-4.91
-5.36
-5.81
-6.27
-6.83
-7.61
-8.64
-9.84
-10.97
-11.69
-11.71
-10.90
-9.33
-7.26
-5.01
-2.87
-0.99
0.58
1.88
2.96
3.85
4.53
4.99
5.24
5.35
5.42
5.57
5.82
6.13
6.39
6.51
6.46
6.31
6.18
6.19
6.37
6.64
6.85
6.89
6.68
6.25
5.65
5.01
4.38
3.81
3.32
2.91
2.58
2.27
1.91
1.44
0.84
0.20
-0.38
-0.76
-0.89
-0.88
-0.87
-1.04
-1.48
-2.19
-3.06
-3.97
-4.78
-5.44
-5.97
-6.45
-6.99
-7.70
-8.62
-9.68
-10.69
-11.40
-11.56
-11.04
-9.86
-8.15
-6.15
-4.09
-2.14
-0.45
0.91
1.86
2.41
2.58
2.47
2.23
2.03
2.01
2.24
2.69
3.24
3.74
4.01
3.97
3.64
3.17
2.78
2.68
2.97
3.58
4.28
4.81
4.95
4.64
3.99
3.21
2.50
1.99
1.71
1.57
1.43
1.18
0.74
0.11
-0.65
-1.43
-2.10
-2.59
-2.90
-3.14
-3.47
-4.01
-4.78
-5.70
-6.66
-7.56
-8.37
-9.06
-9.57
-9.78
-9.52
-8.71
-7.38
-5.72
-3.97
-2.39
-1.11
-0.12
0.68
1.42
2.14
2.83
3.40
3.79
3.99
4.05
4.07
4.12
4.24
4.36
4.41
4.34
4.17
3.98
3.87
3.87
3.89
3.82
3.53
3.00
2.34
1.71
1.26
0.99
0.82
0.58
0.15
-0.47
-1.19
-1.86
-2.36
-2.66
-2.85
-3.08
-3.49
-4.17
-5.13
-6.28
-7.45
-8.41
-8.93
-8.86
-8.15
-6.89
-5.28
-3.57
-1.95
-0.54
0.68
1.75
2.73
3.59
4.26
4.68
4.81
4.73
4.57
4.48
4.55
4.75
5.02
5.23
5.31
5.29
5.24
5.25
5.38
5.58
5.73
5.73
5.51
5.08
4.52
3.88
3.17
2.37
1.50
0.59
-0.21
-0.78
-1.06
-1.10
-1.11
-1.31
-1.85
-2.73
-3.81
-4.94
-5.98
-6.89
-7.65
-8.17
-8.32
-7.96
-7.02
-5.56
-3.82
-2.07
-0.56
0.61
1.48
2.18
2.82
3.47
4.07
4.54
4.77
4.71
4.41
4.02
3.69
3.56
3.64
3.88
4.14
4.35
4.44
4.45
4.41
4.34
4.21
4.01
3.71
3.33
2.89
2.42
1.97
1.57
1.28
1.10
0.98
0.84
0.57
0.13
-0.47
-1.14
-1.76
-2.27
-2.70
-3.10
-3.58
-4.17
-4.87
-5.64
-6.42
-7.20
-7.98
-8.77
-9.53
-10.16
-10.49
-10.30
-9.46
-7.94
-5.90
-3.65
-1.56
0.11
1.26
2.01
2.60
3.27
4.12
5.12
6.08
6.82
7.22
7.28
7.08
6.74
6.38
6.05
5.81
5.66
5.63
5.71
5.87
6.04
6.17
6.18
6.05
5.79
5.44
5.04
4.62
4.16
3.66
3.08
2.41
1.67
0.93
0.23
-0.36
-0.86
-1.32
-1.82
-2.39
-3.02
-3.64
-4.17
-4.57
-4.87
-5.15
-5.54
-6.11
-6.87
-7.77
-8.69
-9.50
-10.13
-10.48
-10.46
-9.98
-8.98
-7.45
-5.51
-3.39
-1.36
0.36
1.64
2.50
3.07
3.48
3.84
4.20
4.55
4.83
5.02
5.10
5.08
5.00
4.92
4.84
4.71
4.49
4.15
3.74
3.38
3.21
3.26
3.39
3.42
3.14
2.52
1.70
0.92
0.36
0.09
-0.01
-0.13
-0.42
-0.91
-1.55
-2.23
-2.88
-3.46
-3.97
-4.42
-4.86
-5.33
-5.89
-6.58
-7.36
-8.11
-8.63
-8.73
-8.27
-7.24
-5.74
-3.98
-2.18
-0.51
0.88
1.97
2.79
3.37
3.78
4.01
4.07
3.93
3.66
3.35
3.12
3.07
3.19
3.42
3.61
3.69
3.61
3.43
3.22
3.04
2.89
2.74
2.53
2.23
1.86
1.43
0.96
0.47
-0.05
-0.60
-1.20
-1.83
-2.41
-2.87
-3.17
-3.32
-3.43
-3.63
-4.05
-4.73
-5.58
-6.42
-7.04
-7.29
-7.09
-6.43
-5.35
-3.91
-2.24
-0.52
1.06
2.34
3.24
3.81
4.18
4.48
4.80
5.15
5.48
5.77
5.95
6.03
6.00
5.89
5.73
5.57
5.46
5.43
5.47
5.51
5.45
5.18
4.69
3.99
3.18
2.37
1.65
1.05
0.57
0.17
-0.22
-0.63
-1.09
-1.60
-2.16
-2.79
-3.49
-4.22
-4.96
-5.65
-6.27
-6.81
-7.31
-7.79
-8.22
-8.51
-8.49
-8.03
-7.04
-5.57
-3.79
-1.92
-0.17
1.34
2.54
3.43
3.97
4.19
4.12
3.87
3.58
3.39
3.39
3.54
3.78
4.04
4.27
4.45
4.58
4.63
4.59
4.47
4.32
4.19
4.11
4.02
3.83
3.50
3.02
2.50
2.06
1.74
1.48
1.17
0.69
0.05
-0.64
-1.23
-1.65
-1.96
-2.28
-2.73
-3.36
-4.06
-4.69
-5.14
-5.45
-5.79
-6.34
-7.22
-8.36
-9.54
-10.48
-10.91
-10.68
-9.77
-8.30
-6.48
-4.53
-2.67
-1.05
0.26
1.25
1.97
2.51
2.93
3.28
3.56
3.72
3.73
3.60
3.39
3.21
3.15
3.24
3.44
3.68
3.89
4.05
4.14
4.17
4.08
3.84
3.44
2.94
2.45
2.06
1.82
1.66
1.50
1.29
1.04
0.79
0.58
0.39
0.15
-0.23
-0.81
-1.59
-2.47
-3.34
-4.08
-4.62
-4.99
-5.29
-5.65
-6.20
-6.95
-7.82
-8.60
-9.09
-9.12
-8.63
-7.68
-6.37
-4.82
-3.13
-1.40
0.25
1.70
2.82
3.58
4.01
4.22
4.36
4.52
4.71
4.92
5.07
5.13
5.11
5.01
4.85
4.64
4.37
4.09
3.83
3.64
3.55
3.55
3.57
3.54
3.40
3.10
2.61
1.94
1.11
0.19
-0.79
-1.74
-2.60
-3.31
-3.79
-4.04
-4.08
-4.00
-3.96
-4.16
-4.74
-5.73
-6.99
-8.25
-9.17
-9.47
-9.01
-7.83
-6.11
-4.09
-2.01
-0.08
1.59
2.93
3.92
4.59
4.99
5.22
5.35
5.42
5.46
5.44
5.39
5.33
5.32
5.38
5.48
5.56
5.53
5.36
5.09
4.82
4.62
4.49
4.35
4.06
3.54
2.79
1.93
1.08
0.37
-0.19
-0.64
-1.08
-1.58
-2.14
-2.71
-3.24
-3.72
-4.20
-4.79
-5.57
-6.53
-7.55
-8.42
-8.90
-8.82
-8.11
-6.84
-5.15
-3.25
-1.35
0.40
1.88
3.03
3.86
4.41
4.72
4.86
4.90
4.89
4.86
4.83
4.81
4.79
4.79
4.83
4.96
5.18
5.48
5.78
5.98
5.99
5.73
5.19
4.43
3.56
2.73
2.04
1.55
1.22
0.99
0.78
0.51
0.14
-0.31
-0.85
-1.47
-2.16
-2.89
-3.64
-4.36
-4.98
-5.50
-5.95
-6.43
-7.06
-7.90
-8.90
-9.84
-10.43
-10.40
-9.57
-7.98
-5.83
-3.45
-1.15
0.81
2.29
3.24
3.70
3.79
3.67
3.56
3.62
3.94
4.44
4.97
5.32
5.36
5.10
4.67
4.26
3.98
3.87
3.82
3.75
3.57
3.32
3.06
2.84
2.68
2.51
2.26
1.86
1.28
0.55
-0.30
-1.20
-2.10
-2.96
-3.75
-4.40
-4.86
-5.12
-5.18
-5.14
-5.13
-5.32
-5.81
-6.60
-7.62
-8.69
-9.64
-10.33
-10.66
-10.58
-10.07
-9.12
-7.76
-6.07
-4.21
-2.35
-0.71
0.59
1.50
2.10
2.49
2.79
3.06
3.24
3.26
3.10
2.80
2.54
2.52
2.86
3.52
4.31
4.96
5.24
5.13
4.71
4.20
3.73
3.37
3.02
2.60
2.04
1.39
0.77
0.32
0.05
-0.10
-0.29
-0.63
-1.18
-1.86
-2.57
-3.23
-3.81
-4.34
-4.90
-5.55
-6.30
-7.08
-7.74
-8.04
-7.78
-6.85
-5.33
-3.46
-1.56
0.07
1.30
2.18
2.89
3.59
4.34
5.09
5.74
6.17
6.37
6.33
6.12
5.83
5.54
5.32
5.25
5.35
5.59
5.88
6.10
6.14
5.91
5.43
4.75
4.01
3.35
2.87
2.60
2.47
2.31
1.96
1.31
0.41
-0.60
-1.48
-2.09
-2.43
-2.63
-2.92
-3.46
-4.29
-5.25
-6.08
-6.53
-6.41
-5.72
-4.56
-3.10
-1.52
0.04
1.50
2.80
3.92
4.84
5.60
6.19
6.62
6.89
6.97
6.86
6.62
6.32
6.08
5.97
6.00
6.09
6.14
6.03
5.72
5.26
4.74
4.29
3.97
3.80
3.69
3.53
3.24
2.79
2.24
1.70
1.21
0.75
0.26
-0.35
-1.06
-1.82
-2.51
-3.07
-3.46
-3.76
-4.07
-4.49
-5.11
-5.98
-7.08
-8.35
-9.62
-10.67
-11.29
-11.30
-10.68
-9.48
-7.86
-5.97
-4.02
-2.16
-0.54
0.74
1.67
2.35
2.94
3.54
4.19
4.80
5.25
5.43
5.33
5.05
4.76
4.57
4.53
4.61
4.72
4.79
4.80
4.76
4.68
4.56
4.36
4.04
3.59
3.02
2.39
1.79
1.27
0.85
0.53
0.24
-0.09
-0.50
-1.03
-1.65
-2.32
-2.99
-3.59
-4.12
-4.59
-5.04
-5.54
-6.10
-6.73
-7.43
-8.18
-8.92
-9.62
-10.15
-10.36
-10.07
-9.18
-7.71
-5.84
-3.86
-2.05
-0.58
0.56
1.49
2.34
3.16
3.88
4.37
4.54
4.43
4.16
3.90
3.75
3.73
3.78
3.84
3.90
3.95
4.03
4.11
4.14
4.03
3.72
3.20
2.53
1.80
1.09
0.44
-0.13
-0.62
-1.00
-1.28
-1.49
-1.69
-2.00
-2.47
-3.10
-3.82
-4.49
-5.03
-5.42
-5.76
-6.19
-6.80
-7.61
-8.48
-9.18
-9.47
-9.15
-8.15
-6.55
-4.55
-2.44
-0.51
1.06
2.19
2.93
3.41
3.72
3.95
4.08
4.08
3.94
3.71
3.50
3.43
3.53
3.80
4.12
4.40
4.57
4.61
4.53
4.30
3.89
3.27
2.49
1.70
1.05
0.64
0.42
0.21
-0.21
-0.91
-1.83
-2.72
-3.34
-3.54
-3.42
-3.22
-3.22
-3.62
-4.40
-5.41
-6.37
-7.03
-7.24
-6.93
-6.13
-4.92
-3.39
-1.64
0.22
2.02
3.63
4.91
5.80
6.29
6.44
6.32
6.03
5.66
5.30
5.01
4.87
4.88
5.00
5.13
5.12
4.90
4.46
3.86
3.23
2.66
2.20
1.84
1.53
1.25
0.98
0.73
0.50
0.26
-0.06
-0.50
-1.07
-1.72
-2.38
-2.97
-3.46
-3.90
-4.35
-4.90
-5.59
-6.41
-7.33
-8.27
-9.17
-9.95
-10.49
-10.65
-10.22
-9.10
-7.29
-4.97
-2.46
-0.13
1.73
3.02
3.79
4.19
4.40
4.51
4.57
4.60
4.62
4.69
4.83
5.05
5.33
5.60
5.82
5.95
5.99
5.92
5.76
5.52
5.23
4.96
4.74
4.60
4.48
4.29
3.92
3.33
2.54
1.64
0.76
-0.03
-0.71
-1.29
-1.78
-2.20
-2.54
-2.85
-3.22
-3.74
-4.46
-5.35
-6.34
-7.33
-8.29
-9.18
-9.99
-10.59
-10.80
-10.43
-9.39
-7.77
-5.82
-3.81
-1.96
-0.36
0.97
2.08
2.95
3.55
3.88
3.96
3.90
3.82
3.80
3.84
3.92
3.99
4.06
4.16
4.28
4.43
4.53
4.51
4.30
3.88
3.32
2.69
2.11
1.62
1.23
0.88
0.50
0.05
-0.49
-1.08
-1.66
-2.18
-2.62
-3.00
-3.37
-3.81
-4.38
-5.15
-6.10
-7.20
-8.37
-9.50
-10.47
-11.14
-11.40
-11.12
-10.24
-8.81
-6.93
-4.81
-2.71
-0.81
0.77
1.99
2.88
3.46
3.79
3.89
3.83
3.71
3.60
3.61
3.81
4.18
4.68
5.20
5.61
5.80
5.74
5.45
5.05
4.65
4.35
4.12
3.87
3.50
2.94
2.20
1.39
0.64
0.01
-0.49
-0.94
-1.41
-1.97
-2.63
-3.38
-4.22
-5.17
-6.22
-7.26
-8.14
-8.59
-8.42
-7.54
-6.01
-4.08
-2.03
-0.14
1.47
2.78
3.86
4.80
5.64
6.35
6.88
7.18
7.22
7.05
6.75
6.44
6.21
6.09
6.07
6.12
6.19
6.25
6.26
6.20
6.07
5.86
5.58
5.18
4.66
3.99
3.20
2.31
1.40
0.48
-0.39
-1.19
-1.86
-2.39
-2.77
-3.07
-3.38
-3.82
-4.47
-5.32
-6.25
-7.13
-7.81
-8.16
-8.08
-7.49
-6.33
-4.64
-2.59
-0.46
1.38
2.66
3.29
3.40
3.32
3.36
3.69
4.27
4.92
5.39
5.56
5.46
5.23
5.04
4.98
5.06
5.22
5.40
5.59
5.78
5.99
6.19
6.32
6.34
6.24
6.09
5.94
5.83
5.71
5.44
4.91
4.04
2.84
1.43
-0.00
-1.28
-2.27
-2.96
-3.44
-3.86
-4.42
-5.26
-6.43
-7.83
-9.30
-10.61
-11.57
-12.03
-11.90
-11.14
-9.81
-8.06
-6.08
-4.10
-2.29
-0.77
0.47
1.47
2.28
2.92
3.38
3.66
3.81
3.90
4.01
4.15
4.29
4.40
4.42
4.39
4.35
4.33
4.33
4.31
4.20
3.94
3.53
3.01
2.44
1.89
1.40
0.97
0.60
0.24
-0.17
-0.69
-1.35
-2.11
-2.89
-3.59
-4.12
-4.53
-4.89
-5.33
-5.91
-6.67
-7.58
-8.58
-9.57
-10.43
-11.02
-11.18
-10.76
-9.72
-8.14
-6.21
-4.18
-2.26
-0.57
0.83
1.96
2.83
3.41
3.69
3.68
3.46
3.19
3.07
3.21
3.62
4.22
4.83
5.31
5.53
5.47
5.16
4.63
3.94
3.19
2.46
1.85
1.41
1.13
0.90
0.62
0.26
-0.14
-0.42
-0.43
-0.12
0.36
0.76
0.82
0.39
-0.50
-1.65
-2.85
-3.94
-4.87
-5.66
-6.28
-6.60
-6.41
-5.58
-4.13
-2.28
-0.38
1.23
2.38
3.05
3.36
3.48
3.49
3.42
3.28
3.05
2.77
2.52
2.35
2.33
2.45
2.69
2.97
3.20
3.32
3.30
3.15
2.95
2.72
2.47
2.16
1.77
1.30
0.79
0.29
-0.20
-0.69
-1.23
-1.79
-2.27
-2.58
-2.70
-2.73
-2.88
-3.38
-4.33
-5.64
-7.03
-8.16
-8.73
-8.62
-7.89
-6.72
-5.31
-3.81
-2.27
-0.71
0.84
2.30
3.49
4.31
4.72
4.87
4.94
5.10
5.40
5.78
6.10
6.27
6.29
6.22
6.15
6.13
6.16
6.22
6.29
6.37
6.42
6.39
6.20
5.76
5.09
4.26
3.45
2.80
2.42
2.30
2.34
2.38
2.25
1.85
1.11
0.04
-1.33
-2.91
-4.65
-6.51
-8.47
-10.52
-12.62
-14.67
-16.52
-17.93
-18.67
-18.57
-17.59
-15.85
-13.63
-11.20
-8.82
-6.62
-4.62
-2.79
-1.10
0.43
1.72
2.67
3.26
3.57
3.78
4.09
4.62
5.38
6.21
6.90
7.27
7.31
7.10
6.81
6.57
6.41
6.28
6.07
5.73
5.28
4.79
4.32
3.88
3.46
3.00
2.45
1.77
0.97
0.08
-0.81
-1.63
-2.31
-2.84
-3.25
-3.59
-3.96
-4.46
-5.20
-6.25
-7.60
-9.12
-10.57
-11.67
-12.09
-11.66
-10.32
-8.22
-5.62
-2.89
-0.35
1.74
3.24
4.17
4.66
4.89
5.02
5.15
5.30
5.44
5.53
5.59
5.64
5.73
5.91
6.15
6.38
6.52
6.51
6.32
5.98
5.54
5.03
4.48
3.89
3.32
2.83
2.46
2.21
2.00
1.69
1.17
0.38
-0.58
-1.58
-2.44
-3.08
-3.51
-3.84
-4.25
-4.88
-5.78
-6.93
-8.16
-9.20
-9.79
-9.69
-8.79
-7.17
-5.07
-2.82
-0.69
1.15
2.61
3.73
4.51
4.97
5.12
5.03
4.81
4.60
4.55
4.69
4.97
5.27
5.48
5.52
5.40
5.21
5.02
4.87
4.77
4.67
4.55
4.35
4.04
3.59
3.00
2.31
1.58
0.92
0.40
0.03
-0.22
-0.43
-0.70
-1.10
-1.68
-2.45
-3.35
-4.34
-5.35
-6.31
-7.18
-7.96
-8.66
-9.29
-9.77
-9.99
-9.79
-9.04
-7.73
-5.94
-3.88
-1.78
0.15
1.78
3.07
4.05
4.75
5.19
5.38
5.36
5.19
4.98
4.83
4.83
4.95
5.09
5.13
4.97
4.61
4.10
3.56
3.08
2.73
2.53
2.45
2.43
2.37
2.16
1.68
0.87
-0.21
-1.41
-2.49
-3.25
-3.59
-3.57
-3.39
-3.30
-3.50
-4.11
-5.11
-6.38
-7.70
-8.81
-9.47
-9.50
-8.82
-7.48
-5.67
-3.61
-1.58
0.20
1.60
2.59
3.20
3.54
3.75
3.90
4.06
4.22
4.35
4.43
4.45
4.44
4.44
4.46
4.45
4.39
4.22
3.96
3.64
3.31
3.02
2.75
2.45
2.02
1.41
0.62
-0.25
-1.06
-1.72
-2.21
-2.62
-3.09
-3.71
-4.52
-5.49
-6.51
-7.50
-8.39
-9.08
-9.41
-9.20
-8.33
-6.79
-4.73
-2.47
-0.34
1.41
2.69
3.58
4.20
4.69
5.09
5.38
5.50
5.47
5.33
5.19
5.11
5.13
5.19
5.24
5.20
5.08
4.89
4.65
4.33
3.88
3.28
2.59
1.93
1.41
1.08
0.89
0.67
0.26
-0.41
-1.31
-2.31
-3.24
-4.03
-4.67
-5.26
-5.89
-6.62
-7.42
-8.18
-8.79
-9.12
-9.07
-8.56
-7.57
-6.10
-4.26
-2.22
-0.22
1.52
2.83
3.71
4.24
4.57
4.79
4.94
4.98
4.88
4.65
4.41
4.29
4.36
4.60
4.89
5.07
5.06
4.85
4.54
4.21
3.91
3.59
3.19
2.67
2.09
1.54
1.11
0.79
0.52
0.19
-0.29
-0.94
-1.76
-2.69
-3.67
-4.60
-5.41
-6.06
-6.54
-6.95
-7.41
-8.02
-8.74
-9.44
-9.87
-9.77
-9.02
-7.61
-5.74
-3.66
-1.65
0.07
1.39
2.32
2.94
3.42
3.88
4.41
4.98
5.55
6.06
6.46
6.75
6.94
7.02
6.95
6.72
6.34
5.88
5.43
5.05
4.77
4.53
4.25
3.83
3.24
2.50
1.67
0.88
0.23
-0.21
-0.47
-0.63
-0.85
-1.27
-1.94
-2.82
-3.77
-4.59
-5.16
-5.43
-5.56
-5.76
-6.31
-7.31
-8.68
-10.12
-11.19
-11.51
-10.86
-9.31
-7.13
-4.73
-2.46
-0.52
1.06
2.34
3.42
4.32
5.02
5.46
5.63
5.60
5.48
5.43
5.53
5.80
6.18
6.51
6.66
6.53
6.15
5.64
5.19
4.95
4.96
5.11
5.21
5.07
4.60
3.83
2.88
1.93
1.09
0.42
-0.12
-0.62
-1.15
-1.79
-2.52
-3.31
-4.05
-4.66
-5.10
-5.40
-5.68
-6.08
-6.74
-7.67
-8.82
-9.98
-10.89
-11.26
-10.87
-9.67
-7.77
-5.46
-3.11
-1.06
0.53
1.67
2.52
3.25
3.95
4.60
5.12
5.45
5.62
5.73
5.90
6.18
6.53
6.85
7.02
7.01
6.85
6.61
6.32
5.97
5.49
4.85
4.12
3.39
2.81
2.42
2.18
1.95
1.60
1.05
0.32
-0.52
-1.35
-2.10
-2.72
-3.24
-3.67
-4.06
-4.46
-4.92
-5.48
-6.19
-7.05
-8.04
-9.12
-10.14
-10.88
-11.08
-10.52
-9.13
-7.08
-4.71
-2.38
-0.35
1.28
2.56
3.53
4.22
4.61
4.71
4.59
4.45
4.47
4.74
5.19
5.68
6.06
6.28
6.38
6.46
6.53
6.55
6.39
5.97
5.33
4.61
3.97
3.48
3.07
2.61
1.97
1.15
0.27
-0.52
-1.09
-1.46
-1.73
-2.03
-2.46
-3.03
-3.69
-4.37
-5.03
-5.66
-6.25
-6.86
-7.53
-8.33
-9.26
-10.27
-11.15
-11.65
-11.52
-10.62
-8.98
-6.81
-4.43
-2.12
-0.08
1.66
3.15
4.43
5.50
6.29
6.72
6.76
6.45
5.93
5.37
4.93
4.69
4.68
4.84
5.09
5.34
5.52
5.61
5.59
5.48
5.28
4.98
4.53
3.94
3.22
2.46
1.75
1.20
0.83
0.57
0.32
-0.01
-0.46
-0.98
-1.50
-1.97
-2.42
-2.90
-3.48
-4.24
-5.18
-6.28
-7.53
-8.84
-10.09
-11.04
-11.43
-11.05
-9.84
-7.91
-5.58
-3.18
-1.01
0.78
2.17
3.26
4.15
4.91
5.53
5.99
6.25
6.31
6.22
6.05
5.86
5.69
5.56
5.49
5.47
5.50
5.56
5.61
5.63
5.56
5.39
5.10
4.70
4.16
3.53
2.82
2.09
1.40
0.81
0.29
-0.19
-0.70
-1.30
-1.97
-2.65
-3.26
-3.74
-4.10
-4.40
-4.72
-5.14
-5.70
-6.39
-7.22
-8.13
-9.07
-9.86
-10.28
-10.07
-9.08
-7.30
-4.99
-2.52
-0.32
1.36
2.49
3.22
3.80
4.38
5.00
5.55
5.92
6.06
6.05
6.04
6.11
6.29
6.45
6.49
6.34
6.03
5.67
5.36
5.15
5.00
4.84
4.61
4.25
3.73
3.06
2.29
1.51
0.79
0.20
-0.26
-0.63
-1.02
-1.49
-2.08
-2.75
-3.43
-4.08
-4.66
-5.18
-5.69
-6.21
-6.80
-7.48
-8.25
-9.08
-9.86
-10.42
-10.57
-10.14
-9.04
-7.31
-5.13
-2.73
-0.39
1.71
3.43
4.70
5.52
5.90
5.90
5.64
5.26
4.92
4.73
4.78
5.03
5.40
5.74
5.88
5.74
5.32
4.75
4.20
3.85
3.75
3.85
4.01
4.04
3.84
3.37
2.68
1.84
0.96
0.12
-0.62
-1.22
-1.68
-2.05
-2.39
-2.78
-3.27
-3.85
-4.47
-5.08
-5.60
-6.07
-6.53
-7.07
-7.73
-8.49
-9.22
-9.72
-9.82
-9.39
-8.43
-7.00
-5.25
-3.29
-1.25
0.76
2.62
4.20
5.36
6.01
6.14
5.86
5.35
4.83
4.49
4.41
4.58
4.89
5.19
5.37
5.37
5.21
4.98
4.74
4.53
4.31
4.03
3.61
3.08
2.49
1.96
1.56
1.25
0.96
0.56
-0.01
-0.74
-1.58
-2.45
-3.27
-4.01
-4.59
-4.98
-5.16
-5.20
-5.29
-5.65
-6.44
-7.65
-9.06
-10.33
-11.08
-11.07
-10.22
-8.63
-6.50
-4.13
-1.78
0.28
1.91
3.04
3.73
4.15
4.46
4.74
5.01
5.20
5.25
5.21
5.17
5.25
5.51
5.85
6.13
6.18
5.98
5.60
5.22
4.94
4.77
4.59
4.26
3.73
3.05
2.41
1.93
1.67
1.55
1.41
1.11
0.58
-0.16
-1.05
-1.98
-2.89
-3.71
-4.45
-5.12
-5.74
-6.32
-6.90
-7.49
-8.11
-8.80
-9.52
-10.18
-10.59
-10.52
-9.80
-8.39
-6.43
-4.21
-2.00
-0.02
1.62
2.93
3.95
4.75
5.36
5.78
6.03
6.14
6.15
6.09
5.99
5.85
5.64
5.35
5.00
4.67
4.47
4.51
4.82
5.28
5.66
5.70
5.25
4.33
3.12
1.89
0.85
0.09
-0.40
-0.70
-0.93
-1.19
-1.55
-2.05
-2.68
-3.41
-4.14
-4.78
-5.31
-5.77
-6.30
-7.00
-7.90
-8.92
-9.81
-10.30
-10.17
-9.33
-7.85
-5.95
-3.88
-1.86
-0.04
1.51
2.75
3.68
4.31
4.68
4.89
5.04
5.25
5.56
5.93
6.28
6.51
6.57
6.46
6.23
5.98
5.75
5.57
5.40
5.18
4.86
4.44
3.93
3.35
2.72
2.06
1.41
0.83
0.38
0.08
-0.11
-0.29
-0.60
-1.10
-1.76
-2.46
-3.08
-3.51
-3.81
-4.08
-4.50
-5.18
-6.17
-7.38
-8.65
-9.78
-10.52
-10.68
-10.15
-8.96
-7.25
-5.26
-3.22
-1.30
0.41
1.88
3.10
4.08
4.80
5.25
5.46
5.47
5.39
5.32
5.34
5.48
5.71
5.93
6.06
6.02
5.83
5.55
5.27
5.06
4.94
4.83
4.66
4.33
3.80
3.09
2.27
1.43
0.69
0.16
-0.13
-0.23
-0.28
-0.45
-0.87
-1.60
-2.55
-3.56
-4.49
-5.23
-5.80
-6.26
-6.68
-7.14
-7.67
-8.26
-8.87
-9.37
-9.62
-9.46
-8.78
-7.56
-5.93
-4.09
-2.24
-0.55
0.92
2.17
3.21
4.06
4.74
5.23
5.52
5.61
5.53
5.35
5.15
5.01
4.97
5.02
5.08
5.10
5.06
5.02
5.03
5.10
5.14
4.99
4.50
3.66
2.61
1.57
0.75
0.23
-0.05
-0.27
-0.59
-1.11
-1.78
-2.51
-3.17
-3.70
-4.07
-4.32
-4.54
-4.84
-5.37
-6.24
-7.42
-8.72
-9.77
-10.23
-9.83
-8.59
-6.74
-4.61
-2.53
-0.70
0.83
2.13
3.23
4.13
4.78
5.11
5.10
4.85
4.51
4.24
4.17
4.30
4.55
4.80
4.98
5.06
5.08
5.07
5.08
5.07
5.00
4.79
4.39
3.81
3.08
2.29
1.52
0.85
0.33
-0.08
-0.46
-0.92
-1.50
-2.23
-3.05
-3.87
-4.60
-5.18
-5.59
-5.82
-5.96
-6.13
-6.51
-7.25
-8.40
-9.81
-11.17
-12.06
-12.11
-11.17
-9.38
-7.10
-4.74
-2.64
-0.92
0.49
1.72
2.83
3.80
4.54
4.97
5.12
5.12
5.15
5.30
5.55
5.80
5.91
5.82
5.57
5.27
5.02
4.88
4.85
4.86
4.84
4.74
4.50
4.10
3.53
2.85
2.13
1.46
0.91
0.48
0.13
-0.21
-0.62
-1.12
-1.69
-2.27
-2.82
-3.33
-3.85
-4.43
-5.14
-6.01
-7.02
-8.13
-9.22
-10.18
-10.89
-11.25
-11.17
-10.62
-9.58
-8.09
-6.23
-4.17
-2.10
-0.22
1.33
2.49
3.31
3.89
4.32
4.69
5.00
5.24
5.40
5.49
5.57
5.68
5.85
6.05
6.22
6.29
6.18
5.90
5.48
5.01
4.53
4.07
3.60
3.03
2.36
1.62
0.90
0.33
0.01
-0.09
-0.08
-0.11
-0.33
-0.76
-1.37
-2.07
-2.78
-3.46
-4.12
-4.80
-5.55
-6.42
-7.45
-8.62
-9.88
-11.08
-11.97
-12.30
-11.89
-10.70
-8.88
-6.66
-4.29
-1.98
0.17
2.10
3.77
5.09
5.97
6.38
6.35
6.03
5.64
5.36
5.32
5.51
5.85
6.22
6.56
6.83
7.03
7.14
7.15
7.02
6.73
6.33
5.87
5.40
4.91
4.35
3.67
2.87
2.06
1.37
0.87
0.57
0.31
-0.06
-0.65
-1.42
-2.26
-3.04
-3.73
-4.35
-5.00
-5.75
-6.60
-7.50
-8.36
-9.11
-9.72
-10.10
-10.14
-9.68
-8.62
-6.96
-4.84
-2.55
-0.34
1.56
3.08
4.24
5.11
5.78
6.26
6.52
6.55
6.35
6.01
5.64
5.38
5.31
5.42
5.59
5.69
5.62
5.38
5.07
4.81
4.67
4.61
4.51
4.25
3.73
3.02
2.22
1.48
0.89
0.46
0.16
-0.13
-0.47
-0.95
-1.59
-2.34
-3.10
-3.79
-4.34
-4.79
-5.25
-5.83
-6.60
-7.48
-8.27
-8.72
-8.61
-7.84
-6.48
-4.68
-2.68
-0.71
1.06
2.51
3.61
4.39
4.93
5.29
5.53
5.68
5.71
5.61
5.40
5.17
5.01
5.01
5.18
5.44
5.68
5.79
5.72
5.49
5.14
4.72
4.20
3.54
2.75
1.87
1.06
0.45
0.16
0.16
0.29
0.32
0.05
-0.64
-1.65
-2.80
-3.81
-4.51
-4.85
-4.93
-5.02
-5.38
-6.16
-7.34
-8.70
-9.86
-10.46
-10.26
-9.24
-7.57
-5.55
-3.47
-1.54
0.13
1.52
2.62
3.42
3.93
4.21
4.34
4.48
4.75
5.18
5.70
6.13
6.34
6.27
6.00
5.69
5.49
5.42
5.40
5.30
5.04
4.61
4.10
3.60
3.12
2.65
2.09
1.45
0.77
0.15
-0.33
-0.67
-0.97
-1.34
-1.87
-2.54
-3.27
-3.92
-4.38
-4.64
-4.80
-5.04
-5.58
-6.54
-7.89
-9.40
-10.70
-11.38
-11.16
-9.99
-8.08
-5.77
-3.43
-1.31
0.50
2.00
3.22
4.16
4.80
5.13
5.17
5.03
4.82
4.64
4.57
4.64
4.83
5.09
5.31
5.41
5.36
5.19
4.96
4.78
4.68
4.61
4.47
4.12
3.56
2.84
2.12
1.51
1.05
0.66
0.27
-0.20
-0.77
-1.39
-1.99
-2.51
-2.91
-3.25
-3.57
-3.94
-4.45
-5.12
-5.98
-7.00
-8.10
-9.16
-10.03
-10.54
-10.53
-9.91
-8.70
-7.03
-5.11
-3.20
-1.46
-0.00
1.17
2.09
2.79
3.27
3.54
3.62
3.54
3.36
3.15
2.99
2.96
3.05
3.24
3.47
3.68
3.87
4.07
4.30
4.51
4.59
4.42
3.96
3.27
2.53
1.96
1.64
1.56
1.54
1.39
0.99
0.29
-0.63
-1.64
-2.62
-3.46
-4.08
-4.49
-4.74
-4.89
-5.05
-5.35
-5.87
-6.66
-7.69
-8.83
-9.84
-10.42
-10.31
-9.37
-7.65
-5.39
-2.95
-0.65
1.26
2.70
3.72
4.42
4.88
5.17
5.29
5.26
5.11
4.91
4.72
4.58
4.49
4.45
4.43
4.44
4.47
4.52
4.55
4.52
4.40
4.17
3.79
3.29
2.65
1.93
1.20
0.58
0.14
-0.11
-0.24
-0.42
-0.76
-1.31
-1.99
-2.67
-3.23
-3.63
-3.93
-4.23
-4.59
-5.04
-5.60
-6.28
-7.17
-8.33
-9.75
-11.24
-12.47
-13.05
-12.71
-11.40
-9.31
-6.76
-4.09
-1.56
0.70
2.61
4.12
5.18
5.76
5.94
5.87
5.75
5.74
5.92
6.25
6.63
6.92
7.03
6.93
6.65
6.26
5.86
5.56
5.41
5.42
5.54
5.66
5.65
5.38
4.83
4.07
3.23
2.47
1.89
1.53
1.28
1.01
0.59
-0.07
-0.93
-1.90
-2.87
-3.76
-4.58
-5.40
-6.30
-7.30
-8.37
-9.41
-10.25
-10.74
-10.72
-10.09
-8.88
-7.18
-5.21
-3.19
-1.33
0.24
1.53
2.58
3.44
4.11
4.54
4.70
4.61
4.38
4.18
4.16
4.37
4.77
5.22
5.57
5.70
5.57
5.27
4.92
4.62
4.41
4.25
4.04
3.71
3.26
2.74
2.24
1.81
1.42
0.99
0.45
-0.18
-0.82
-1.35
-1.72
-1.98
-2.24
-2.64
-3.24
-3.99
-4.82
-5.61
-6.32
-6.89
-7.26
-7.30
-6.87
-5.87
-4.36
-2.52
-0.65
0.97
2.20
3.01
3.54
3.94
4.34
4.77
5.20
5.55
5.76
5.79
5.62
5.30
4.91
4.52
4.18
3.91
3.70
3.52
3.36
3.20
3.01
2.77
2.42
1.95
1.37
0.76
0.19
-0.31
-0.72
-1.07
-1.42
-1.75
-2.06
-2.29
-2.44
-2.56
-2.77
-3.19
-3.92
-4.96
-6.23
-7.54
-8.64
-9.26
-9.16
-8.22
-6.53
-4.34
-2.04
-0.01
1.51
2.47
3.00
3.29
3.51
3.74
3.97
4.19
4.38
4.58
4.76
4.92
5.01
4.98
4.82
4.58
4.31
4.05
3.81
3.57
3.31
3.02
2.70
2.34
1.94
1.49
0.99
0.49
0.03
-0.38
-0.78
-1.23
-1.79
-2.44
-3.09
-3.64
-4.02
-4.28
-4.59
-5.13
-5.98
-7.06
-8.14
-8.93
-9.20
-8.84
-7.91
-6.53
-4.91
-3.19
-1.51
0.04
1.42
2.62
3.63
4.40
4.90
5.12
5.10
4.96
4.84
4.82
4.90
5.02
5.05
4.96
4.78
4.62
4.54
4.56
4.58
4.49
4.21
3.73
3.12
2.46
1.86
1.35
0.95
0.65
0.40
0.13
-0.22
-0.71
-1.36
-2.11
-2.86
-3.53
-4.04
-4.41
-4.71
-5.07
-5.58
-6.30
-7.19
-8.15
-9.03
-9.66
-9.86
-9.50
-8.53
-7.02
-5.14
-3.14
-1.26
0.32
1.51
2.34
2.88
3.22
3.47
3.69
3.96
4.28
4.65
5.00
5.27
5.40
5.37
5.25
5.10
5.03
5.06
5.16
5.21
5.10
4.76
4.20
3.50
2.79
2.17
1.70
1.37
1.10
0.85
0.56
0.19
-0.26
-0.79
-1.36
-1.94
-2.46
-2.91
-3.28
-3.59
-3.90
-4.29
-4.84
-5.56
-6.46
-7.45
-8.43
-9.22
-9.69
-9.71
-9.27
-8.38
-7.16
-5.72
-4.19
-2.68
-1.26
0.02
1.13
2.06
2.78
3.28
3.57
3.71
3.77
3.82
3.92
4.10
4.37
4.69
5.06
5.43
5.72
5.85
5.78
5.49
5.03
4.48
3.91
3.35
2.84
2.42
2.10
1.87
1.68
1.46
1.12
0.64
0.07
-0.53
-1.12
-1.71
-2.34
-3.04
-3.78
-4.46
-5.00
-5.38
-5.66
-5.93
-6.29
-6.82
-7.52
-8.32
-9.11
-9.70
-9.90
-9.54
-8.55
-7.02
-5.17
-3.26
-1.52
-0.04
1.17
2.23
3.18
4.06
4.81
5.33
5.57
5.53
5.28
4.95
4.68
4.55
4.58
4.73
4.93
5.11
5.24
5.29
5.24
5.08
4.80
4.43
4.02
3.62
3.27
2.96
2.63
2.25
1.78
1.24
0.62
-0.05
-0.77
-1.50
-2.18
-2.74
-3.16
-3.43
-3.61
-3.82
-4.14
-4.65
-5.37
-6.27
-7.28
-8.25
-8.99
-9.31
-9.05
-8.18
-6.79
-5.10
-3.36
-1.77
-0.45
0.60
1.45
2.22
2.95
3.63
4.21
4.62
4.87
5.01
5.12
5.26
5.41
5.53
5.53
5.40
5.21
5.05
4.98
5.01
5.07
5.07
4.94
4.66
4.24
3.74
3.18
2.61
2.05
1.51
0.98
0.42
-0.19
-0.88
-1.60
-2.30
-2.91
-3.38
-3.73
-4.00
-4.28
-4.67
-5.23
-5.98
-6.84
-7.69
-8.33
-8.57
-8.28
-7.41
-6.05
-4.37
-2.57
-0.84
0.73
2.10
3.29
4.33
5.18
5.76
5.97
5.79
5.30
4.71
4.25
4.11
4.34
4.84
5.48
6.07
6.46
6.58
6.36
5.80
4.97
4.01
3.14
2.49
2.11
1.91
1.71
1.38
0.88
0.31
-0.19
-0.57
-0.87
-1.21
-1.71
-2.35
-3.06
-3.69
-4.17
-4.52
-4.90
-5.46
-6.26
-7.25
-8.23
-8.99
-9.38
-9.36
-8.99
-8.31
-7.37
-6.13
-4.57
-2.75
-0.82
1.00
2.50
3.59
4.28
4.66
4.88
5.02
5.14
5.26
5.36
5.43
5.47
5.47
5.42
5.32
5.16
4.98
4.82
4.74
4.77
4.89
5.00
4.95
4.62
4.00
3.18
2.32
1.59
1.08
0.73
0.47
0.21
-0.09
-0.42
-0.75
-1.13
-1.61
-2.24
-3.05
-3.95
-4.87
-5.68
-6.37
-6.96
-7.53
-8.13
-8.78
-9.41
-9.88
-10.00
-9.62
-8.65
-7.12
-5.21
-3.17
-1.25
0.38
1.66
2.68
3.52
4.23
4.79
5.15
5.29
5.28
5.25
5.30
5.41
5.49
5.42
5.17
4.83
4.54
4.42
4.45
4.49
4.37
4.00
3.40
2.74
2.19
1.85
1.70
1.66
1.61
1.47
1.21
0.82
0.32
-0.26
-0.89
-1.55
-2.19
-2.78
-3.27
-3.66
-3.96
-4.26
-4.69
-5.36
-6.36
-7.60
-8.87
-9.84
-10.22
-9.85
-8.81
-7.32
-5.64
-3.98
-2.40
-0.94
0.42
1.64
2.65
3.38
3.80
3.94
3.87
3.73
3.64
3.75
4.13
4.75
5.47
6.08
6.37
6.25
5.81
5.25
4.78
4.52
4.45
4.42
4.29
3.94
3.39
2.74
2.12
1.61
1.25
0.97
0.68
0.31
-0.14
-0.59
-0.96
-1.20
-1.33
-1.49
-1.82
-2.44
-3.34
-4.42
-5.53
-6.56
-7.48
-8.30
-9.07
-9.79
-10.37
-10.61
-10.37
-9.52
-8.11
-6.30
-4.34
-2.46
-0.80
0.57
1.67
2.51
3.12
3.53
3.81
4.01
4.20
4.40
4.61
4.77
4.87
4.93
5.00
5.11
5.26
5.40
5.46
5.41
5.28
5.09
4.89
4.64
4.30
3.81
3.18
2.48
1.82
1.28
0.90
0.61
0.32
-0.08
-0.63
-1.27
-1.91
-2.46
-2.85
-3.12
-3.34
-3.61
-4.00
-4.54
-5.24
-6.09
-7.06
-8.08
-9.06
-9.83
-10.22
-10.07
-9.31
-8.00
-6.27
-4.30
-2.28
-0.37
1.31
2.70
3.74
4.40
4.69
4.69
4.54
4.38
4.33
4.42
4.59
4.77
4.91
5.01
5.08
5.13
5.13
5.02
4.76
4.38
3.98
3.65
3.49
3.50
3.61
3.69
3.62
3.33
2.81
2.10
1.28
0.47
-0.24
-0.80
-1.19
-1.45
-1.66
-1.91
-2.28
-2.81
-3.49
-4.29
-5.13
-5.93
-6.65
-7.27
-7.80
-8.28
-8.73
-9.09
-9.25
-9.05
-8.36
-7.15
-5.54
-3.71
-1.87
-0.12
1.47
2.92
4.18
5.15
5.72
5.84
5.61
5.25
5.00
5.02
5.32
5.73
6.03
6.09
5.93
5.67
5.45
5.32
5.24
5.11
4.89
4.61
4.35
4.19
4.10
3.97
3.68
3.14
2.42
1.64
0.94
0.41
-0.01
-0.41
-0.87
-1.41
-1.98
-2.49
-2.92
-3.27
-3.62
-4.04
-4.58
-5.22
-5.93
-6.67
-7.44
-8.22
-8.97
-9.54
-9.72
-9.31
-8.18
-6.42
-4.31
-2.19
-0.38
0.95
1.87
2.54
3.14
3.72
4.23
4.55
4.63
4.51
4.34
4.28
4.41
4.72
5.07
5.35
5.50
5.52
5.46
5.37
5.24
5.04
4.78
4.47
4.16
3.87
3.59
3.29
2.94
2.55
2.13
1.70
1.25
0.75
0.18
-0.46
-1.12
-1.74
-2.26
-2.66
-2.97
-3.27
-3.66
-4.21
-4.96
-5.88
-6.87
-7.81
-8.52
-8.89
-8.85
-8.40
-7.57
-6.41
-4.97
-3.33
-1.60
0.08
1.51
2.59
3.27
3.63
3.78
3.87
3.95
4.02
4.01
3.94
3.83
3.78
3.84
3.98
4.13
4.17
4.06
3.85
3.61
3.44
3.33
3.23
3.02
2.67
2.20
1.72
1.31
1.00
0.71
0.35
-0.17
-0.84
-1.57
-2.26
-2.83
-3.29
-3.71
-4.16
-4.69
-5.31
-6.01
-6.80
-7.61
-8.29
-8.65
-8.46
-7.63
-6.22
-4.48
-2.72
-1.17
0.10
1.13
1.99
2.69
3.17
3.36
3.27
3.04
2.88
2.95
3.29
3.78
4.23
4.51
4.58
4.49
4.35
4.24
4.16
4.07
3.93
3.69
3.38
2.99
2.53
1.99
1.36
0.67
-0.02
-0.66
-1.17
-1.54
-1.81
-2.04
-2.29
-2.65
-3.17
-3.87
-4.71
-5.63
-6.53
-7.32
-7.92
-8.27
-8.28
-7.89
-7.03
-5.74
-4.16
-2.52
-1.06
0.10
0.98
1.73
2.50
3.30
4.02
4.51
4.68
4.58
4.38
4.28
4.35
4.59
4.87
5.12
5.32
5.51
5.71
5.89
5.91
5.64
5.01
4.10
3.11
2.26
1.70
1.43
1.29
1.08
0.69
0.11
-0.51
-1.02
-1.34
-1.54
-1.76
-2.13
-2.69
-3.35
-4.01
-4.60
-5.15
-5.78
-6.53
-7.38
-8.14
-8.58
-8.48
-7.76
-6.51
-4.92
-3.23
-1.63
-0.21
1.02
2.08
2.99
3.74
4.29
4.63
4.78
4.82
4.85
4.94
5.15
5.43
5.68
5.80
5.72
5.42
4.99
4.53
4.16
3.93
3.82
3.75
3.64
3.42
3.10
2.71
2.32
1.97
1.67
1.37
1.01
0.52
-0.12
-0.90
-1.72
-2.49
-3.13
-3.60
-3.97
-4.30
-4.65
-5.07
-5.54
-6.05
-6.62
-7.26
-7.95
-8.63
-9.10
-9.15
-8.64
-7.52
-5.94
-4.13
-2.35
-0.80
0.40
1.27
1.88
2.35
2.81
3.34
3.94
4.58
5.14
5.51
5.65
5.59
5.42
5.24
5.11
5.04
4.98
4.94
4.92
4.93
4.96
4.95
4.81
4.50
4.03
3.49
3.00
2.63
2.37
2.13
1.80
1.30
0.63
-0.12
-0.83
-1.41
-1.82
-2.12
-2.39
-2.73
-3.18
-3.75
-4.40
-5.12
-5.86
-6.62
-7.38
-8.14
-8.86
-9.48
-9.89
-9.95
-9.50
-8.47
-6.94
-5.08
-3.19
-1.51
-0.20
0.76
1.47
2.08
2.65
3.18
3.62
3.92
4.10
4.24
4.43
4.72
5.08
5.40
5.59
5.57
5.39
5.12
4.84
4.58
4.30
3.93
3.45
2.88
2.31
1.83
1.46
1.20
1.02
0.90
0.85
0.84
0.81
0.61
0.12
-0.70
-1.76
-2.89
-3.86
-4.56
-4.95
-5.12
-5.20
-5.33
-5.62
-6.16
-6.98
-7.98
-8.97
-9.67
-9.81
-9.26
-8.05
-6.41
-4.60
-2.85
-1.28
0.10
1.33
2.42
3.33
3.99
4.37
4.50
4.46
4.39
4.39
4.49
4.64
4.74
4.70
4.52
4.24
3.98
3.84
3.86
3.96
4.02
3.92
3.61
3.12
2.56
2.01
1.53
1.10
0.67
0.19
-0.34
-0.89
-1.40
-1.86
-2.27
-2.67
-3.11
-3.60
-4.17
-4.81
-5.52
-6.29
-7.08
-7.81
-8.30
-8.33
-7.76
-6.53
-4.79
-2.82
-0.98
0.46
1.39
1.87
2.08
2.20
2.37
2.66
3.06
3.52
3.98
4.36
4.58
4.60
4.44
4.18
3.93
3.78
3.77
3.85
3.96
3.97
3.78
3.37
2.76
2.05
1.39
0.89
0.61
0.51
0.45
0.31
0.01
-0.45
-1.01
-1.58
-2.12
-2.62
-3.13
-3.67
-4.29
-4.97
-5.71
-6.43
-7.04
-7.42
-7.45
-7.08
-6.31
-5.21
-3.85
-2.35
-0.81
0.68
2.00
3.08
3.86
4.38
4.70
4.90
5.04
5.11
5.08
4.93
4.66
4.34
4.05
3.81
3.65
3.53
3.44
3.38
3.37
3.35
3.29
3.08
2.69
2.17
1.63
1.17
0.85
0.62
0.35
-0.05
-0.57
-1.11
-1.53
-1.75
-1.82
-1.89
-2.12
-2.56
-3.24
-4.09
-5.07
-6.13
-7.16
-8.00
-8.40
-8.17
-7.21
-5.67
-3.83
-2.02
-0.48
0.74
1.71
2.52
3.21
3.77
4.21
4.54
4.84
5.16
5.52
5.87
6.12
6.23
6.18
6.03
5.84
5.65
5.46
5.24
4.94
4.55
4.07
3.54
2.98
2.45
1.97
1.56
1.21
0.87
0.53
0.15
-0.28
-0.76
-1.27
-1.78
-2.23
-2.59
-2.88
-3.18
-3.59
-4.21
-5.08
-6.14
-7.23
-8.16
-8.75
-8.86
-8.46
-7.58
-6.33
-4.86
-3.28
-1.70
-0.21
1.15
2.38
3.46
4.38
5.08
5.49
5.57
5.32
4.83
4.25
3.77
3.55
3.64
4.00
4.44
4.77
4.83
4.62
4.22
3.77
3.39
3.12
2.91
2.65
2.29
1.83
1.34
0.91
0.55
0.21
-0.20
-0.73
-1.37
-2.01
-2.54
-2.88
-3.05
-3.15
-3.33
-3.69
-4.30
-5.13
-6.11
-7.15
-8.13
-8.93
-9.38
-9.33
-8.67
-7.38
-5.60
-3.58
-1.63
-0.01
1.19
1.97
2.48
2.86
3.22
3.57
3.87
4.06
4.14
4.14
4.11
4.10
4.12
4.17
4.21
4.23
4.19
4.09
3.94
3.73
3.48
3.16
2.79
2.36
1.92
1.50
1.14
0.80
0.43
-0.08
-0.76
-1.58
-2.39
-3.02
-3.36
-3.45
-3.40
-3.42
-3.65
-4.17
-4.91
-5.74
-6.51
-7.06
-7.28
-7.12
-6.58
-5.74
-4.73
-3.64
-2.55
-1.46
-0.39
0.61
1.45
2.00
2.25
2.25
2.20
2.26
2.52
2.95
3.41
3.75
3.90
3.89
3.82
3.76
3.76
3.76
3.68
3.49
3.16
2.74
2.26
1.76
1.26
0.77
0.29
-0.15
-0.57
-0.95
-1.34
-1.73
-2.12
-2.50
-2.88
-3.26
-3.68
-4.16
-4.73
-5.40
-6.15
-6.94
-7.73
-8.45
-9.04
-9.43
-9.60
-9.50
-9.06
-8.23
-7.02
-5.49
-3.83
-2.23
-0.86
0.24
1.13
1.91
2.68
3.40
4.02
4.43
4.63
4.68
4.68
4.71
4.76
4.82
4.85
4.87
4.92
5.04
5.22
5.37
5.41
5.23
4.78
4.10
3.29
2.51
1.87
1.44
1.17
0.95
0.65
0.19
-0.47
-1.26
-2.07
-2.84
-3.51
-4.08
-4.57
-5.02
-5.45
-5.88
-6.39
-7.00
-7.76
-8.63
-9.49
-10.13
-10.33
-9.89
-8.75
-7.04
-4.98
-2.88
-1.00
0.54
1.75
2.73
3.55
4.25
4.77
5.05
5.06
4.86
4.59
4.38
4.35
4.52
4.83
5.20
5.53
5.78
5.95
6.05
6.10
6.09
5.98
5.77
5.41
4.93
4.35
3.73
3.09
2.48
1.91
1.37
0.88
0.43
0.05
-0.27
-0.55
-0.81
-1.09
-1.40
-1.75
-2.17
-2.68
-3.33
-4.13
-5.10
-6.16
-7.24
-8.21
-8.94
-9.32
-9.26
-8.69
-7.60
-6.08
-4.28
-2.43
-0.77
0.56
1.54
2.26
2.86
3.46
4.08
4.65
5.10
5.36
5.43
5.38
5.29
5.20
5.14
5.11
5.10
5.12
5.13
5.11
5.01
4.81
4.53
4.23
3.95
3.71
3.46
3.15
2.75
2.33
1.95
1.63
1.32
0.91
0.28
-0.58
-1.57
-2.53
-3.32
-3.90
-4.35
-4.76
-5.25
-5.85
-6.49
-7.04
-7.34
-7.27
-6.76
-5.83
-4.58
-3.18
-1.79
-0.54
0.50
1.36
2.08
2.72
3.32
3.87
4.31
4.60
4.70
4.63
4.47
4.32
4.28
4.41
4.66
4.94
5.14
5.20
5.12
4.94
4.71
4.44
4.10
3.63
2.99
2.23
1.46
0.86
0.53
0.47
0.54
0.53
0.26
-0.35
-1.20
-2.14
-2.97
-3.56
-3.88
-4.02
-4.08
-4.20
-4.54
-5.17
-6.13
-7.31
-8.46
-9.30
-9.55
-9.07
-7.91
-6.26
-4.40
-2.58
-0.98
0.35
1.42
2.31
3.05
3.66
4.15
4.53
4.86
5.14
5.42
5.65
5.81
5.87
5.83
5.71
5.51
5.25
4.96
4.67
4.45
4.35
4.33
4.32
4.18
3.78
3.14
2.35
1.62
1.07
0.74
0.55
0.35
0.08
-0.29
-0.70
-1.10
-1.50
-1.91
-2.37
-2.89
-3.41
-3.92
-4.42
-4.98
-5.71
-6.65
-7.71
-8.68
-9.28
-9.31
-8.70
-7.50
-5.91
-4.13
-2.32
-0.63
0.83
1.99
2.79
3.25
3.41
3.37
3.24
3.09
3.01
3.06
3.27
3.66
4.18
4.73
5.17
5.40
5.38
5.18
4.89
4.63
4.44
4.33
4.23
4.09
3.84
3.47
3.04
2.62
2.27
1.98
1.66
1.22
0.59
-0.18
-0.98
-1.67
-2.17
-2.53
-2.88
-3.39
-4.20
-5.30
-6.53
-7.66
-8.43
-8.67
-8.35
-7.53
-6.37
-5.02
-3.63
-2.29
-1.07
-0.07
0.66
1.05
1.13
1.00
0.83
0.76
0.88
1.17
1.57
2.00
2.40
2.76
3.07
3.31
3.43
3.40
3.19
2.84
2.43
2.03
1.69
1.41
1.14
0.84
0.45
-0.05
-0.62
-1.23
-1.82
-2.36
-2.81
-3.20
-3.58
-4.00
-4.55
-5.26
-6.11
-7.00
-7.79
-8.31
-8.41
-8.04
-7.21
-6.01
-4.57
-3.00
-1.40
0.18
1.65
2.95
4.02
4.81
5.28
5.46
5.38
5.09
4.64
4.08
3.47
2.92
2.50
2.28
2.27
2.39
2.55
2.64
2.61
2.47
2.25
1.97
1.64
1.27
0.86
0.47
0.12
-0.16
-0.42
-0.72
-1.11
-1.59
-2.10
-2.60
-3.06
-3.49
-3.96
-4.50
-5.12
-5.79
-6.47
-7.08
-7.52
-7.66
-7.35
-6.53
-5.26
-3.72
-2.19
-0.90
0.05
0.69
1.15
1.55
1.92
2.24
2.46
2.58
2.68
2.87
3.23
3.74
4.29
4.72
4.93
4.91
4.74
4.57
4.48
4.49
4.50
4.41
4.16
3.77
3.35
2.94
2.52
1.99
1.24
0.27
-0.83
-1.86
-2.64
-3.13
-3.43
-3.70
-4.12
-4.75
-5.54
-6.40
-7.25
-8.01
-8.59
-8.90
-8.80
-8.19
-7.06
-5.51
-3.75
-2.00
-0.42
0.91
2.01
2.93
3.74
4.43
4.99
5.33
5.45
5.36
5.15
4.94
4.82
4.84
4.98
5.21
5.45
5.62
5.68
5.58
5.30
4.88
4.39
3.90
3.44
2.98
2.42
1.72
0.91
0.12
-0.52
-0.95
-1.21
-1.46
-1.83
-2.39
-3.14
-4.00
-4.92
-5.82
-6.63
-7.25
-7.52
-7.32
-6.59
-5.43
-4.00
-2.54
-1.18
0.01
1.07
2.08
3.08
4.05
4.87
5.41
5.57
5.33
4.83
4.33
4.06
4.15
4.54
5.07
5.54
5.82
5.89
5.77
5.47
4.94
4.19
3.28
2.38
1.68
1.30
1.18
1.16
1.04
0.69
0.14
-0.50
-1.09
-1.59
-1.99
-2.35
-2.73
-3.18
-3.76
-4.48
-5.33
-6.29
-7.23
-8.04
-8.55
-8.63
-8.21
-7.25
-5.84
-4.13
-2.32
-0.62
0.84
2.04
3.01
3.82
4.52
5.06
5.37
5.40
5.19
4.89
4.70
4.74
5.02
5.41
5.73
5.85
5.74
5.48
5.21
5.02
4.90
4.75
4.46
3.98
3.33
2.59
1.87
1.25
0.77
0.42
0.17
-0.04
-0.31
-0.73
-1.34
-2.16
-3.11
-4.07
-4.89
-5.51
-5.93
-6.26
-6.63
-7.10
-7.65
-8.16
-8.46
-8.37
-7.78
-6.71
-5.29
-3.70
-2.13
-0.69
0.56
1.63
2.51
3.21
3.72
4.04
4.20
4.25
4.26
4.28
4.34
4.38
4.38
4.30
4.17
4.06
4.05
4.18
4.40
4.60
4.63
4.42
3.97
3.37
2.77
2.25
1.83
1.46
1.08
0.68
0.28
-0.11
-0.48
-0.88
-1.36
-1.93
-2.53
-3.06
-3.47
-3.71
-3.84
-3.99
-4.30
-4.85
-5.65
-6.59
-7.47
-8.07
-8.23
-7.84
-6.94
-5.62
-4.07
-2.45
-0.95
0.32
1.31
2.03
2.57
3.01
3.40
3.75
4.00
4.09
4.02
3.83
3.63
3.51
3.53
3.72
4.02
4.33
4.55
4.58
4.41
4.05
3.58
3.05
2.51
2.02
1.59
1.26
1.07
0.98
0.87
0.61
0.09
-0.72
-1.69
-2.64
-3.43
-3.99
-4.43
-4.91
-5.59
-6.49
-7.52
-8.48
-9.13
-9.29
-8.85
-7.84
-6.37
-4.60
-2.73
-0.96
0.55
1.70
2.44
2.83
2.98
3.01
3.05
3.13
3.27
3.43
3.58
3.69
3.73
3.68
3.49
3.16
2.71
2.26
1.91
1.77
1.81
1.93
1.93
1.64
1.05
0.26
-0.52
-1.08
-1.34
-1.37
-1.31
-1.34
-1.55
-1.94
-2.46
-3.03
-3.60
-4.11
-4.53
-4.85
-5.13
-5.45
-5.97
-6.77
-7.83
-8.97
-9.88
-10.28
-9.97
-8.97
-7.44
-5.69
-3.98
-2.50
-1.28
-0.22
0.78
1.75
2.66
3.37
3.79
3.89
3.80
3.69
3.75
4.08
4.66
5.39
6.13
6.77
7.24
7.51
7.59
7.50
7.32
7.12
6.95
6.84
6.75
6.65
6.53
6.41
6.38
6.47
6.70
6.95
7.12
7.14
7.04
6.94
6.99
7.34
8.04
9.06
10.34
11.78
13.32
14.87
16.38
17.81
19.23
20.79
22.71
25.22
28.50
32.58
37.38
42.71
48.40
54.35
60.56
67.01
73.66
80.40
87.06
93.56
100.00
106.67
113.81
121.47
129.22
136.14
140.88
141.93
137.84
127.51
110.39
86.65
57.34
24.23
-10.39
-44.13
-75.05
-101.92
-124.40
-142.75
-157.57
-169.52
-179.09
-186.69
-192.64
-197.25
-200.70
-202.94
-203.62
-202.13
-197.94
-190.93
-181.61
-171.13
-160.88
-151.99
-144.82
-138.89
-133.09
-126.22
-117.51
-106.91
-95.10
-83.18
-72.28
-63.27
-56.51
-51.76
-48.24
-44.77
-40.07
-33.08
-23.27
-10.68
4.10
20.16
36.46
51.94
65.67
76.93
85.30
90.75
93.62
94.54
94.13
92.90
91.11
88.84
86.09
82.93
79.46
75.85
72.26
68.81
65.60
62.67
60.00
57.52
55.10
52.52
49.61
46.27
42.49
38.43
34.32
30.39
26.82
23.65
20.85
18.33
16.11
14.35
13.30
13.19
14.15
16.02
18.47
21.07
23.41
25.31
26.73
27.73
28.38
28.58
28.15
26.89
24.69
21.61
17.85
13.70
9.44
5.32
1.54
-1.70
-4.15
-5.57
-5.80
-4.84
-2.83
0.01
3.49
7.47
11.95
16.99
22.52
28.12
33.09
36.65
38.17
37.48
34.72
30.30
24.77
18.61
12.03
5.16
-1.75
-8.33
-14.00
-18.52
-21.92
-24.38
-26.19
-27.88
-29.82
-32.14
-34.72
-36.97
-38.72
-39.87
-40.26
-39.76
-38.49
-36.58
-34.15
-31.41
-28.43
-26.04
-25.19
-26.49
-27.48
-26.01
-21.00
-13.14
-6.53
-1.73
1.24
2.32
2.39
1.54
-0.62
-4.37
-9.66
-16.00
-22.19
-27.49
-31.43
-33.69
-34.32
-33.81
-32.73
-31.54
-30.45
-29.15
-27.62
-25.88
-23.90
-21.70
-19.31
-16.65
-13.51
-9.68
-4.91
0.53
6.09
11.17
15.31
18.19
19.75
20.11
19.49
18.19
16.44
14.44
12.36
10.33
8.35
6.27
3.96
1.40
-1.18
-3.37
-4.68
-4.75
-3.52
-1.29
1.41
4.00
6.06
7.38
7.91
7.63
6.50
4.48
1.69
-1.50
-4.51
-6.68
-7.56
-6.99
-5.16
-2.35
1.15
5.24
9.87
14.94
20.16
25.06
29.13
32.05
33.78
34.61
34.95
35.18
35.50
35.90
36.26
36.44
36.39
36.15
35.78
35.23
34.34
32.91
30.82
28.15
25.22
22.44
20.15
18.39
16.90
15.28
13.21
10.70
8.02
5.61
3.79
2.54
1.59
0.53
-0.94
-2.84
-4.96
-6.95
-8.51
-9.43
-9.61
-9.01
-7.66
-5.67
-3.28
-0.88
1.10
2.31
2.56
1.90
0.58
-1.05
-2.64
-3.91
-4.71
-4.96
-4.66
-3.86
-2.68
-1.27
0.19
1.57
2.79
3.83
4.74
5.54
6.14
6.40
6.07
4.91
2.75
-0.47
-4.67
-9.68
-15.26
-21.16
-27.22
-33.31
-39.38
-45.38
-51.11
-56.23
-60.19
-62.45
-62.59
-60.53
-56.55
-51.15
-44.91
-38.28
-31.55
-24.87
-18.44
-12.44
-7.11
-2.63
1.01
3.96
6.46
8.67
10.61
12.16
13.19
13.60
13.48
13.04
12.53
12.13
11.85
11.51
10.87
9.68
7.85
5.46
2.69
-0.26
-3.24
-6.20
-9.17
-12.15
-15.12
-17.94
-20.40
-22.22
-23.10
-22.77
-21.10
-18.11
-14.00
-9.16
-4.06
0.84
5.21
8.93
12.15
15.19
18.41
21.98
25.72
29.13
31.60
32.71
32.44
31.17
29.47
27.78
26.29
24.94
23.61
22.29
21.05
20.07
19.38
18.93
18.55
18.01
17.16
15.88
14.11
11.88
9.35
6.93
5.10
4.36
4.90
6.55
8.75
10.78
12.11
12.64
12.86
13.57
15.54
19.06
23.69
28.41
32.04
33.83
33.81
32.83
32.18
33.03
36.19
41.92
49.85
58.76
66.40
69.63
65.33
51.70
29.55
2.63
-23.43
-43.29
-54.01
-56.09
-52.83
-48.45
-46.17
-47.12
-50.66
-55.39
-60.20
-64.57
-68.30
-71.02
-72.03
-70.47
-65.79
-58.25
-48.94
-39.45
-31.38
-25.80
-22.91
-22.06
-22.03
-21.52
-19.70
-16.41
-12.21
-8.00
-4.55
-2.13
-0.46
1.07
3.07
5.83
9.25
12.87
16.18
18.75
20.46
21.37
21.68
21.57
21.13
20.43
19.53
18.56
17.66
17.00
16.62
16.51
16.54
16.56
16.46
16.23
15.97
15.77
15.73
15.83
15.93
15.85
15.39
14.46
13.09
11.44
9.68
8.01
6.54
5.36
4.53
4.07
3.97
4.17
4.53
4.91
5.21
5.40
5.54
5.76
6.17
6.76
7.41
7.86
7.80
6.99
5.34
2.97
0.19
-2.61
-5.09
-7.07
-8.60
-9.96
-11.48
-13.45
-15.94
-18.81
-21.72
-24.22
-25.97
-26.78
-26.64
-25.70
-24.14
-22.14
-19.82
-17.25
-14.53
-11.74
-9.02
-6.48
-4.24
-2.38
-0.92
0.15
0.90
1.39
1.69
1.84
1.83
1.65
1.35
1.00
0.70
0.52
0.49
0.50
0.46
0.31
0.09
-0.04
0.10
0.61
1.41
2.31
3.03
3.37
3.31
2.94
2.47
2.04
1.71
1.46
1.25
1.06
0.96
0.98
1.13
1.35
1.53
1.59
1.53
1.39
1.24
1.15
1.10
1.08
1.05
1.01
0.96
0.90
0.79
0.55
0.18
-0.31
-0.81
-1.16
-1.21
-0.89
-0.20
0.78
1.89
2.96
3.83
4.36
4.53
4.35
3.95
3.50
3.11
2.88
2.76
2.67
2.53
2.29
1.99
1.74
1.63
1.71
1.92
2.16
2.27
2.17
1.85
1.41
0.93
0.50
0.15
-0.15
-0.47
-0.82
-1.19
-1.52
-1.70
-1.64
-1.29
-0.64
0.24
1.25
2.23
3.04
3.60
3.85
3.80
3.51
3.05
2.52
1.98
1.50
1.10
0.83
0.66
0.62
0.69
0.85
1.09
1.34
1.52
1.56
1.44
1.18
0.85
0.53
0.26
0.05
-0.17
-0.45
-0.85
-1.33
-1.81
-2.14
-2.21
-1.97
-1.47
-0.82
-0.20
0.30
0.65
0.90
1.09
1.27
1.41
1.48
1.48
1.44
1.40
1.38
1.36
1.26
1.03
0.69
0.31
0.01
-0.12
-0.08
0.06
0.16
0.13
-0.07
-0.40
-0.76
-1.05
-1.19
-1.21
-1.18
-1.22
-1.41
-1.73
-2.06
-2.21
-2.01
-1.40
-0.47
0.57
1.48
2.09
2.39
2.43
2.31
2.09
1.79
1.41
1.00
0.67
0.49
0.49
0.59
0.66
0.62
0.46
0.30
0.24
0.32
0.50
0.71
0.86
0.93
0.94
0.91
0.85
0.78
0.72
0.73
0.85
1.07
1.28
1.36
1.18
0.78
0.30
-0.04
-0.01
0.54
1.62
3.14
4.94
6.85
8.72
10.48
12.09
13.53
14.77
15.76
16.44
16.74
16.68
16.33
15.84
15.29
14.71
14.02
13.10
11.84
10.25
8.45
6.61
4.93
3.48
2.24
1.09
-0.04
-1.19
-2.29
-3.26
-4.00
-4.52
-4.84
-4.99
-4.99
-4.85
-4.62
-4.36
-4.23
-4.37
-4.86
-5.67
-6.63
-7.49
-7.98
-7.93
-7.29
-6.17
-4.84
-3.58
-2.72
-2.44
-2.80
-3.69
-4.87
-6.09
-7.14
-7.96
-8.60
-9.16
-9.75
-10.35
-10.88
-11.25
-11.42
-11.43
-11.36
-11.29
-11.20
-11.03
-10.73
-10.29
-9.76
-9.23
-8.75
-8.32
-7.88
-7.36
-6.66
-5.75
-4.63
-3.40
-2.17
-1.09
-0.29
0.14
0.20
-0.04
-0.48
-0.99
-1.48
-1.86
-2.11
-2.23
-2.30
-2.47
-2.86
-3.55
-4.48
-5.45
-6.22
-6.54
-6.30
-5.52
-4.36
-3.02
-1.68
-0.45
0.63
1.54
2.27
2.81
3.22
3.55
3.90
4.34
4.90
5.55
6.23
6.89
7.54
8.23
9.03
9.96
10.95
11.91
12.74
13.32
13.61
13.60
13.35
12.93
12.44
11.98
11.59
11.27
10.97
10.63
10.20
9.61
8.82
7.82
6.65
5.41
4.27
3.43
3.02
3.08
3.58
4.41
5.50
6.76
8.08
9.32
10.28
10.78
10.72
10.14
9.20
8.07
6.84
5.52
4.03
2.29
0.30
-1.85
-4.06
-6.22
-8.25
-10.13
-11.79
-13.20
-14.32
-15.21
-15.95
-16.67
-17.45
-18.27
-19.02
-19.54
-19.73
-19.61
-19.27
-18.88
-18.54
-18.32
-18.20
-18.17
-18.16
-18.08
-17.80
-17.12
-15.90
-14.11
-11.88
-9.48
-7.22
-5.30
-3.77
-2.56
-1.53
-0.62
0.17
0.80
1.24
1.60
2.03
2.65
3.52
4.48
5.32
5.79
5.75
5.19
4.24
3.11
1.98
1.02
0.28
-0.29
-0.79
-1.36
-2.08
-2.97
-3.96
-4.94
-5.83
-6.58
-7.18
-7.63
-7.94
-8.11
-8.17
-8.18
-8.23
-8.42
-8.83
-9.45
-10.22
-11.02
-11.70
-12.09
-12.04
-11.42
-10.12
-8.15
-5.55
-2.50
0.85
4.32
7.79
11.11
14.12
16.65
18.52
19.65
20.10
20.01
19.60
19.05
18.47
17.88
17.21
16.43
15.51
14.43
13.16
11.70
10.06
8.30
6.56
4.99
3.65
2.55
1.56
0.53
-0.67
-2.02
-3.41
-4.64
-5.58
-6.17
-6.54
-6.88
-7.35
-7.96
-8.60
-9.02
-9.00
-8.47
-7.52
-6.36
-5.26
-4.41
-3.91
-3.77
-3.94
-4.30
-4.72
-5.02
-5.03
-4.57
-3.58
-2.09
-0.23
1.76
3.67
5.30
6.55
7.44
8.06
8.52
8.91
9.23
9.44
9.49
9.35
9.07
8.71
8.34
7.97
7.56
7.08
6.49
5.85
5.21
4.64
4.16
3.75
3.34
2.89
2.39
1.91
1.48
1.17
0.97
0.84
0.73
0.59
0.44
0.33
0.30
0.37
0.47
0.50
0.31
-0.17
-0.91
-1.77
-2.56
-3.12
-3.41
-3.53
-3.66
-3.98
-4.59
-5.47
-6.50
-7.51
-8.37
-8.96
-9.14
-8.84
-8.00
-6.70
-5.12
-3.50
-2.06
-0.91
-0.02
0.69
1.26
1.68
1.89
1.84
1.58
1.24
0.95
0.80
0.80
0.90
1.07
1.28
1.51
1.71
1.82
1.76
1.51
1.13
0.73
0.44
0.31
0.34
0.45
0.57
0.67
0.70
0.66
0.52
0.29
-0.02
-0.32
-0.54
-0.60
-0.50
-0.29
-0.08
0.01
-0.06
-0.30
-0.63
-0.95
-1.19
-1.35
-1.47
-1.65
-1.94
-2.38
-2.91
-3.44
-3.88
-4.14
-4.14
-3.83
-3.16
-2.14
-0.82
0.65
2.06
3.21
3.98
4.39
4.56
4.70
4.93
5.29
5.69
6.00
6.13
6.08
5.94
5.83
5.83
5.91
5.97
5.90
5.62
5.13
4.49
3.80
3.12
2.50
1.96
1.53
1.18
0.90
0.68
0.51
0.38
0.29
0.23
0.16
0.04
-0.15
-0.43
-0.75
-1.03
-1.23
-1.33
-1.38
-1.47
-1.70
-2.09
-2.61
-3.15
-3.64
-4.03
-4.38
-4.78
-5.31
-5.95
-6.63
-7.19
-7.48
-7.39
-6.90
-6.06
-4.97
-3.75
-2.55
-1.49
-0.63
0.01
0.48
0.83
1.11
1.29
1.34
1.24
1.03
0.81
0.73
0.90
1.28
1.78
2.23
2.50
2.60
2.65
2.85
3.37
4.25
5.37
6.54
7.52
8.22
8.66
8.96
9.25
9.56
9.83
9.90
9.68
9.13
8.36
7.49
6.63
5.80
4.94
4.04
3.14
2.33
1.69
1.19
0.70
0.03
-0.95
-2.23
-3.69
-5.10
-6.29
-7.23
-8.00
-8.75
-9.60
-10.59
-11.70
-12.87
-14.06
-15.21
-16.24
-16.97
-17.17
-16.66
-15.36
-13.41
-11.10
-8.78
-6.71
-5.01
-3.62
-2.43
-1.32
-0.26
0.70
1.53
2.19
2.72
3.18
3.65
4.15
4.66
5.16
5.61
6.02
6.41
6.78
7.06
7.20
7.15
6.96
6.76
6.65
6.70
6.87
7.01
7.02
6.81
6.43
5.99
5.59
5.27
5.00
4.71
4.38
4.00
3.67
3.48
3.46
3.50
3.47
3.20
2.60
1.71
0.68
-0.31
-1.11
-1.69
-2.13
-2.54
-3.04
-3.64
-4.27
-4.80
-5.18
-5.43
-5.67
-6.06
-6.65
-7.38
-8.00
-8.20
-7.72
-6.44
-4.48
-2.13
0.22
2.23
3.67
4.49
4.78
4.71
4.48
4.19
3.89
3.60
3.31
3.07
2.94
2.95
3.10
3.33
3.54
3.66
3.68
3.63
3.56
3.51
3.48
3.43
3.34
3.23
3.15
3.16
3.29
3.50
3.71
3.83
3.79
3.61
3.32
3.02
2.74
2.46
2.13
1.67
1.06
0.30
-0.53
-1.34
-2.04
-2.61
-3.05
-3.40
-3.71
-3.98
-4.18
-4.26
-4.20
-4.09
-4.09
-4.37
-5.07
-6.15
-7.43
-8.61
-9.43
-9.71
-9.46
-8.79
-7.88
-6.90
-5.94
-5.08
-4.35
-3.81
-3.49
-3.45
-3.67
-4.10
-4.63
-5.13
-5.51
-5.68
-5.65
-5.50
-5.32
-5.21
-5.19
-5.27
-5.44
-5.68
-5.91
-6.08
-6.13
-6.02
-5.78
-5.46
-5.13
-4.91
-4.84
-4.82
-4.73
-4.47
-3.98
-3.29
-2.44
-1.56
-0.85
-0.42
-0.22
-0.01
0.57
1.97
4.50
8.28
13.29
18.78
23.64
27.14
29.28
30.47
30.97
30.51
28.51
24.42
18.11
10.11
1.43
-6.83
-13.84
-19.13
-22.66
-24.57
-25.18
-24.93
-24.26
-23.53
-22.88
-22.18
-21.03
-19.02
-15.93
-11.90
-7.63
-4.10
-2.32
-2.93
-5.87
-9.89
-12.99
-12.78
-7.45
3.25
17.62
32.40
43.63
48.51
46.68
39.97
31.28
23.17
16.82
12.05
7.96
3.94
0.15
-2.75
-4.21
-4.29
-3.70
-3.46
-4.32
-6.43
-9.21
-11.69
-13.03
-12.96
-11.87
-10.52
-9.69
-9.78
-10.62
-11.66
-12.20
-11.82
-10.52
-8.70
-6.90
-5.43
-4.33
-3.41
-2.41
-1.14
0.33
1.79
2.94
3.59
3.73
3.46
2.97
2.45
2.04
1.82
1.78
1.92
2.20
2.52
2.79
2.92
2.85
2.60
2.20
1.71
1.19
0.66
0.13
-0.42
-0.98
-1.54
-2.04
-2.42
-2.62
-2.61
-2.41
-2.11
-1.84
-1.67
-1.68
-1.87
-2.21
-2.67
-3.25
-3.98
-4.86
-5.85
-6.83
-7.67
-8.29
-8.70
-9.00
-9.27
-9.56
-9.83
-10.14
-10.41
-10.55
-10.44
-9.99
-9.13
-7.85
-6.24
-4.43
-2.65
-1.05
0.21
1.08
1.59
1.79
1.77
1.63
1.44
1.27
1.20
1.28
1.51
1.83
2.12
2.25
2.11
1.67
1.01
0.26
-0.43
-0.99
-1.39
-1.70
-1.95
-2.15
-2.29
-2.29
-2.11
-1.75
-1.29
-0.87
-0.61
-0.60
-0.85
-1.28
-1.77
-2.15
-2.30
-2.13
-1.61
-0.79
0.18
1.15
1.97
2.60
3.09
3.62
4.35
5.37
6.63
7.97
9.16
10.09
10.74
11.27
11.88
12.75
13.96
15.45
17.11
18.75
20.23
21.41
22.17
22.45
22.22
21.54
20.57
19.50
18.50
17.63
16.83
15.94
14.78
13.25
11.37
9.25
7.03
4.81
2.65
0.53
-1.57
-3.60
-5.47
-7.00
-8.03
-8.42
-8.16
-7.38
-6.26
-5.02
-3.83
-2.76
-1.79
-0.88
-0.03
0.69
1.13
1.18
0.77
-0.00
-0.98
-1.96
-2.81
-3.47
-3.96
-4.31
-4.52
-4.55
-4.32
-3.82
-3.11
-2.31
-1.54
-0.89
-0.34
0.16
0.62
0.99
1.13
0.92
0.29
-0.69
-1.88
-3.04
-3.99
-4.55
-4.62
-4.14
-3.14
-1.75
-0.16
1.43
2.88
4.20
5.46
6.76
8.14
9.51
10.70
11.57
12.02
12.06
11.78
11.31
10.77
10.21
9.64
9.03
8.32
7.47
6.44
5.22
3.81
2.21
0.42
-1.51
-3.47
-5.29
-6.81
-7.90
-8.53
-8.84
-9.04
-9.34
-9.88
-10.65
-11.53
-12.34
-12.90
-13.06
-12.75
-11.95
-10.77
-9.35
-7.93
-6.69
-5.76
-5.13
-4.65
-4.13
-3.38
-2.31
-0.98
0.49
1.92
3.11
3.95
4.37
4.38
4.08
3.63
3.21
2.92
2.82
2.80
2.70
2.34
1.55
0.32
-1.23
-2.94
-4.59
-6.05
-7.28
-8.31
-9.18
-9.93
-10.59
-11.17
-11.75
-12.42
-13.24
-14.20
-15.16
-15.88
-16.17
-15.91
-15.17
-14.08
-12.81
-11.45
-10.05
-8.62
-7.22
-5.93
-4.85
-4.01
-3.37
-2.81
-2.17
-1.36
-0.35
0.80
1.97
3.03
3.84
4.32
4.39
4.08
3.45
2.65
1.87
1.27
0.93
0.78
0.68
0.46
-0.01
-0.73
-1.58
-2.37
-2.97
-3.28
-3.31
-3.10
-2.67
-2.08
-1.38
-0.68
-0.09
0.22
0.20
-0.14
-0.65
-1.15
-1.45
-1.47
-1.25
-0.88
-0.45
0.04
0.66
1.46
2.47
3.58
4.66
5.60
6.38
7.05
7.68
8.27
8.75
9.01
9.02
8.84
8.65
8.60
8.74
9.01
9.22
9.24
9.01
8.60
8.14
7.77
7.54
7.41
7.31
7.16
6.96
6.73
6.55
6.47
6.52
6.69
6.90
7.04
7.00
6.74
6.34
5.93
5.69
5.75
6.11
6.64
7.16
7.52
7.68
7.70
7.70
7.74
7.90
8.17
8.61
9.27
10.23
11.54
13.18
15.04
16.96
18.80
20.50
22.11
23.73
25.41
27.08
28.46
29.16
28.78
27.12
24.29
20.71
16.99
13.66
11.07
9.26
8.04
7.14
6.35
5.60
4.91
4.32
3.81
3.25
2.45
1.33
-0.11
-1.68
-3.17
-4.47
-5.55
-6.51
-7.46
-8.39
-9.19
-9.75
-10.10
-10.48
-11.25
-12.69
-14.86
-17.50
-20.18
-22.52
-24.29
-25.51
-26.28
-26.69
-26.68
-26.14
-24.98
-23.25
-21.13
-18.95
-16.99
-15.48
-14.44
-13.74
-13.18
-12.51
-11.58
-10.36
-8.94
-7.49
-6.16
-5.09
-4.33
-3.86
-3.63
-3.51
-3.36
-3.04
-2.51
-1.77
-0.91
-0.08
0.62
1.11
1.39
1.48
1.42
1.27
1.04
0.74
0.38
-0.07
-0.58
-1.10
-1.56
-1.88
-2.03
-2.09
-2.21
-2.51
-3.10
-3.96
-5.02
-6.18
-7.33
-8.34
-9.14
-9.63
-9.74
-9.46
-8.85
-8.06
-7.21
-6.39
-5.61
-4.79
-3.86
-2.83
-1.78
-0.84
-0.13
0.36
0.70
1.06
1.55
2.23
3.02
3.78
4.32
4.56
4.51
4.28
4.04
3.94
4.00
4.18
4.33
4.34
4.16
3.82
3.43
3.08
2.82
2.65
2.54
2.45
2.35
2.24
2.11
2.00
1.90
1.85
1.81
1.76
1.65
1.45
1.14
0.71
0.23
-0.27
-0.73
-1.13
-1.49
-1.84
-2.23
-2.74
-3.36
-4.07
-4.79
-5.43
-5.96
-6.38
-6.71
-6.96
-7.07
-6.95
-6.53
-5.81
-4.90
-3.94
-3.10
-2.49
-2.09
-1.84
-1.64
-1.40
-1.08
-0.70
-0.32
0.01
0.23
0.34
0.38
0.45
0.63
0.93
1.28
1.52
1.55
1.32
0.96
0.64
0.50
0.57
0.76
0.91
0.93
0.82
0.66
0.52
0.42
0.31
0.16
-0.05
-0.24
-0.36
-0.39
-0.43
-0.61
-1.02
-1.67
-2.46
-3.21
-3.78
-4.13
-4.30
-4.45
-4.69
-5.07
-5.53
-5.93
-6.14
-6.09
-5.81
-5.38
-4.87
-4.28
-3.54
-2.59
-1.46
-0.29
0.71
1.36
1.60
1.51
1.22
0.89
0.64
0.52
0.56
0.75
1.05
1.42
1.81
2.16
2.45
2.66
2.80
2.88
2.94
3.02
3.17
3.43
3.79
4.18
4.47
4.52
4.24
3.62
2.77
1.86
1.06
0.50
0.19
0.02
-0.17
-0.49
-0.99
-1.60
-2.22
-2.78
-3.30
-3.83
-4.44
-5.11
-5.78
-6.35
-6.80
-7.18
-7.61
-8.17
-8.88
-9.64
-10.29
-10.63
-10.56
-10.08
-9.31
-8.41
-7.53
-6.73
-5.98
-5.19
-4.28
-3.27
-2.22
-1.21
-0.25
0.79
2.03
3.54
5.24
6.91
8.29
9.20
9.63
9.70
9.57
9.31
8.90
8.28
7.44
6.47
5.52
4.72
4.12
3.64
3.14
2.55
1.85
1.14
0.56
0.20
0.07
0.05
-0.03
-0.31
-0.86
-1.58
-2.28
-2.74
-2.87
-2.72
-2.47
-2.36
-2.52
-2.96
-3.54
-4.09
-4.52
-4.81
-5.03
-5.21
-5.30
-5.21
-4.82
-4.15
-3.29
-2.41
-1.63
-0.97
-0.38
0.23
0.90
1.57
2.16
2.59
2.83
2.95
3.06
3.21
3.43
3.65
3.80
3.82
3.73
3.60
3.48
3.42
3.40
3.37
3.30
3.17
3.03
2.93
2.90
2.91
2.91
2.88
2.85
2.91
3.15
3.62
4.27
4.96
5.54
5.86
5.86
5.57
5.04
4.41
3.76
3.19
2.75
2.49
2.42
2.57
2.91
3.38
3.94
4.57
5.32
6.27
7.50
9.01
10.68
12.27
13.54
14.29
14.52
14.34
14.01
13.83
14.01
14.65
15.69
16.97
18.27
19.33
19.99
20.17
19.91
19.42
18.99
18.97
19.54
20.64
21.91
22.85
23.00
22.28
21.04
19.94
19.64
20.44
22.18
24.28
26.13
27.33
27.84
27.94
27.96
28.15
28.57
29.13
29.67
29.98
29.82
28.87
26.83
23.46
18.81
13.21
7.23
1.55
-3.26
-6.92
-9.48
-11.29
-12.93
-14.96
-17.82
-21.56
-25.89
-30.14
-33.59
-35.63
-36.04
-34.97
-32.89
-30.34
-27.75
-25.41
-23.49
-22.07
-21.24
-21.05
-21.51
-22.53
-24.02
-25.86
-28.01
-30.45
-33.16
-36.07
-39.01
-41.74
-43.95
-45.41
-45.92
-45.39
-43.77
-41.03
-37.09
-31.85
-25.28
-17.49
-8.86
0.00
8.40
15.69
21.46
25.47
27.71
28.28
27.43
25.59
23.36
21.40
20.30
20.36
21.46
23.10
24.62
25.54
25.71
25.38
24.98
24.83
24.92
24.86
24.13
22.33
19.44
15.78
11.85
8.09
4.69
1.62
-1.34
-4.35
-7.48
-10.69
-13.88
-16.92
-19.61
-21.75
-23.13
-23.63
-23.35
-22.58
-21.82
-21.53
-22.05
-23.47
-25.63
-28.19
-30.80
-33.18
-35.19
-36.85
-38.19
-39.22
-39.83
-39.77
-38.68
-36.19
-32.00
-26.04
-18.50
-9.86
-0.84
7.81
15.42
21.56
26.07
28.98
30.40
30.41
29.05
26.44
22.89
19.00
15.56
13.34
12.89
14.37
17.57
22.04
27.27
32.68
37.67
41.62
43.98
44.44
42.94
39.62
34.68
28.28
20.54
11.66
2.01
-7.83
-17.16
-25.19
-31.26
-34.90
-36.02
-35.00
-32.59
-29.64
-26.68
-23.62
-19.85
-14.72
-8.13
-0.89
5.57
9.81
11.04
9.43
5.86
1.34
-3.37
-7.85
-11.87
-15.24
-18.00
-20.64
-24.27
-30.11
-38.47
-47.99
-55.55
-57.34
-50.81
-36.30
-17.40
0.40
12.12
15.38
11.15
3.12
-4.24
-7.48
-5.48
0.66
8.37
15.02
19.19
21.19
23.03
27.45
36.65
51.05
68.76
85.87
97.80
100.60
91.62
69.87
36.24
-6.01
-50.79
-90.39
-118.27
-132.46
-137.49
-142.83
-157.96
-186.72
-224.07
-257.50
-272.68
-260.10
-219.29
-158.48
-90.45
-27.11
24.08
60.50
82.94
93.24
93.32
85.16
71.36
55.43
41.47
32.98
31.68
36.84
45.17
52.20
54.22
50.10
42.06
34.71
32.91
39.68
54.87
75.54
97.39
116.61
131.06
140.71
147.11
152.58
159.31
168.60
180.48
193.64
205.96
215.40
221.07
223.76
225.58
229.00
235.63
245.55
257.58
270.28
282.85
295.50
308.73
322.32
334.54
342.26
341.99
331.23
309.43
278.20
240.59
199.93
159.04
119.77
83.08
49.10
17.42
-12.88
-43.29
-74.94
-108.71
-144.71
-182.63
-221.70
-260.58
-297.01
-327.71
-349.29
-359.31
-357.53
-345.97
-327.65
-304.28
-274.53
-234.32
-179.52
-109.63
-30.24
47.38
109.94
146.98
154.57
135.85
98.61
51.42
0.66
-50.60
-101.68
-152.39
-201.95
-249.44
-294.60
-339.42
-387.89
-444.64
-512.12
-588.18
-665.18
-731.51
-775.55
-789.97
-774.62
-736.20
-685.13
-630.99
-579.13
-529.96
-481.08
-430.37
-378.25
-327.68
-282.21
-243.55
-210.29
-178.43
-143.48
-102.75
-56.78
-9.15
35.19
72.27
100.83
122.85
142.64
165.37
195.34
234.69
282.50
334.09
381.27
413.52
421.04
398.64
348.92
282.77
216.64
167.10
145.18
153.00
183.96
226.15
267.18
298.00
314.65
317.64
310.02
295.42
276.87
256.43
235.46
215.12
196.59
180.76
168.01
157.91
149.24
140.68
131.46
121.84
112.91
105.93
101.57
99.36
97.83
95.14
89.88
81.65
71.25
60.36
50.83
44.02
40.29
38.95
38.56
37.41
34.16
28.31
20.34
11.62
3.85
-1.49
-3.80
-3.52
-1.93
-0.61
-0.80
-2.89
-6.41
-10.32
-13.58
-15.49
-15.92
-15.20
-13.84
-12.36
-11.22
-10.82
-11.39
-12.87
-14.81
-16.34
-16.68
-15.59
-13.61
-11.78
-10.88
-10.80
-10.29
-7.60
-1.49
7.97
19.24
30.09
38.67
44.34
47.80
50.45
53.51
57.44
61.88
65.94
68.79
69.85
68.97
66.22
61.71
55.41
47.12
36.56
23.78
9.52
-4.54
-15.96
-22.30
-21.98
-15.16
-3.83
8.90
20.06
27.92
32.58
35.54
38.71
43.45
49.99
57.49
64.63
70.20
73.60
75.10
75.81
77.54
82.05
90.12
100.57
109.73
112.01
101.10
72.25
24.47
-38.07
-106.01
-166.42
-205.76
-213.87
-187.28
-131.14
-58.37
13.85
69.20
96.56
92.27
59.61
6.43
-57.51
-122.89
-181.48
-226.69
-254.22
-262.63
-253.86
-232.84
-206.19
-180.57
-161.19
-151.05
-150.82
-159.02
-171.88
-184.51
-192.41
-193.06
-186.71
-175.95
-164.34
-154.81
-148.81
-145.95
-144.31
-140.90
-132.29
-114.99
-86.30
-45.20
6.98
66.66
129.12
189.50
243.95
289.97
326.02
351.46
366.57
372.97
373.79
373.17
375.29
383.37
398.69
419.86
443.00
462.52
472.69
469.43
451.85
422.34
385.74
347.26
310.42
276.11
242.66
206.91
165.68
117.24
62.59
6.38
-43.02
-74.88
-79.28
-51.21
6.28
81.69
158.48
220.78
258.94
271.88
265.57
248.79
228.67
208.64
189.09
169.59
150.86
134.87
123.58
117.25
113.89
109.87
101.87
88.46
70.73
51.71
34.93
22.77
15.56
11.71
8.58
3.84
-3.51
-12.87
-22.43
-30.14
-34.66
-35.86
-34.74
-32.92
-31.80
-32.08
-33.57
-35.44
-36.68
-36.62
-35.15
-32.68
-29.95
-27.64
-26.19
-25.73
-26.11
-27.11
-28.53
-30.29
-32.41
-34.96
-37.99
-41.56
-45.69
-50.40
-55.62
-61.21
-66.89
-72.30
-77.08
-81.01
-84.16
-86.87
-89.68
-93.07
-97.33
-102.38
-107.83
-113.26
-118.48
-123.78
-129.94
-137.96
-148.69
-162.35
-178.43
-195.75
-213.02
-229.39
-244.90
-260.49
-277.65
-297.69
-321.10
-347.32
-375.08
-402.92
-429.97
-456.36
-483.11
-511.88
-544.64
-583.50
-630.13
-684.85
-745.21
-805.32
-856.42
-889.21
-897.04
-878.45
-837.70
-782.92
-722.81
-663.76
-608.61
-557.47
-509.52
-464.51
-423.06
-385.89
-352.90
-322.78
-293.62
-263.94
-233.42
-202.93
-174.20
-148.79
-127.35
-109.38
-93.54
-78.29
-62.61
-46.44
-30.65
-16.61
-5.49
2.20
6.81
9.39
11.13
12.97
15.23
17.63
19.56
20.47
20.22
19.18
18.13
17.94
19.26
22.29
26.71
31.92
37.27
42.41
47.45
52.90
59.41
67.40
76.74
86.73
96.20
104.05
109.70
113.44
116.40
120.02
125.47
132.94
141.52
149.52
155.23
157.87
158.07
157.80
159.53
165.14
174.94
187.46
200.18
210.53
217.17
220.60
222.66
225.98
233.15
246.32
266.84
294.31
325.17
351.67
362.81
347.68
300.55
224.74
133.22
44.53
-24.02
-62.71
-71.99
-60.34
-39.07
-16.95
2.51
20.30
39.31
61.62
87.27
114.86
142.85
170.50
198.13
226.13
254.02
280.13
302.18
318.96
331.57
343.40
358.36
377.98
398.94
413.33
411.64
387.22
340.10
277.83
213.07
158.80
123.26
107.12
103.60
101.84
91.86
68.88
35.06
-2.50
-35.72
-59.63
-73.70
-80.34
-81.34
-75.66
-59.94
-31.80
6.62
47.57
80.65
97.85
97.70
85.68
71.07
62.08
62.18
69.59
79.47
87.06
89.93
88.48
84.88
81.53
79.75
79.37
79.18
77.68
74.02
68.43
62.09
56.44
52.35
49.58
46.96
43.01
36.88
28.81
20.08
12.38
7.05
4.59
4.60
6.13
8.15
10.04
11.86
14.20
17.87
23.43
30.85
39.56
48.77
57.88
66.76
75.61
84.59
93.49
101.62
108.14
112.59
115.19
116.79
118.48
121.07
124.71
128.93
132.82
135.36
135.66
133.02
127.11
118.00
106.30
93.19
80.13
68.43
58.75
50.84
43.68
35.95
26.63
15.42
2.75
-10.48
-23.36
-35.28
-45.95
-55.28
-63.22
-69.70
-74.67
-78.30
-80.97
-83.25
-85.68
-88.64
-92.12
-95.68
-98.51
-99.63
-98.22
-93.97
-87.33
-79.44
-71.83
-65.91
-62.51
-61.65
-62.64
-64.46
-66.13
-67.07
-67.13
-66.48
-65.43
-64.22
-62.99
-61.78
-60.56
-59.31
-58.02
-56.73
-55.44
-54.15
-52.80
-51.38
-49.91
-48.35
-46.67
-44.68
-42.11
-38.65
-34.10
-28.53
-22.30
-16.05
-10.52
-6.32
-3.74
-2.68
-2.70
-3.21
-3.64
-3.68
-3.26
-2.55
-1.80
-1.16
-0.67
-0.20
0.40
1.27
2.35
3.50
4.52
5.21
5.54
5.59
5.53
5.47
5.32
4.80
3.49
1.11
-2.26
-6.13
-9.76
-12.48
-13.96
-14.26
-13.59
-12.03
-9.39
-5.36
0.18
6.86
13.86
20.24
25.32
28.88
31.08
32.09
31.87
30.18
26.91
22.35
17.35
12.96
10.00
8.61
8.22
7.84
6.65
4.37
1.31
-1.87
-4.68
-7.11
-9.74
-13.43
-18.79
-25.69
-32.99
-38.76
-40.76
-37.27
-27.72
-13.06
4.55
22.44
38.48
51.75
62.84
73.35
85.04
98.89
114.61
130.68
144.95
155.45
160.90
161.05
156.47
148.14
136.96
123.27
106.67
85.99
59.77
26.68
-13.88
-61.15
-112.64
-164.21
-210.80
-247.64
-271.31
-280.21
-274.20
-253.70
-218.99
-170.38
-109.19
-38.81
34.84
104.28
162.41
204.66
230.18
241.58
243.39
240.20
235.37
230.78
227.25
225.35
225.91
230.16
239.38
254.32
274.81
299.51
325.95
350.89
370.96
383.36
386.50
380.30
366.13
346.34
323.47
299.63
276.20
253.94
233.31
214.76
198.73
185.40
174.43
164.94
155.73
145.77
134.66
122.67
110.53
99.03
88.53
78.77
68.99
58.24
45.82
31.59
16.05
0.12
-15.22
-29.33
-42.17
-54.22
-66.22
-78.78
-92.01
-105.46
-118.27
-129.59
-139.04
-147.00
-154.56
-163.11
-173.77
-186.90
-201.95
-217.67
-232.78
-246.67
-259.86
-273.88
-290.69
-311.74
-337.27
-366.08
-396.20
-425.69
-453.73
-480.95
-509.15
-540.56
-577.10
-620.02
-669.64
-724.84
-782.43
-836.80
-880.51
-906.00
-907.99
-885.26
-840.96
-781.18
-712.70
-641.08
-570.08
-502.27
-439.64
-384.09
-336.62
-296.63
-261.55
-227.63
-191.06
-149.18
-101.30
-49.61
0.05
38.87
57.21
48.41
12.57
-42.04
-101.17
-149.86
-178.21
-184.52
-174.36
-156.40
-137.63
-120.81
-105.02
-88.18
-69.46
-49.90
-31.26
-14.36
1.63
18.45
37.55
58.90
81.05
101.83
119.78
134.93
148.78
163.35
180.05
198.89
218.32
236.10
250.44
261.13
269.89
280.23
296.27
320.80
353.30
388.47
416.42
424.77
402.86
346.26
259.86
157.46
57.88
-21.27
-69.16
-84.17
-72.56
-44.13
-7.68
31.68
72.61
115.77
161.84
210.37
259.73
307.54
351.12
387.68
414.41
428.93
430.15
418.91
397.85
370.91
342.27
315.46
292.89
275.77
264.17
257.13
252.83
248.95
243.30
234.48
222.27
207.47
191.57
176.32
163.14
152.83
145.31
139.63
134.16
127.18
117.58
105.49
92.49
81.06
73.60
71.30
73.69
78.92
84.71
89.45
92.71
94.94
96.87
98.70
99.86
99.37
96.22
89.46
78.03
60.91
37.49
8.28
-24.58
-57.48
-86.29
-107.57
-119.69
-123.56
-122.65
-122.03
-126.68
-139.22
-158.32
-178.70
-193.29
-196.75
-188.73
-174.91
-164.97
-168.62
-191.89
-235.47
-295.46
-365.42
-437.79
-504.46
-556.97
-587.38
-590.16
-564.37
-514.51
-449.11
-377.84
-308.47
-245.10
-188.22
-136.11
-86.23
-36.11
16.13
71.35
128.79
185.58
237.05
278.04
304.62
315.50
312.55
299.86
282.19
263.50
246.19
231.33
219.17
209.70
202.80
198.15
195.24
193.61
193.14
194.38
198.34
205.95
217.45
232.03
247.82
262.42
273.49
279.42
279.55
274.14
264.13
250.75
235.34
219.08
202.81
186.85
170.78
153.55
133.91
110.88
84.20
54.38
22.54
-9.98
-41.90
-72.18
-100.00
-124.74
-146.09
-164.22
-180.10
-195.62
-213.23
-234.98
-261.49
-291.10
-319.70
-341.39
-350.03
-341.16
-313.81
-271.49
-221.59
-173.29
-134.40
-108.68
-94.79
-87.54
-80.76
-70.44
-56.42
-41.66
-29.95
-23.47
-21.66
-21.77
-20.53
-15.74
-6.82
5.38
19.41
33.88
47.84
60.98
73.46
85.55
97.11
107.04
113.38
114.24
108.94
98.81
86.67
75.33
66.05
57.89
48.68
36.83
22.89
9.48
0.09
-2.59
2.10
12.60
26.12
39.75
51.28
59.53
64.12
65.21
63.29
58.92
52.84
45.81
38.75
32.69
28.49
26.21
24.62
20.98
11.75
-5.76
-31.94
-64.24
-98.08
-128.56
-152.32
-168.20
-176.78
-179.00
-174.69
-162.28
-140.12
-108.27
-70.31
-33.77
-8.33
-2.76
-21.68
-63.90
-123.03
-189.81
-254.95
-311.10
-353.32
-378.55
-384.96
-372.04
-341.09
-295.69
-241.19
-183.13
-125.54
-69.86
-15.14
40.40
97.43
154.27
206.83
249.84
278.69
290.96
287.18
270.53
245.26
215.01
181.91
146.98
111.60
79.00
54.48
43.81
50.44
73.16
105.65
138.49
162.77
173.44
170.87
159.83
146.72
136.71
132.07
132.26
135.01
137.25
135.46
125.92
105.58
73.72
33.58
-7.35
-39.23
-53.65
-47.27
-23.56
8.92
40.54
64.99
81.48
93.80
107.07
124.31
144.83
164.95
180.26
187.68
186.24
176.33
158.52
132.80
98.53
55.53
4.82
-51.49
-111.03
-172.15
-234.01
-295.76
-355.15
-407.77
-447.44
-468.01
-465.54
-439.91
-394.83
-336.55
-271.73
-205.68
-141.51
-80.23
-21.91
33.28
83.96
127.06
158.19
172.49
165.87
136.20
84.15
13.84
-67.03
-147.52
-215.35
-259.62
-274.26
-260.46
-226.60
-185.33
-148.50
-122.64
-106.87
-94.58
-77.48
-50.12
-12.19
32.03
76.38
115.68
147.33
171.05
187.56
197.44
200.65
197.43
189.13
178.54
169.12
163.56
162.60
164.79
167.26
167.34
163.80
157.17
149.03
140.89
133.18
125.12
115.00
100.64
79.77
50.50
12.37
-32.45
-78.38
-117.28
-140.92
-144.46
-128.84
-100.73
-69.78
-44.47
-28.96
-22.36
-20.56
-19.29
-16.35
-12.11
-8.34
-6.47
-6.60
-7.54
-7.65
-5.73
-1.55
4.10
9.92
14.70
17.88
19.72
21.05
22.85
25.71
29.58
33.80
37.38
39.29
38.82
35.71
30.31
23.57
16.80
11.33
7.95
6.61
6.47
6.39
5.58
4.04
2.44
1.54
1.59
2.04
1.85
0.15
-3.19
-7.38
-11.14
-13.33
-13.63
-12.67
-11.87
-12.79
-16.50
-23.11
-31.64
-40.26
-46.92
-49.95
-48.53
-42.72
-33.33
-21.62
-8.96
3.30
14.15
23.07
30.23
36.42
42.66
49.66
57.33
64.76
70.80
74.82
77.31
79.87
84.43
92.18
102.68
113.79
122.40
125.70
122.50
113.78
102.21
90.82
81.58
74.53
67.93
59.13
45.70
26.07
-0.39
-33.39
-71.38
-110.81
-145.81
-169.34
-175.94
-165.01
-142.40
-118.63
-103.87
-102.59
-110.72
-117.75
-112.73
-90.79
-56.13
-19.69
7.23
19.37
20.12
18.94
25.54
44.44
72.93
102.91
125.13
133.12
124.97
102.80
70.58
32.06
-10.28
-54.81
-99.57
-140.94
-173.40
-190.82
-188.83
-167.25
-131.16
-89.63
-52.50
-26.74
-14.18
-11.70
-13.60
-14.70
-12.39
-7.10
-1.00
3.58
5.30
4.18
1.14
-2.60
-5.98
-8.38
-9.54
-9.65
-9.32
-9.40
-10.81
-14.27
-19.99
-27.47
-35.47
-42.24
-45.92
-45.10
-39.11
-28.30
-13.95
2.10
17.98
32.46
45.31
57.14
68.81
80.52
91.27
98.99
101.41
97.16
86.56
71.50
54.69
38.49
24.24
12.16
1.92
-6.66
-13.30
-17.34
-18.23
-15.99
-11.46
-6.09
-1.62
0.49
-0.50
-4.37
-10.05
-16.09
-21.20
-24.71
-26.65
-27.45
-27.56
-27.16
-26.13
-24.28
-21.71
-18.78
-16.02
-13.79
-12.04
-10.31
-7.92
-4.26
0.97
7.61
15.11
22.78
30.07
36.91
43.84
51.88
62.02
74.73
89.58
105.37
120.56
133.82
144.50
152.57
158.34
162.15
164.23
164.77
163.99
162.02
158.80
153.94
146.89
137.38
125.88
113.52
101.51
90.18
78.30
63.02
40.80
8.91
-33.45
-84.66
-140.93
-197.13
-247.49
-286.59
-310.21
-316.33
-305.88
-282.49
-251.40
-217.69
-184.88
-154.51
-126.88
-102.29
-81.69
-66.40
-57.00
-52.41
-49.86
-45.87
-37.82
-25.01
-8.72
8.66
24.72
37.91
47.90
55.22
60.74
65.23
69.05
72.26
74.87
77.07
79.34
82.18
85.69
89.42
92.50
94.07
93.86
92.34
90.38
88.69
87.29
85.54
82.60
78.16
72.88
68.15
65.49
65.60
67.96
71.02
72.97
72.68
70.34
67.36
65.77
67.34
72.81
81.54
91.63
100.12
103.43
98.17
82.21
55.76
21.92
-14.24
-47.71
-75.80
-99.64
-123.89
-154.78
-197.33
-252.80
-317.66
-384.12
-442.32
-483.01
-499.98
-491.39
-459.63
-409.89
-348.06
-279.09
-206.62
-133.75
-64.25
-2.97
45.10
76.90
92.79
96.80
95.01
93.03
93.89
97.57
101.87
104.26
103.41
99.69
94.55
89.54
85.36
81.67
77.54
72.14
65.27
57.60
50.26
44.32
40.34
38.14
36.94
35.86
34.28
32.29
30.71
30.76
33.49
39.23
47.31
56.26
64.33
70.15
73.25
74.10
73.80
73.59
74.40
76.61
80.08
84.31
88.75
93.01
97.04
101.13
105.70
111.03
117.01
123.12
128.62
133.00
136.34
139.35
143.11
148.53
155.91
164.62
173.50
181.22
186.97
190.68
193.06
195.13
197.81
201.56
206.22
211.05
214.73
215.58
211.70
201.40
183.49
157.57
124.04
83.88
38.46
-10.64
-61.61
-112.62
-161.87
-208.13
-251.21
-292.07
-332.72
-375.82
-424.10
-479.42
-541.72
-607.86
-671.31
-723.20
-754.74
-760.28
-739.39
-696.90
-640.79
-579.02
-516.92
-456.58
-397.93
-340.58
-285.14
-232.98
-185.15
-141.30
-99.40
-56.53
-10.17
40.73
95.29
150.59
202.60
247.16
281.24
303.89
316.45
321.94
323.65
323.89
323.14
320.36
313.92
302.73
286.97
268.02
247.83
228.06
209.51
192.05
174.94
157.40
139.06
120.36
102.34
86.28
73.13
63.04
55.32
48.81
42.48
35.77
28.73
21.65
14.78
8.13
1.72
-4.16
-8.81
-11.29
-10.83
-7.26
-1.16
6.36
14.06
21.02
26.69
30.88
33.54
34.58
33.72
30.51
24.41
15.11
2.84
-11.39
-25.89
-38.71
-48.34
-54.18
-56.70
-57.01
-56.35
-55.54
-54.96
-54.61
-54.36
-54.02
-53.22
-51.22
-47.09
-40.07
-29.96
-17.42
-3.79
9.25
20.27
28.43
33.61
36.27
37.25
37.47
37.77
38.70
40.50
43.03
45.84
48.30
49.77
49.76
47.95
44.21
38.57
31.23
22.64
13.46
4.48
-3.57
-10.23
-15.46
-19.69
-23.56
-27.65
-32.21
-36.98
-41.30
-44.32
-45.33
-44.01
-40.55
-35.52
-29.64
-23.45
-17.21
-10.81
-4.03
3.34
11.30
19.67
28.21
36.62
44.62
51.84
57.84
62.19
64.66
65.39
64.93
64.07
63.43
63.18
62.89
61.67
58.62
53.25
45.75
36.87
27.69
19.14
11.78
5.74
0.94
-2.68
-4.94
-5.36
-3.36
1.51
9.22
19.11
29.87
39.88
47.55
51.80
52.24
49.18
43.26
35.10
25.15
13.70
1.22
-11.53
-23.51
-33.70
-41.45
-46.60
-49.37
-50.03
-48.81
-45.88
-41.52
-36.32
-31.03
-26.38
-22.72
-19.99
-17.82
-15.80
-13.78
-11.85
-10.31
-9.37
-9.11
-9.42
-10.08
-10.89
-11.75
-12.70
-13.97
-15.86
-18.63
-22.32
-26.67
-31.14
-35.03
-37.66
-38.46
-37.12
-33.57
-28.10
-21.38
-14.45
-8.46
-4.35
-2.51
-2.56
-3.60
-4.58
-4.72
-3.73
-1.77
0.81
3.68
6.61
9.49
12.21
14.74
17.20
19.86
23.06
26.95
31.28
35.35
38.15
38.76
36.75
32.42
26.79
21.38
17.67
16.75
18.87
23.51
29.62
36.13
42.42
48.44
54.44
60.56
66.39
70.96
72.99
71.38
65.66
56.15
43.85
30.17
16.59
4.41
-5.53
-12.91
-17.94
-21.16
-23.13
-24.22
-24.50
-23.95
-22.67
-21.02
-19.36
-17.71
-15.48
-11.61
-5.12
4.26
15.77
27.72
37.94
44.00
43.50
34.39
15.73
-11.39
-43.28
-74.20
-98.11
-110.92
-112.05
-104.37
-92.28
-79.23
-66.07
-51.15
-32.05
-7.80
20.03
47.85
71.91
90.40
104.46
117.53
133.60
155.09
181.47
209.20
232.94
247.34
248.76
235.98
210.22
174.02
130.41
82.06
31.02
-21.20
-73.55
-125.87
-179.24
-235.82
-297.59
-364.27
-431.60
-491.15
-532.39
-546.41
-529.51
-484.94
-421.48
-350.06
-279.80
-215.55
-157.62
-103.35
-49.01
8.89
72.79
143.35
218.45
292.47
356.72
401.70
420.43
410.83
376.72
325.84
266.60
204.98
143.14
79.96
12.90
-59.86
-137.82
-217.32
-291.89
-353.29
-393.56
-407.84
-396.43
-365.37
-324.30
-282.77
-246.45
-215.36
-185.19
-150.77
-109.73
-64.15
-19.41
18.74
47.22
66.69
80.33
91.44
101.36
108.88
111.94
109.70
103.98
98.78
98.47
105.58
119.55
137.12
154.17
167.72
177.04
183.54
189.69
197.59
208.04
220.51
233.64
246.16
257.52
268.23
279.67
293.55
311.21
332.96
357.77
383.29
406.24
422.96
430.16
425.46
407.98
378.56
339.60
294.55
247.06
200.03
154.93
111.70
69.09
25.57
-19.93
-67.53
-116.47
-165.58
-213.91
-261.11
-307.52
-354.01
-401.83
-452.50
-507.73
-568.76
-635.19
-703.70
-767.71
-818.48
-847.71
-850.49
-827.17
-783.13
-726.52
-665.23
-604.62
-546.92
-492.09
-439.35
-388.15
-338.25
-289.33
-240.65
-191.28
-140.62
-88.95
-37.39
12.54
59.57
103.36
144.68
185.24
227.00
271.24
317.49
363.02
403.22
432.95
448.46
448.95
436.98
417.40
395.45
374.68
356.17
338.83
320.92
301.38
280.57
259.94
241.09
224.86
210.99
198.42
185.95
172.84
159.16
145.56
132.91
121.80
112.24
103.65
95.14
85.87
75.45
64.23
53.18
43.62
36.72
32.94
31.86
32.31
32.91
32.82
32.23
32.31
34.66
40.37
49.38
60.32
71.09
79.84
85.81
89.60
92.88
97.62
105.26
116.30
130.23
145.70
160.74
172.86
179.17
176.74
163.27
138.16
103.16
62.37
20.88
-17.19
-50.53
-81.51
-115.01
-155.81
-205.40
-260.24
-312.46
-352.94
-375.22
-378.05
-365.51
-344.38
-320.72
-297.30
-273.40
-246.70
-215.81
-181.73
-147.55
-116.50
-90.03
-67.07
-45.00
-21.60
3.49
28.54
50.79
68.26
80.82
90.38
99.69
110.84
124.29
138.75
152.07
162.29
168.41
170.77
170.75
170.11
170.31
172.01
174.83
177.73
179.57
179.62
177.93
175.25
172.39
169.43
165.53
159.14
149.13
135.64
120.26
105.75
95.09
90.33
91.73
97.89
106.21
114.15
119.98
122.16
119.48
110.89
95.46
72.39
41.72
3.93
-39.31
-85.60
-134.25
-186.11
-242.31
-302.52
-363.46
-417.87
-457.43
-473.97
-462.26
-424.06
-366.09
-295.73
-218.00
-135.47
-49.33
34.93
108.76
162.70
187.23
178.01
139.42
82.81
20.94
-35.73
-85.19
-129.76
-155.35
-149.70
-110.95
-50.00
17.29
67.36
100.11
116.91
118.70
106.37
84.43
54.40
18.41
-20.82
-61.26
-100.86
-141.43
-185.18
-233.23
-287.14
-347.27
-409.81
-466.83
-508.61
-525.87
-515.70
-480.46
-426.29
-362.15
-296.73
-235.07
-178.56
-126.71
-78.30
-34.12
5.18
40.84
75.92
114.20
158.63
208.40
257.38
295.32
310.20
293.21
241.97
161.07
60.48
-46.77
-147.49
-230.58
-288.35
-317.70
-319.96
-300.17
-265.56
-223.55
-179.74
-137.14
-96.59
-57.98
-21.20
13.72
46.93
79.20
111.77
145.84
181.91
219.77
258.72
297.83
336.09
372.07
403.61
427.91
442.14
444.37
434.24
413.16
383.74
348.90
311.17
272.40
233.99
197.34
163.97
135.47
112.67
95.24
81.72
70.20
59.23
48.38
38.31
30.20
25.14
23.48
24.61
27.31
30.23
32.36
33.03
31.93
29.07
25.19
21.26
18.10
15.99
14.70
13.84
13.10
12.38
11.69
11.99
13.65
15.81
16.51
13.87
7.26
-2.34
-12.81
-21.63
-24.33
-17.70
-1.32
21.97
47.48
70.52
87.24
94.91
91.95
81.95
69.46
57.99
48.93
42.70
40.06
42.04
49.07
60.78
81.16
113.85
159.82
216.25
278.31
341.34
401.30
454.38
467.12
417.51
306.56
161.15
16.08
-104.57
-191.82
-247.27
-278.08
-293.08
-296.02
-289.50
-276.93
-263.29
-253.12
-248.24
-247.88
-250.69
-254.06
-251.75
-238.95
-214.97
-184.24
-153.65
-129.52
-115.73
-113.09
-118.98
-126.55
-129.33
-124.34
-113.33
-100.31
-89.62
-83.50
-82.56
-84.77
-85.66
-81.46
-71.19
-56.89
-40.97
-25.91
-14.76
-11.00
-16.92
-32.00
-52.54
-71.79
-81.12
-70.91
-35.46
22.96
94.36
165.17
222.88
259.26
271.76
252.38
203.35
140.12
82.35
40.98
14.93
-3.40
-21.47
-42.82
-66.59
-89.00
-105.51
-114.12
-115.30
-109.84
-97.84
-79.56
-56.76
-30.92
-9.04
3.22
4.27
-3.60
-16.23
-29.90
-42.66
-53.71
-63.06
-67.97
-65.35
-54.86
-39.69
-25.03
-15.53
-13.31
-17.30
-24.11
-29.41
-29.04
-21.20
-6.72
11.66
30.46
46.64
58.56
66.66
73.30
81.93
95.14
113.07
132.95
149.89
158.55
155.19
138.99
112.15
79.07
44.59
12.63
-14.63
-36.59
-53.55
-65.60
-72.37
-73.55
-69.89
-63.76
-58.51
-57.38
-62.20
-72.83
-87.18
-101.92
-113.46
-118.76
-115.61
-102.79
-80.63
-51.73
-20.79
7.06
28.33
42.55
51.91
59.43
67.13
74.42
78.09
73.94
57.32
28.34
-5.61
-33.54
-48.32
-49.74
-42.73
-33.41
-27.57
-24.80
-22.33
-17.41
-9.26
0.46
8.92
13.66
13.69
9.80
4.55
1.00
1.52
6.67
14.93
23.54
29.50
30.38
24.87
13.28
-2.80
-20.43
-35.75
-44.38
-42.13
-26.40
2.11
38.66
75.43
103.71
117.04
113.33
95.22
68.45
39.43
12.92
-8.56
-23.94
-32.56
-33.63
-26.77
-13.18
3.87
19.75
29.91
31.60
24.62
11.10
-5.57
-22.13
-36.40
-47.76
-56.62
-63.86
-70.04
-75.02
-77.62
-76.45
-70.75
-60.82
-47.89
-33.06
-17.13
-1.02
13.76
25.16
31.07
30.33
23.58
12.86
1.44
-8.29
-16.22
-24.14
-33.78
-45.50
-57.93
-68.89
-77.05
-80.69
-78.48
-69.80
-54.86
-34.71
-11.62
11.46
31.85
47.74
60.93
74.98
92.59
109.68
119.41
116.21
100.82
85.18
74.44
71.10
75.49
83.70
92.21
98.49
101.49
101.73
100.05
96.57
92.97
91.44
93.61
100.07
110.44
123.04
135.35
143.44
142.76
131.03
107.95
74.46
32.73
-13.20
-58.09
-96.13
-124.21
-142.82
-154.84
-164.93
-177.77
-195.51
-215.44
-231.42
-236.11
-226.89
-206.78
-182.49
-161.56
-149.62
-148.67
-156.47
-169.31
-172.33
-156.15
-122.20
-81.12
-43.34
-13.16
6.83
21.04
30.88
35.77
33.24
22.13
6.03
-8.75
-15.31
-9.14
10.73
40.22
72.24
97.72
109.62
105.85
89.59
67.13
44.48
25.58
10.78
-1.10
-11.73
-21.00
-26.48
-25.31
-16.62
-3.16
9.91
16.85
14.69
3.90
-11.87
-27.47
-38.18
-40.82
-34.04
-17.79
6.35
34.96
62.67
83.51
93.67
93.80
89.67
89.79
101.39
126.46
160.29
193.19
214.81
218.76
204.82
178.16
145.75
112.93
82.05
52.88
24.35
-3.74
-29.66
-50.71
-64.53
-70.91
-71.92
-70.23
-67.65
-64.43
-59.46
-50.84
-37.14
-18.30
3.21
23.01
36.89
42.12
38.01
25.78
8.42
-11.91
-30.30
-41.78
-46.68
-48.97
-51.99
-55.70
-59.31
-61.41
-60.72
-56.53
-49.59
-41.72
-34.28
-27.71
-21.76
-16.05
-10.06
-3.55
3.40
9.83
14.34
16.17
15.44
12.89
9.39
5.98
3.55
2.64
2.97
3.53
3.28
1.56
-1.75
-6.32
-11.25
-15.56
-18.53
-20.12
-20.77
-20.79
-20.05
-18.06
-14.32
-8.65
-1.45
6.38
13.81
20.11
24.98
28.42
30.52
31.28
30.74
29.14
26.88
24.31
21.48
17.82
12.38
4.43
-5.98
-17.68
-28.78
-37.25
-41.67
-41.48
-37.02
-29.07
-18.56
-6.64
5.19
14.83
20.20
20.06
14.77
5.79
-5.03
-16.40
-27.78
-39.21
-50.73
-61.75
-70.74
-75.59
-75.48
-71.32
-65.42
-60.36
-58.12
-59.81
-65.35
-73.00
-78.88
-79.28
-71.39
-54.14
-28.40
2.85
34.55
60.94
77.54
83.08
77.87
63.65
43.12
19.62
-0.94
-12.43
-13.01
-10.33
-6.43
-1.09
8.02
20.59
34.76
47.73
56.43
58.68
54.56
46.95
38.57
31.22
25.34
20.70
16.79
12.88
8.42
3.55
-0.38
-2.86
-4.05
-4.61
-5.13
-6.03
-7.59
-9.86
-12.41
-14.13
-14.70
-14.38
-13.82
-13.52
-13.77
-14.69
-16.22
-18.03
-19.47
-20.47
-21.12
-21.51
-21.50
-20.96
-19.85
-17.89
-14.07
-5.36
9.91
30.59
52.62
70.78
80.72
80.32
70.35
54.06
35.57
18.04
3.02
-8.99
-17.64
-22.42
-22.92
-19.44
-13.42
-7.30
-3.72
-4.32
-8.98
-15.63
-21.30
-23.04
-18.81
-8.16
7.33
24.21
37.98
45.02
44.13
36.79
26.64
17.78
13.32
13.86
17.65
21.42
22.73
21.17
18.11
15.41
13.97
14.61
17.38
21.76
25.36
24.66
16.01
-4.34
-38.03
-83.14
-133.13
-179.66
-211.63
-221.22
-205.41
-166.82
-113.03
-53.70
2.73
52.78
96.76
136.33
170.98
198.14
213.62
212.49
191.07
141.74
67.82
-16.15
-93.00
-153.69
-197.68
-227.15
-242.13
-239.30
-215.22
-169.22
-109.28
-43.63
16.94
64.56
97.42
119.01
135.35
152.06
167.15
179.82
188.08
188.39
178.35
158.02
129.55
96.25
61.53
28.57
0.33
-21.45
-36.11
-42.49
-39.00
-25.05
-2.70
23.10
45.66
58.97
59.03
45.11
20.74
-7.69
-33.19
-51.13
-60.30
-62.72
-61.98
-61.67
-63.55
-66.79
-68.61
-64.31
-50.75
-26.72
6.49
44.51
80.52
107.08
118.20
111.05
86.70
49.28
5.60
-36.39
-70.75
-94.16
-105.57
-105.69
-96.32
-79.66
-58.89
-36.74
-14.81
4.31
18.23
26.05
28.21
25.69
18.79
5.61
-15.13
-41.74
-71.29
-98.37
-115.56
-116.09
-96.77
-53.90
4.08
55.72
91.86
109.87
110.10
96.49
74.80
50.61
27.67
6.33
-13.89
-32.05
-47.42
-57.86
-59.71
-50.08
-29.46
-2.84
20.64
32.59
29.77
13.57
-10.33
-34.79
-54.88
-69.70
-81.29
-92.34
-102.95
-109.62
-108.35
-96.71
-74.96
-46.02
-14.36
15.61
40.68
59.85
74.63
87.50
101.00
116.77
134.99
154.40
173.21
189.80
203.13
212.39
216.13
212.40
199.51
177.03
146.25
110.11
72.40
36.98
7.13
-14.86
-27.97
-32.72
-31.31
-27.05
-23.32
-22.43
-24.98
-30.03
-35.95
-41.38
-45.70
-49.00
-51.58
-53.63
-55.21
-56.36
-57.20
-57.91
-58.54
-58.88
-58.60
-57.37
-55.09
-51.95
-48.36
-44.76
-41.53
-38.89
-36.91
-35.52
-34.54
-33.73
-32.82
-31.63
-30.11
-28.31
-26.37
-24.50
-22.84
-21.51
-20.54
-19.82
-19.18
-18.42
-17.44
-16.23
-14.93
-13.80
-13.06
-12.93
-13.49
-14.67
-16.25
-17.88
-19.16
-19.84
-19.87
-19.49
-19.13
-19.30
-20.41
-22.66
-26.00
-30.16
-34.76
-39.38
-43.67
-47.45
-50.71
-53.61
-56.41
-59.40
-62.73
-66.31
-69.58
-71.56
-71.01
-66.94
-59.07
-48.23
-36.30
-25.67
-18.45
-15.77
-17.41
-21.93
-27.24
-31.20
-32.21
-29.41
-22.76
-12.83
-0.57
13.04
27.01
40.41
52.29
61.77
68.22
71.46
71.81
69.80
65.88
60.20
52.72
43.65
33.81
24.67
17.95
14.91
15.87
19.99
25.66
31.13
34.99
36.53
35.71
33.02
29.22
25.14
21.47
18.63
16.72
15.62
15.13
15.03
15.14
15.38
15.68
16.08
16.69
17.62
18.89
20.34
21.64
22.39
22.24
20.97
18.53
15.01
10.62
5.68
0.58
-4.29
-8.65
-12.46
-15.89
-19.21
-22.61
-26.01
-29.01
-31.00
-31.40
-29.92
-26.72
-22.40
-17.86
-14.07
-11.80
-11.48
-13.07
-16.18
-20.15
-24.23
-27.69
-29.96
-30.72
-29.95
-27.99
-25.35
-22.63
-20.26
-18.50
-17.48
-17.26
-17.92
-19.49
-21.83
-24.61
-27.31
-29.39
-30.45
-30.27
-28.88
-26.39
-22.87
-18.25
-12.28
-4.75
4.34
14.51
24.77
33.84
40.71
45.12
47.76
49.92
52.80
56.81
61.41
65.44
67.91
68.52
67.76
66.45
65.15
63.82
61.93
58.80
54.06
47.79
40.43
32.55
24.64
17.10
10.18
3.99
-1.53
-6.51
-11.16
-15.51
-19.43
-22.63
-24.78
-25.70
-25.38
-24.00
-21.83
-19.12
-16.13
-13.04
-9.94
-6.86
-3.75
-0.56
2.62
5.62
8.19
10.22
11.78
13.17
14.78
16.82
19.30
22.00
24.64
27.12
29.48
31.77
33.82
35.12
34.96
32.80
28.58
22.84
16.58
10.78
6.08
2.58
-0.01
-2.14
-4.13
-6.09
-8.05
-10.05
-12.20
-14.56
-17.06
-19.40
-21.18
-22.05
-21.88
-20.85
-19.33
-17.71
-16.25
-15.03
-14.00
-13.15
-12.59
-12.53
-13.15
-14.51
-16.41
-18.47
-20.24
-21.41
-21.85
-21.62
-20.88
-19.78
-18.46
-17.06
-15.68
-14.46
-13.53
-13.00
-12.97
-13.50
-14.55
-15.95
-17.42
-18.60
-19.19
-19.06
-18.35
-17.38
-16.57
-16.22
-16.38
-16.92
-17.54
-17.97
-18.03
-17.64
-16.85
-15.77
-14.49
-13.14
-11.79
-10.50
-9.28
-8.12
-6.96
-5.81
-4.75
-4.02
-3.94
-4.84
-6.89
-10.00
-13.84
-17.89
-21.64
-24.63
-26.54
-27.15
-26.33
-24.02
-20.26
-15.22
-9.23
-2.69
3.96
10.31
16.05
20.98
24.98
28.06
30.32
31.90
32.95
33.57
33.75
33.43
32.59
31.27
29.56
27.54
25.18
22.33
18.83
14.64
9.94
5.10
0.54
-3.39
-6.58
-9.09
-11.07
-12.73
-14.20
-15.63
-17.10
-18.69
-20.44
-22.32
-24.27
-26.21
-28.02
-29.60
-30.78
-31.36
-31.09
-29.85
-27.59
-24.49
-20.79
-16.75
-12.58
-8.34
-4.04
0.29
4.55
8.52
11.96
14.73
16.89
18.71
20.51
22.49
24.61
26.63
28.21
29.15
29.46
29.34
29.08
28.92
28.99
29.33
29.89
30.58
31.29
31.83
32.03
31.78
31.12
30.18
29.14
28.05
26.81
25.15
22.87
19.89
16.40
12.69
9.08
5.74
2.72
-0.06
-2.68
-5.16
-7.46
-9.49
-11.17
-12.48
-13.39
-13.87
-13.81
-13.11
-11.70
-9.66
-7.21
-4.70
-2.50
-0.81
0.36
1.25
2.15
3.31
4.78
6.42
8.04
9.47
10.65
11.59
12.25
12.46
11.93
10.32
7.39
3.11
-2.26
-8.21
-14.19
-19.70
-24.55
-28.87
-33.05
-37.51
-42.56
-48.20
-54.08
-59.68
-64.39
-67.71
-69.40
-69.45
-68.10
-65.70
-62.61
-59.07
-55.16
-50.76
-45.67
-39.64
-32.48
-24.16
-14.90
-5.17
4.37
13.03
20.35
26.23
30.93
34.86
38.35
41.41
43.82
45.30
45.76
45.37
44.54
43.65
42.91
42.35
41.85
41.37
40.96
40.73
40.71
40.78
40.68
40.12
38.95
37.30
35.46
33.84
32.76
32.30
32.32
32.53
32.56
32.11
31.01
29.24
26.84
23.95
20.75
17.42
14.21
11.28
8.81
6.87
5.55
4.91
5.09
6.26
8.55
11.99
16.39
21.46
26.79
32.02
36.95
41.46
45.52
49.11
52.16
54.59
56.33
57.30
57.50
56.96
55.79
54.13
52.13
49.92
47.47
44.64
41.16
36.76
31.27
24.68
17.15
8.91
0.25
-8.58
-17.33
-25.76
-33.61
-40.70
-46.97
-52.46
-57.36
-61.87
-66.12
-70.14
-73.79
-76.87
-79.18
-80.55
-80.89
-80.17
-78.30
-75.16
-70.49
-63.97
-55.26
-44.16
-30.72
-15.34
1.22
17.97
33.81
47.71
58.78
66.40
70.29
70.57
67.80
62.86
56.77
50.42
44.39
38.94
34.09
29.78
25.94
22.46
19.18
15.87
12.33
8.55
4.76
1.39
-1.15
-2.66
-3.24
-3.25
-3.06
-2.98
-3.08
-3.32
-3.63
-4.04
-4.64
-5.57
-6.89
-8.55
-10.38
-12.15
-13.68
-14.86
-15.71
-16.31
-16.80
-17.29
-17.91
-18.71
-19.67
-20.71
-21.72
-22.59
-23.27
-23.81
-24.27
-24.65
-24.88
-24.78
-24.19
-23.06
-21.48
-19.68
-17.93
-16.47
-15.39
-14.68
-14.26
-13.97
-13.68
-13.19
-12.34
-10.97
-8.99
-6.40
-3.30
0.13
3.66
7.05
10.13
12.82
15.16
17.26
19.21
21.00
22.48
23.40
23.53
22.78
21.28
19.29
17.14
15.09
13.26
11.63
10.13
8.66
7.19
5.69
4.21
2.74
1.28
-0.19
-1.63
-2.94
-4.03
-4.83
-5.33
-5.59
-5.68
-5.66
-5.50
-5.13
-4.46
-3.47
-2.23
-0.86
0.53
1.87
3.20
4.62
6.19
7.93
9.78
11.64
13.38
14.90
16.13
17.07
17.70
18.03
18.08
17.87
17.44
16.82
16.02
15.00
13.70
12.02
9.91
7.39
4.60
1.74
-1.01
-3.53
-5.81
-7.91
-9.85
-11.59
-13.08
-14.31
-15.39
-16.55
-17.97
-19.72
-21.65
-23.44
-24.80
-25.56
-25.75
-25.55
-25.16
-24.73
-24.38
-24.26
-24.49
-25.17
-26.19
-27.28
-28.05
-28.18
-27.55
-26.28
-24.54
-22.47
-20.02
-17.02
-13.35
-9.05
-4.33
0.45
4.93
8.80
11.83
13.85
14.79
14.71
13.81
12.40
10.78
9.14
7.52
5.85
4.07
2.21
0.37
-1.36
-2.87
-4.15
-5.22
-6.11
-6.81
-7.32
-7.64
-7.78
-7.74
-7.56
-7.22
-6.71
-6.05
-5.30
-4.59
-4.02
-3.66
-3.43
-3.17
-2.67
-1.79
-0.47
1.20
3.03
4.79
6.30
7.44
8.15
8.41
8.19
7.55
6.59
5.45
4.26
3.05
1.67
-0.14
-2.64
-5.92
-9.79
-13.82
-17.47
-20.27
-21.95
-22.46
-21.90
-20.43
-18.21
-15.45
-12.39
-9.31
-6.46
-3.92
-1.62
0.68
3.21
6.06
9.08
11.93
14.19
15.46
15.53
14.36
12.11
9.03
5.43
1.65
-2.00
-5.24
-7.86
-9.71
-10.76
-11.02
-10.60
-9.56
-8.06
-6.24
-4.28
-2.42
-0.86
0.24
0.81
0.85
0.41
-0.45
-1.65
-3.15
-4.86
-6.65
-8.36
-9.85
-11.02
-11.84
-12.38
-12.69
-12.80
-12.72
-12.45
-12.03
-11.58
-11.22
-11.00
-10.86
-10.59
-9.95
-8.78
-7.01
-4.79
-2.38
-0.08
1.85
3.32
4.36
5.18
6.03
7.22
8.91
11.12
13.69
16.28
18.52
20.11
20.91
20.94
20.34
19.24
17.73
15.84
13.62
11.17
8.60
6.00
3.33
0.42
-2.97
-6.98
-11.55
-16.32
-20.65
-23.77
-25.00
-23.92
-20.48
-15.07
-8.42
-1.45
4.95
10.00
13.27
14.67
14.50
13.38
12.10
11.34
11.45
12.31
13.35
13.83
13.20
11.34
8.68
5.96
3.88
2.82
2.68
3.01
3.27
3.03
2.06
0.30
-2.21
-5.37
-9.01
-12.81
-16.36
-19.22
-21.13
-22.04
-22.12
-21.64
-20.76
-19.55
-18.01
-16.16
-14.14
-12.22
-10.63
-9.50
-8.79
-8.36
-8.12
-8.11
-8.54
-9.75
-12.03
-15.55
-20.28
-25.96
-32.17
-38.29
-43.59
-47.26
-48.63
-47.30
-43.34
-37.23
-29.78
-21.82
-13.96
-6.50
0.51
7.09
13.13
18.33
22.32
24.79
25.60
24.91
23.05
20.47
17.66
15.01
12.86
11.37
10.59
10.46
10.83
11.56
12.56
13.82
15.37
17.19
19.15
21.05
22.70
23.98
24.86
25.39
25.73
25.98
26.26
26.62
27.07
27.57
27.98
28.03
27.52
26.41
24.76
22.67
20.16
17.22
13.90
10.34
6.57
2.84
-0.61
-3.65
-6.49
-9.51
-13.04
-17.12
-21.50
-26.06
-30.37
-33.81
-35.87
-36.38
-35.60
-34.04
-32.27
-30.88
-30.78
-32.31
-35.18
-38.65
-41.63
-42.88
-41.03
-34.87
-21.64
-1.64
21.61
43.10
59.14
68.54
71.86
70.39
65.61
60.02
53.89
47.64
42.06
37.75
34.87
33.01
31.25
28.53
23.01
13.88
2.22
-9.40
-19.24
-26.48
-30.87
-32.67
-31.35
-27.07
-20.51
-12.40
-3.43
5.10
11.73
15.23
15.19
12.42
8.50
5.19
3.64
4.27
5.60
5.17
0.97
-7.26
-18.02
-28.96
-37.69
-43.68
-45.08
-40.42
-29.04
-11.69
9.53
31.63
51.83
68.35
80.42
89.42
97.47
106.10
114.54
120.06
119.08
108.66
87.75
57.81
22.71
-12.80
-44.25
-69.05
-85.68
-93.67
-93.98
-89.04
-81.99
-75.17
-69.65
-65.17
-62.11
-60.02
-57.82
-54.59
-50.25
-45.64
-41.99
-40.96
-44.52
-56.26
-77.26
-104.96
-133.98
-158.19
-172.55
-173.95
-161.66
-127.96
-75.15
-14.30
41.39
84.89
116.04
137.59
151.84
159.37
162.22
156.75
141.18
117.24
89.43
62.87
41.82
28.88
24.66
28.32
36.10
44.62
51.91
57.37
60.91
62.85
64.06
65.84
69.52
74.79
81.21
87.94
93.34
94.53
89.38
78.27
64.35
52.00
43.85
40.13
38.19
33.54
20.77
-2.63
-34.65
-69.75
-101.17
-123.30
-132.33
-127.01
-109.31
-86.02
-65.09
-52.45
-50.43
-57.77
-70.71
-84.75
-97.16
-108.56
-123.97
-147.42
-178.18
-211.24
-240.09
-259.59
-267.01
-262.24
-230.73
-167.67
-83.05
3.66
75.59
125.01
151.87
161.18
162.22
159.62
152.44
138.18
115.83
85.62
49.42
10.43
-23.32
-42.65
-43.15
-29.50
-14.71
-4.97
-1.19
-0.72
0.29
5.17
15.51
30.79
49.23
68.65
87.08
101.99
111.26
114.10
111.14
103.36
91.28
74.87
54.60
32.69
12.14
-3.96
-13.43
-15.91
-13.15
-8.63
-5.98
-7.39
-12.45
-19.13
-24.86
-27.71
-27.13
-23.88
-19.51
-15.40
-12.33
-10.31
-8.90
-7.63
-6.08
-3.99
-1.40
1.36
3.69
4.92
4.65
3.00
0.61
-1.51
-2.48
-1.92
-0.13
1.95
3.26
3.09
1.39
-1.30
-4.09
-6.13
-6.88
-6.24
-4.76
-3.44
-3.81
-7.30
-15.16
-27.39
-42.47
-57.41
-68.69
-73.37
-69.96
-58.77
-41.75
-22.10
-3.64
9.90
16.10
14.25
5.65
-6.83
-19.74
-30.21
-36.94
-40.34
-41.92
-42.44
-41.87
-39.63
-35.43
-29.67
-23.30
-17.39
-12.59
-8.74
-3.98
3.68
15.20
29.78
45.37
59.89
71.99
81.44
88.98
97.45
109.70
127.31
149.82
175.31
201.42
225.96
247.03
253.49
237.34
197.37
141.02
79.77
23.11
-24.04
-60.68
-88.19
-108.84
-123.17
-130.89
-131.61
-125.82
-114.98
-101.16
-86.55
-73.25
-62.85
-54.93
-48.36
-42.02
-35.42
-28.85
-22.68
-17.08
-12.16
-8.13
-4.67
-1.87
0.26
1.53
1.71
0.68
-1.58
-5.03
-9.57
-14.64
-19.55
-23.61
-26.63
-28.30
-28.32
-26.30
-21.99
-15.55
-7.61
0.78
8.60
15.12
20.21
24.04
26.91
28.89
29.67
28.83
26.18
22.20
18.00
14.92
13.78
14.65
16.91
19.62
22.00
23.39
23.44
22.00
18.94
13.57
5.09
-6.91
-21.97
-38.50
-54.17
-66.49
-73.65
-75.02
-71.84
-66.28
-60.65
-56.58
-54.91
-55.86
-59.32
-64.82
-68.80
-68.11
-60.94
-48.07
-32.56
-18.15
-7.80
-2.64
-1.77
-2.85
-3.99
-3.88
-2.15
1.00
5.15
10.01
15.33
20.77
25.81
29.61
31.01
29.90
27.24
24.77
24.05
25.71
29.03
32.16
32.66
28.81
20.53
9.53
-1.43
-9.76
-14.22
-15.35
-14.96
-15.12
-16.92
-19.96
-22.84
-24.13
-23.24
-20.65
-17.41
-14.44
-11.98
-9.55
-6.39
-1.96
3.65
9.88
15.96
21.19
25.06
27.12
26.89
23.85
17.69
8.70
-1.98
-12.47
-20.70
-25.16
-25.58
-23.10
-19.77
-17.66
-17.88
-20.06
-22.56
-23.24
-20.45
-13.79
-4.20
6.51
16.39
24.09
29.06
31.59
32.54
33.10
34.48
37.70
43.27
50.94
59.76
68.25
74.99
79.04
80.17
78.60
74.69
68.59
60.19
49.34
36.25
21.60
6.55
-7.59
-19.63
-28.79
-34.77
-37.73
-38.17
-36.87
-34.67
-32.39
-30.64
-29.80
-29.89
-30.65
-31.61
-32.14
-31.55
-29.32
-25.22
-19.48
-12.87
-6.56
-1.81
0.35
-0.41
-3.55
-7.73
-11.27
-12.74
-11.38
-7.16
-0.62
7.48
16.30
24.94
32.18
36.52
36.48
31.34
22.06
11.15
1.89
-2.95
-2.35
2.45
8.53
12.52
12.22
7.92
1.81
-3.23
-5.22
-3.94
-0.79
2.15
3.22
1.97
-0.33
-2.08
-2.04
0.69
7.50
20.68
42.27
71.93
105.30
135.40
154.40
157.35
144.64
121.86
96.97
76.29
61.82
46.33
24.56
-3.74
-32.42
-53.44
-62.85
-62.82
-59.38
-58.28
-61.81
-67.44
-70.82
-68.64
-60.32
-48.68
-37.63
-30.31
-28.10
-30.38
-34.61
-38.15
-39.30
-37.90
-34.93
-31.54
-28.36
-25.79
-23.48
-20.59
-16.69
-12.02
-7.46
-4.04
-2.27
-1.97
-2.47
-2.99
-2.82
-1.76
-0.02
1.95
3.70
4.97
5.73
6.02
5.96
5.76
5.65
5.80
6.27
6.90
7.38
7.40
6.75
5.50
3.92
2.39
1.23
0.60
0.49
0.81
1.53
2.61
4.03
5.61
6.98
7.61
7.04
5.01
1.72
-2.23
-5.95
-8.54
-9.47
-8.71
-6.70
-4.21
-1.96
-0.41
0.32
0.37
0.01
-0.55
-1.19
-1.84
-2.44
-2.92
-3.28
-3.60
-4.02
-4.67
-5.57
-6.65
-7.76
-8.83
-9.87
-11.01
-12.34
-13.84
-15.30
-16.39
-16.74
-16.11
-14.51
-12.28
-9.98
-8.30
-7.86
-9.01
-11.70
-15.41
-19.15
-21.74
-22.07
-19.53
-14.19
-6.88
1.04
8.06
12.85
14.53
12.80
8.00
0.97
-7.09
-14.88
-21.46
-26.41
-29.90
-32.39
-34.26
-35.50
-35.87
-35.22
-33.77
-32.09
-30.72
-29.77
-28.79
-27.08
-24.25
-20.53
-16.73
-13.67
-11.68
-10.42
-9.14
-7.25
-4.73
-2.09
-0.02
1.04
1.15
0.66
-0.06
-0.88
-1.87
-3.05
-4.25
-5.00
-4.76
-3.27
-0.71
2.40
5.55
8.68
12.27
17.18
24.11
33.13
43.41
53.43
61.45
66.10
66.82
63.87
58.22
51.18
44.19
38.56
35.32
35.05
37.67
42.37
47.84
52.71
56.18
58.45
60.76
64.87
72.14
82.71
95.14
106.83
115.03
117.94
115.38
108.61
99.52
89.55
79.03
67.25
53.18
36.42
17.75
-0.93
-17.32
-29.57
-36.94
-39.97
-40.19
-39.79
-41.08
-46.08
-55.94
-70.35
-87.21
-102.96
-113.59
-116.24
-110.50
-98.87
-85.77
-75.66
-70.99
-71.22
-73.27
-73.27
-68.60
-59.15
-47.17
-35.90
-27.80
-23.28
-20.44
-16.03
-7.05
7.89
27.72
49.28
68.53
82.12
88.60
88.91
85.89
82.77
81.83
83.23
84.72
82.22
71.24
48.71
14.72
-26.81
-68.59
-101.95
-119.73
-118.99
-102.50
-78.32
-57.59
-51.04
-65.31
-100.56
-149.97
-201.64
-242.33
-261.56
-254.65
-223.42
-174.57
-116.73
-57.65
-2.82
44.48
82.31
109.67
126.17
132.58
130.78
123.45
113.22
101.92
90.36
78.64
66.49
53.72
40.58
27.80
16.59
8.26
3.67
2.58
3.45
3.90
1.66
-4.24
-13.02
-22.42
-29.77
-33.42
-33.29
-30.87
-28.39
-27.92
-30.41
-35.31
-40.67
-43.64
-41.66
-33.13
-18.55
-0.75
15.57
25.39
25.41
15.66
-0.32
-17.12
-29.35
-33.92
-30.79
-22.40
-12.03
-2.07
6.71
16.38
27.70
39.84
50.40
57.02
58.69
56.11
51.14
45.78
41.34
37.66
33.99
29.08
22.48
14.65
6.72
-0.04
-4.83
-7.58
-9.16
-9.46
-9.13
-8.39
-7.01
-4.57
-0.95
3.43
7.63
10.50
11.36
10.03
7.16
3.79
0.87
-1.06
-1.89
-1.89
-1.38
-0.68
-0.14
0.06
-0.05
-0.39
-0.82
-1.21
-1.49
-1.63
-1.68
-1.76
-1.89
-2.03
-2.14
-2.15
-2.03
-1.93
-1.81
-1.64
-1.38
-1.04
-0.63
-0.24
0.07
0.25
0.34
0.52
0.93
1.67
2.74
4.11
5.65
7.15
8.44
9.39
10.04
10.48
10.84
11.22
11.79
12.59
13.62
14.75
15.89
16.96
17.89
18.63
19.12
19.53
20.05
20.78
21.74
22.92
24.30
25.88
27.60
29.42
31.46
33.73
36.04
38.10
39.63
40.50
40.70
40.24
37.58
31.97
23.83
14.64
6.19
-0.25
-4.23
-5.97
-6.34
-6.18
-6.05
-6.44
-7.80
-10.53
-14.47
-19.29
-24.48
-29.61
-34.35
-38.38
-41.53
-43.70
-44.95
-45.39
-45.23
-44.67
-43.82
-42.57
-40.56
-37.51
-33.41
-28.66
-23.90
-19.78
-16.66
-14.50
-12.98
-11.63
-10.16
-8.50
-6.80
-5.24
-3.92
-2.79
-1.73
-0.66
0.44
1.54
2.60
3.66
4.85
6.37
8.33
10.70
13.21
15.48
17.06
17.63
17.08
15.48
13.02
9.85
6.11
1.89
-2.65
-7.25
-11.55
-15.18
-17.84
-19.37
-19.77
-19.19
-17.84
-15.95
-13.75
-11.46
-9.24
-7.15
-5.11
-2.89
-0.20
3.16
7.25
11.91
16.81
21.55
25.84
29.56
32.74
35.54
38.08
40.38
42.40
44.01
45.15
45.83
46.12
46.10
45.75
44.88
43.24
40.57
36.78
32.04
26.71
21.27
16.14
11.57
7.57
4.00
0.63
-2.76
-6.28
-9.92
-13.50
-16.75
-19.37
-21.16
-22.08
-22.27
-21.98
-21.47
-20.88
-20.26
-19.65
-19.08
-18.65
-18.40
-18.23
-17.96
-17.34
-16.16
-14.36
-12.06
-9.48
-6.94
-4.70
-2.95
-1.87
-1.55
-1.92
-2.81
-3.92
-4.94
-5.68
-6.06
-6.09
-6.19
-6.78
-8.08
-10.01
-12.24
-14.31
-15.94
-16.97
-17.32
-17.56
-18.30
-19.72
-21.50
-23.07
-23.76
-23.54
-22.55
-21.04
-20.03
-20.39
-22.22
-24.87
-27.49
-29.22
-30.23
-30.88
-31.38
-32.97
-36.80
-43.36
-52.36
-63.19
-74.80
-86.83
-98.75
-103.16
-95.37
-76.15
-51.29
-27.17
-10.40
0.83
8.56
13.95
17.41
18.76
17.37
13.66
9.33
6.36
6.60
9.97
15.44
21.60
26.37
28.35
27.70
26.03
25.39
27.66
33.12
41.21
51.00
61.04
70.04
77.40
83.12
87.39
90.41
91.75
90.93
87.61
81.46
72.36
60.59
46.77
31.66
16.12
0.82
-13.59
-26.45
-37.32
-45.98
-52.28
-56.09
-57.27
-55.70
-51.39
-44.50
-35.28
-24.06
-11.21
2.78
17.21
31.09
43.22
52.38
57.52
57.95
53.39
43.92
29.91
12.13
-8.23
-29.59
-50.06
-67.83
-81.41
-89.95
-93.25
-91.68
-85.98
-77.01
-65.60
-52.49
-38.40
-24.03
-10.09
2.80
14.19
23.87
31.90
38.49
43.84
47.99
50.70
51.56
50.14
46.28
40.18
32.46
23.97
15.63
8.16
1.96
-2.86
-6.38
-8.74
-10.12
-10.67
-10.58
-10.10
-9.54
-9.24
-9.51
-10.56
-12.37
-14.65
-16.85
-18.25
-18.23
-16.38
-12.72
-7.64
-1.78
4.22
9.82
14.65
18.54
21.37
23.13
23.82
23.51
22.32
20.43
18.13
15.80
13.85
12.61
12.20
12.46
13.01
13.41
13.41
13.01
12.49
12.16
12.12
12.26
12.29
11.98
11.34
10.59
10.07
10.03
10.44
11.06
11.58
11.72
11.42
10.76
9.89
8.94
7.92
6.79
5.42
3.72
1.73
-0.36
-2.18
-3.29
-3.39
-2.40
-0.58
1.61
3.67
5.24
6.15
6.32
5.73
4.30
2.00
-1.10
-4.72
-8.47
-11.97
-14.99
-17.58
-19.96
-22.40
-25.05
-27.90
-30.74
-33.36
-35.59
-37.39
-38.79
-39.82
-40.24
-39.54
-36.89
-31.54
-23.18
-12.38
-0.61
10.11
17.88
21.63
21.44
18.50
14.44
10.66
7.90
6.20
5.28
4.99
5.53
7.34
10.73
15.58
21.24
26.74
31.15
33.86
34.78
34.11
32.21
29.29
25.43
20.68
15.29
9.82
5.03
1.69
0.23
0.64
2.46
4.94
7.30
8.91
9.43
8.80
7.22
5.09
2.88
0.99
-0.28
-0.87
-0.83
-0.36
0.34
1.05
1.57
1.74
1.49
0.84
-0.03
-0.91
-1.58
-1.95
-2.07
-2.05
-2.06
-2.23
-2.62
-3.29
-4.27
-5.58
-7.19
-9.04
-11.00
-12.90
-14.58
-15.91
-16.82
-17.25
-17.20
-16.66
-15.71
-14.42
-12.87
-11.01
-8.61
-5.33
-0.78
5.21
12.46
20.31
27.81
33.96
37.99
39.62
39.07
36.93
33.93
30.71
27.72
25.13
22.93
21.04
19.31
17.57
15.66
13.40
10.69
7.57
4.20
0.84
-2.26
-4.92
-7.10
-8.91
-10.46
-11.91
-13.31
-14.69
-16.06
-17.38
-18.61
-19.69
-20.56
-21.16
-21.47
-21.50
-21.29
-20.91
-20.39
-19.79
-19.16
-18.52
-17.80
-16.91
-15.68
-13.96
-11.69
-8.90
-5.68
-2.18
1.47
5.16
8.83
12.37
15.67
18.57
20.87
22.39
23.01
22.78
21.83
20.43
18.87
17.35
15.97
14.70
13.47
12.26
11.07
9.93
8.92
8.07
7.44
7.14
7.30
8.03
9.29
10.82
12.13
12.63
11.75
9.21
5.09
-0.18
-5.98
-11.69
-16.81
-21.05
-24.28
-26.46
-27.59
-27.69
-26.83
-25.15
-22.90
-20.31
-17.64
-15.06
-12.68
-10.59
-8.88
-7.61
-6.84
-6.55
-6.63
-6.95
-7.40
-7.95
-8.62
-9.46
-10.44
-11.43
-12.23
-12.67
-12.72
-12.45
-12.05
-11.64
-11.25
-10.78
-10.06
-8.98
-7.49
-5.69
-3.77
-1.93
-0.39
0.70
1.29
1.41
1.21
0.89
0.67
0.71
1.05
1.66
2.40
3.10
3.64
3.92
3.96
3.81
3.56
3.31
3.13
3.08
3.14
3.29
3.44
3.48
3.34
2.99
2.49
1.93
1.42
1.04
0.82
0.74
0.76
0.86
1.00
1.13
1.19
1.11
0.91
0.66
0.45
0.37
0.40
0.47
0.45
0.30
0.05
-0.20
-0.33
-0.32
-0.21
-0.14
-0.20
-0.42
-0.69
-0.90
-0.95
-0.84
-0.61
-0.36
-0.13
0.06
0.21
0.31
0.33
0.25
0.08
-0.13
-0.31
-0.41
-0.40
-0.29
-0.13
0.05
0.20
0.27
0.24
0.15
0.06
0.06
0.22
0.54
0.91
1.23
1.38
1.36
1.23
1.07
0.97
0.91
0.88
0.83
0.74
0.65
0.59
0.57
0.55
0.47
0.29
0.02
-0.28
-0.55
-0.73
-0.82
-0.83
-0.80
-0.73
-0.62
-0.45
-0.23
0.06
0.38
0.74
1.10
1.46
1.79
2.07
2.22
2.20
1.98
1.62
1.22
0.90
0.75
0.78
0.91
1.03
1.03
0.92
0.73
0.56
0.47
0.49
0.55
0.60
0.56
0.39
0.11
-0.23
-0.54
-0.77
-0.89
-0.93
-0.98
-1.10
-1.32
-1.58
-1.79
-1.88
-1.83
-1.72
-1.66
-1.78
-2.11
-2.61
-3.12
-3.50
-3.66
-3.63
-3.53
-3.52
-3.69
-4.00
-4.31
-4.42
-4.22
-3.70
-2.98
-2.24
-1.62
-1.22
-1.08
-1.16
-1.39
-1.65
-1.77
-1.56
-0.89
0.22
1.60
2.99
4.14
4.92
5.35
5.55
5.68
5.80
5.92
5.96
5.88
5.71
5.53
5.44
5.50
5.68
5.88
5.98
5.91
5.63
5.19
4.68
4.20
3.86
3.71
3.73
3.86
4.03
4.21
4.40
4.68
5.11
5.68
6.28
6.73
6.85
6.61
6.14
5.68
5.48
5.65
6.09
6.50
6.55
5.98
4.76
3.04
1.10
-0.77
-2.41
-3.79
-4.96
-5.99
-6.89
-7.66
-8.25
-8.65
-8.87
-8.90
-8.72
-8.28
-7.55
-6.54
-5.33
-4.09
-3.01
-2.27
-1.96
-2.09
-2.52
-3.05
-3.46
-3.61
-3.41
-2.88
-2.08
-1.08
0.09
1.38
2.74
4.03
5.08
5.68
5.71
5.18
4.23
3.09
2.05
1.29
0.91
0.87
1.07
1.39
1.71
1.92
1.90
1.52
0.73
-0.39
-1.62
-2.66
-3.25
-3.26
-2.74
-1.88
-0.95
-0.12
0.48
0.79
0.83
0.65
0.38
0.14
0.04
0.11
0.27
0.37
0.29
0.02
-0.36
-0.71
-0.92
-0.99
-0.98
-0.99
-1.07
-1.21
-1.34
-1.40
-1.36
-1.25
-1.12
-0.97
-0.81
-0.58
-0.26
0.16
0.60
0.98
1.18
1.14
0.84
0.34
-0.24
-0.78
-1.16
-1.33
-1.32
-1.17
-0.96
-0.80
-0.77
-0.93
-1.28
-1.77
-2.29
-2.72
-2.96
-3.00
-2.91
-2.77
-2.67
-2.65
-2.68
-2.70
-2.67
-2.53
-2.29
-1.95
-1.53
-1.11
-0.73
-0.49
-0.43
-0.56
-0.84
-1.17
-1.44
-1.51
-1.33
-0.90
-0.29
0.38
1.01
1.58
2.11
2.69
3.31
3.92
4.39
4.62
4.60
4.46
4.37
4.46
4.73
5.05
5.23
5.12
4.68
4.00
3.29
2.76
2.58
2.75
3.09
3.28
2.97
1.87
-0.06
-2.61
-5.29
-7.55
-8.85
-8.83
-7.35
-4.47
-0.46
4.25
9.16
13.80
17.87
21.28
24.12
26.48
28.28
29.18
28.60
26.08
21.50
15.35
8.62
2.54
-1.91
-4.31
-4.88
-4.32
-3.50
-3.01
-3.09
-3.64
-4.35
-5.00
-5.55
-6.17
-7.09
-8.45
-10.21
-12.13
-13.86
-15.08
-15.60
-15.47
-14.85
-13.99
-13.07
-12.18
-11.33
-10.53
-9.87
-9.53
-9.68
-10.37
-11.47
-12.67
-13.59
-13.95
-13.70
-12.99
-11.99
-10.78
-9.22
-7.06
-4.16
-0.64
3.11
6.56
9.32
11.23
12.37
12.88
12.74
11.80
9.80
6.69
2.78
-1.18
-4.17
-5.16
-3.41
1.22
8.17
16.23
23.80
29.28
31.56
30.31
26.02
19.78
12.87
6.35
0.82
-3.52
-6.69
-8.78
-9.88
-10.08
-9.63
-8.89
-8.24
-8.02
-8.32
-9.01
-9.77
-10.29
-10.41
-10.18
-9.82
-9.55
-9.61
-10.07
-10.90
-11.91
-12.87
-13.59
-14.01
-14.06
-13.70
-12.92
-11.74
-10.23
-8.46
-6.55
-4.64
-2.85
-1.06
0.95
3.40
6.37
9.75
13.27
16.66
19.71
21.50
21.29
18.96
15.18
11.04
7.35
4.47
2.40
0.94
-0.13
-0.83
-1.10
-0.86
-0.09
1.04
2.33
3.49
4.29
4.56
4.40
4.17
4.01
4.00
4.00
3.83
3.27
2.22
0.74
-0.90
-2.35
-3.33
-3.75
-3.70
-3.38
-2.94
-2.48
-2.01
-1.54
-1.04
-0.60
-0.13
0.34
0.76
1.08
1.30
1.42
1.54
1.79
2.26
2.98
3.82
4.63
5.25
5.58
5.67
5.60
5.46
5.26
4.98
4.55
3.94
3.18
2.33
1.46
0.64
-0.10
-0.72
-1.20
-1.52
-1.66
-1.63
-1.44
-1.15
-0.83
-0.55
-0.37
-0.30
-0.30
-0.28
-0.13
0.24
0.89
1.78
2.80
3.77
4.48
4.81
4.78
4.57
4.46
4.70
5.42
6.59
8.00
9.46
10.79
11.91
12.78
13.36
13.56
13.32
12.66
11.72
10.69
9.70
8.67
7.36
5.44
2.77
-0.56
-4.20
-7.71
-10.79
-13.38
-15.60
-17.67
-19.74
-21.81
-23.74
-25.40
-26.70
-27.61
-28.13
-28.22
-27.82
-26.87
-25.42
-23.64
-21.80
-20.17
-18.88
-17.95
