1528937361.00
64.000000
-0.00
-0.00
-0.00
-0.00
-0.00
-0.00
-0.00
-0.00
-0.00
-0.00
0.00
0.01
0.01
-0.00
-0.03
-0.05
-0.05
0.00
0.13
0.36
0.66
1.01
1.37
1.72
2.06
2.40
2.79
3.24
3.80
4.42
5.06
5.66
6.20
6.68
7.15
7.68
8.31
9.14
10.09
11.04
11.88
12.56
13.14
13.76
14.65
15.96
17.91
20.32
22.90
25.38
27.58
29.57
31.68
34.32
37.81
42.54
48.15
54.11
59.84
64.97
69.58
74.14
79.34
85.72
93.79
103.05
112.67
121.74
129.69
136.53
142.93
150.22
157.15
165.98
177.28
191.14
206.30
219.82
227.37
224.33
207.35
175.61
131.50
78.84
21.90
-36.16
-93.84
-150.88
-207.33
-262.81
-316.37
-366.52
-412.37
-453.39
-489.17
-518.95
-541.35
-554.43
-556.16
-545.19
-521.19
-485.47
-440.50
-389.31
-334.84
-279.34
-224.22
-170.22
-117.84
-67.72
-21.04
20.76
56.32
84.83
106.38
121.95
133.03
141.10
147.21
151.64
154.11
154.06
150.89
144.19
133.94
120.85
106.72
94.39
87.20
87.79
96.80
112.22
129.84
144.81
153.50
154.77
149.96
141.74
132.68
124.22
116.47
108.82
100.58
91.55
82.03
72.74
64.18
56.68
50.24
44.66
39.59
34.70
29.92
25.50
21.96
19.86
19.64
21.46
25.21
30.43
36.10
40.57
41.75
37.83
28.06
13.47
-3.28
-18.80
-30.17
-36.03
-36.83
-34.26
-30.23
-26.08
-22.22
-18.48
-14.66
-10.93
-7.87
-6.07
-5.79
-6.67
-7.86
-8.35
-7.35
-4.61
-0.40
4.66
9.88
14.72
18.76
21.68
23.13
22.83
20.63
16.65
11.33
5.43
-0.17
-4.66
-7.39
-8.13
-7.07
-4.78
-2.09
0.07
0.94
0.12
-2.31
-5.74
-9.24
-11.85
-12.89
-12.27
-10.36
-7.93
-5.77
-4.36
-3.78
-3.75
-3.83
-3.65
-2.98
-1.77
-0.09
1.96
4.24
6.60
8.85
10.81
12.25
13.00
12.98
12.24
10.99
9.62
8.49
7.83
7.53
7.26
6.45
4.72
2.06
-1.19
-4.46
-7.35
-9.69
-11.65
-13.45
-15.21
-16.81
-17.98
-18.50
-18.36
-17.78
-17.07
-16.47
-16.05
-15.73
-15.40
-15.04
-14.60
-14.01
-13.03
-11.33
-8.62
-4.91
-0.54
3.92
7.86
10.82
12.53
12.87
11.76
9.16
5.20
0.32
-4.72
-9.08
-12.17
-13.89
-14.65
-15.12
-15.90
-17.25
-19.09
-21.16
-23.15
-24.87
-26.23
-27.30
-28.17
-28.97
-29.79
-30.68
-31.73
-32.99
-34.52
-36.33
-38.40
-40.59
-42.67
-44.49
-45.76
-46.45
-46.61
-46.19
-44.88
-42.14
-37.46
-30.65
-22.08
-12.60
-3.37
4.59
10.65
14.72
17.14
18.54
19.52
20.49
21.64
22.83
23.84
24.49
24.68
24.38
23.52
21.92
19.39
15.80
11.10
5.40
-1.02
-7.65
-13.66
-17.97
-19.55
-17.80
-13.00
-6.25
0.91
7.19
12.06
15.80
19.09
22.50
26.13
29.72
33.00
36.02
39.20
42.95
47.42
52.30
56.96
60.78
63.38
64.74
65.01
64.32
62.68
60.01
56.33
51.85
46.99
42.27
38.16
34.93
32.63
31.11
30.08
29.18
28.03
26.33
24.06
21.54
19.40
18.47
19.42
22.58
27.77
34.46
41.91
49.42
56.32
62.02
65.90
67.32
65.77
61.00
53.14
42.73
30.57
17.55
4.44
-8.10
-19.54
-29.36
-37.04
-42.13
-44.49
-44.38
-42.49
-39.72
-36.96
-34.91
-34.02
-34.51
-36.32
-39.07
-42.01
-44.09
-44.35
-42.28
-38.11
-32.66
-26.97
-21.66
-16.64
-11.17
-4.36
4.28
14.45
25.17
35.11
43.09
48.33
50.67
50.44
48.37
45.30
42.01
39.03
36.55
34.49
32.67
30.89
29.02
27.00
24.67
21.76
17.96
13.00
6.88
-0.09
-7.39
-14.36
-20.47
-25.38
-29.00
-31.49
-33.14
-34.24
-34.97
-35.34
-35.25
-34.64
-33.57
-32.32
-31.24
-30.60
-30.46
-30.56
-30.50
-29.85
-28.39
-26.21
-23.66
-21.20
-19.22
-17.95
-17.35
-17.21
-17.25
-17.24
-17.05
-16.70
-16.25
-15.76
-15.25
-14.69
-14.04
-13.33
-12.60
-11.98
-11.55
-11.30
-11.13
-10.84
-10.21
-9.10
-7.49
-5.51
-3.37
-1.34
0.37
1.62
2.40
2.79
2.95
2.95
2.82
2.51
1.92
1.05
-0.00
-1.03
-1.87
-2.43
-2.81
-3.18
-3.68
-4.31
-4.97
-5.54
-5.96
-6.29
-6.69
-7.30
-8.19
-9.32
-10.56
-11.77
-12.81
-13.54
-13.88
-13.77
-13.23
-12.33
-11.19
-9.91
-8.58
-7.29
-6.12
-5.16
-4.47
-4.09
-3.97
-4.07
-4.31
-4.68
-5.16
-5.70
-6.21
-6.55
-6.63
-6.43
-6.06
-5.69
-5.47
-5.44
-5.54
-5.63
-5.60
-5.48
-5.42
-5.62
-6.21
-7.13
-8.17
-9.08
-9.62
-9.70
-9.34
-8.64
-7.68
-6.53
-5.27
-3.97
-2.77
-1.82
-1.18
-0.87
-0.80
-0.88
-0.99
-1.09
-1.18
-1.29
-1.46
-1.72
-2.07
-2.45
-2.81
-3.13
-3.41
-3.71
-4.09
-4.60
-5.22
-5.90
-6.56
-7.12
-7.56
-7.91
-8.24
-8.65
-9.19
-9.85
-10.56
-11.16
-11.49
-11.43
-10.99
-10.25
-9.38
-8.51
-7.72
-7.05
-6.50
-6.06
-5.76
-5.61
-5.61
-5.75
-6.02
-6.39
-6.88
-7.51
-8.27
-9.13
-10.03
-10.89
-11.65
-12.32
-12.97
-13.67
-14.47
-15.38
-16.27
-17.02
-17.48
-17.61
-17.50
-17.36
-17.41
-17.82
-18.55
-19.38
-19.99
-20.03
-19.34
-17.93
-16.00
-13.86
-11.81
-10.09
-8.87
-8.29
-8.43
-9.25
-10.51
-11.79
-12.52
-12.19
-10.53
-7.61
-3.78
0.47
4.66
8.53
11.92
14.81
17.16
18.87
19.84
20.02
19.45
18.32
16.88
15.36
13.93
12.63
11.45
10.29
9.03
7.55
5.76
3.64
1.32
-0.84
-2.38
-2.83
-1.92
0.30
3.41
6.84
9.97
12.41
13.99
14.74
14.80
14.33
13.53
12.61
11.78
11.19
10.93
10.95
11.15
11.41
11.64
11.81
11.85
11.72
11.34
10.66
9.66
8.35
6.78
5.01
3.11
1.14
-0.82
-2.76
-4.68
-6.65
-8.66
-10.60
-12.23
-13.22
-13.34
-12.50
-10.85
-8.73
-6.49
-4.42
-2.70
-1.36
-0.43
0.12
0.31
0.21
-0.02
-0.24
-0.29
-0.13
0.19
0.51
0.67
0.52
0.08
-0.59
-1.34
-2.11
-2.86
-3.63
-4.42
-5.16
-5.71
-5.89
-5.56
-4.64
-3.10
-0.98
1.72
5.02
8.98
13.64
18.99
24.93
31.28
37.66
43.58
48.38
51.48
52.44
51.17
47.99
43.59
38.80
34.38
30.79
28.12
26.12
24.40
22.62
20.52
18.02
15.05
11.57
7.48
2.77
-2.50
-8.09
-13.73
-19.14
-24.24
-29.08
-33.78
-38.37
-42.72
-46.55
-49.47
-51.09
-51.06
-49.14
-45.23
-39.45
-32.19
-24.10
-15.99
-8.61
-2.54
1.98
4.97
6.65
7.30
7.22
6.75
6.24
6.02
6.21
6.78
7.52
8.27
9.09
10.21
11.98
14.62
18.04
21.89
25.68
28.98
31.59
33.59
35.25
36.87
38.70
40.88
43.44
46.34
49.44
52.49
55.13
56.91
57.33
56.01
52.84
47.98
41.79
34.55
26.29
16.73
5.56
-7.15
-20.62
-33.46
-44.05
-51.21
-54.71
-55.33
-54.51
-53.67
-53.65
-54.50
-55.68
-56.45
-56.31
-55.15
-53.17
-50.60
-47.52
-43.72
-38.93
-32.98
-25.99
-18.32
-10.40
-2.40
5.87
14.87
25.04
36.42
48.46
60.07
69.94
76.92
80.45
80.59
77.99
73.55
68.17
62.55
57.05
51.80
46.80
42.06
37.65
33.71
30.32
27.37
24.59
21.58
18.01
13.82
9.35
5.25
2.18
0.46
-0.19
-0.60
-1.87
-4.84
-9.80
-16.30
-23.37
-29.93
-35.10
-38.47
-40.18
-40.83
-41.44
-43.40
-48.18
-56.91
-69.58
-84.56
-98.80
-108.78
-111.92
-107.75
-98.04
-85.89
-74.19
-64.39
-56.23
-48.49
-40.18
-31.30
-22.85
-16.03
-11.39
-8.46
-6.03
-2.88
1.48
6.70
11.79
15.70
17.78
18.02
16.93
15.26
13.68
12.56
12.00
11.88
12.09
12.63
13.63
15.24
17.49
20.23
23.05
25.48
27.04
27.46
26.73
25.15
23.15
21.20
19.59
18.41
17.56
16.82
15.99
14.98
13.77
12.41
10.97
9.46
7.89
6.26
4.60
3.04
1.74
0.86
0.47
0.53
0.81
1.05
1.01
0.56
-0.22
-1.09
-1.73
-1.85
-1.29
-0.06
1.63
3.51
5.29
6.78
7.93
8.80
9.49
10.07
10.54
10.84
10.90
10.70
10.27
9.72
9.15
8.68
8.32
8.03
7.73
7.32
6.75
5.99
5.09
4.16
3.31
2.66
2.18
1.80
1.32
0.54
-0.67
-2.32
-4.31
-6.44
-8.47
-10.15
-11.24
-11.57
-11.08
-9.83
-8.01
-5.89
-3.74
-1.73
0.12
1.90
3.73
5.66
7.65
9.52
11.09
12.25
13.07
13.74
14.50
15.48
16.62
17.73
18.57
19.04
19.23
19.38
19.76
20.53
21.65
22.92
24.11
24.98
25.43
25.44
25.10
24.56
24.02
23.63
23.47
23.51
23.63
23.66
23.44
22.93
22.11
21.02
19.65
18.02
16.18
14.23
12.31
10.52
8.91
7.42
6.00
4.60
3.28
2.07
1.00
-0.01
-1.08
-2.32
-3.74
-5.18
-6.42
-7.28
-7.72
-7.88
-7.98
-8.19
-8.58
-9.08
-9.59
-10.04
-10.42
-10.76
-11.05
-11.21
-11.07
-10.49
-9.43
-7.93
-6.17
-4.34
-2.68
-1.36
-0.54
-0.29
-0.61
-1.34
-2.24
-3.04
-3.50
-3.51
-3.11
-2.45
-1.74
-1.17
-0.82
-0.71
-0.78
-0.92
-1.08
-1.20
-1.27
-1.29
-1.25
-1.13
-0.94
-0.69
-0.48
-0.40
-0.55
-0.99
-1.69
-2.58
-3.53
-4.38
-4.95
-5.06
-4.60
-3.55
-2.01
-0.22
1.54
3.04
4.14
4.81
5.14
5.20
5.09
4.84
4.47
4.03
3.55
3.10
2.74
2.55
2.55
2.75
3.07
3.41
3.64
3.61
3.28
2.58
1.56
0.30
-1.05
-2.32
-3.38
-4.17
-4.76
-5.30
-5.94
-6.77
-7.71
-8.58
-9.21
-9.46
-9.31
-8.84
-8.13
-7.24
-6.19
-5.05
-3.97
-3.14
-2.76
-2.89
-3.43
-4.15
-4.83
-5.29
-5.55
-5.70
-5.88
-6.15
-6.47
-6.77
-6.96
-7.02
-6.99
-6.95
-6.92
-6.93
-6.94
-6.95
-6.95
-6.97
-7.05
-7.20
-7.43
-7.71
-8.00
-8.25
-8.42
-8.48
-8.49
-8.47
-8.49
-8.50
-8.39
-7.97
-7.07
-5.63
-3.76
-1.70
0.24
1.79
2.83
3.37
3.51
3.39
3.15
2.86
2.61
2.42
2.34
2.39
2.54
2.75
2.93
2.97
2.82
2.44
1.87
1.20
0.54
-0.04
-0.49
-0.79
-0.93
-0.92
-0.78
-0.55
-0.33
-0.18
-0.19
-0.38
-0.73
-1.19
-1.72
-2.33
-2.98
-3.62
-4.10
-4.18
-3.68
-2.51
-0.80
1.16
3.04
4.55
5.59
6.21
6.54
6.70
6.68
6.46
6.01
5.42
4.82
4.40
4.25
4.37
4.62
4.83
4.84
4.57
4.01
3.24
2.36
1.52
0.80
0.28
-0.05
-0.30
-0.54
-0.88
-1.31
-1.82
-2.34
-2.85
-3.36
-3.95
-4.64
-5.44
-6.26
-6.94
-7.31
-7.23
-6.63
-5.54
-4.07
-2.37
-0.59
1.13
2.69
4.04
5.15
6.01
6.59
6.89
6.89
6.60
6.04
5.29
4.44
3.64
2.99
2.56
2.33
2.20
2.07
1.85
1.51
1.08
0.59
0.08
-0.41
-0.85
-1.21
-1.43
-1.50
-1.44
-1.33
-1.28
-1.38
-1.66
-2.09
-2.62
-3.13
-3.51
-3.59
-3.25
-2.38
-0.95
0.92
2.99
4.97
6.55
7.50
7.68
7.00
5.50
3.22
0.32
-2.99
-6.42
-9.68
-12.48
-14.61
-16.04
-16.92
-17.54
-18.27
-19.35
-20.84
-22.61
-24.39
-25.99
-27.34
-28.49
-29.47
-30.26
-30.69
-30.55
-29.74
-28.35
-26.64
-24.94
-23.48
-22.27
-21.12
-19.71
-17.73
-15.04
-11.69
-7.93
-4.08
-0.42
2.89
5.81
8.28
10.24
11.53
11.99
11.55
10.30
8.45
6.27
3.95
1.65
-0.56
-2.51
-3.95
-4.64
-4.40
-3.29
-1.58
0.28
1.87
2.90
3.28
3.14
2.72
2.25
1.86
1.54
1.24
0.90
0.50
0.11
-0.22
-0.47
-0.69
-0.95
-1.29
-1.62
-1.76
-1.52
-0.79
0.40
1.83
3.19
4.19
4.71
4.77
4.55
4.22
3.90
3.59
3.25
2.84
2.40
1.97
1.64
1.43
1.30
1.24
1.22
1.30
1.55
2.03
2.73
3.58
4.49
5.40
6.25
6.98
7.53
7.81
7.77
7.38
6.69
5.80
4.78
3.73
2.70
1.80
1.15
0.90
1.12
1.77
2.70
3.65
4.43
4.96
5.27
5.46
5.58
5.62
5.45
5.00
4.25
3.29
2.30
1.42
0.76
0.29
-0.03
-0.26
-0.45
-0.60
-0.75
-0.90
-1.06
-1.16
-1.13
-0.86
-0.34
0.36
1.07
1.62
1.86
1.74
1.24
0.39
-0.75
-2.03
-3.24
-4.10
-4.39
-4.03
-3.14
-2.05
-1.08
-0.46
-0.15
0.04
0.38
0.98
1.80
2.63
3.26
3.60
3.74
3.90
4.27
4.97
5.90
6.90
7.75
8.34
8.65
8.74
8.67
8.47
8.12
7.60
6.92
6.10
5.20
4.27
3.32
2.35
1.36
0.35
-0.61
-1.43
-2.04
-2.37
-2.46
-2.39
-2.32
-2.40
-2.71
-3.21
-3.78
-4.22
-4.41
-4.33
-4.07
-3.75
-3.48
-3.25
-2.99
-2.57
-1.97
-1.21
-0.41
0.35
1.04
1.76
2.59
3.58
4.65
5.67
6.46
6.90
6.99
6.80
6.45
6.03
5.60
5.17
4.75
4.33
3.92
3.51
3.13
2.79
2.51
2.29
2.14
2.03
1.93
1.84
1.76
1.74
1.81
2.01
2.36
2.80
3.27
3.66
3.89
3.89
3.62
3.13
2.53
1.97
1.64
1.60
1.85
2.25
2.67
2.97
3.09
3.06
2.96
2.86
2.78
2.71
2.60
2.38
1.98
1.35
0.52
-0.46
-1.49
-2.44
-3.20
-3.70
-3.91
-3.87
-3.61
-3.21
-2.77
-2.38
-2.11
-2.00
-1.98
-1.98
-1.93
-1.82
-1.67
-1.54
-1.50
-1.57
-1.74
-2.01
-2.37
-2.79
-3.22
-3.57
-3.75
-3.70
-3.47
-3.15
-2.90
-2.75
-2.67
-2.49
-2.02
-1.14
0.15
1.70
3.32
4.84
6.17
7.31
8.35
9.38
10.42
11.43
12.29
12.82
12.92
12.56
11.79
10.79
9.76
8.88
8.33
8.21
8.54
9.23
10.11
10.92
11.44
11.53
11.20
10.62
10.02
9.60
9.47
9.63
9.93
10.21
10.25
9.92
9.13
7.90
6.35
4.65
2.97
1.49
0.33
-0.47
-0.96
-1.24
-1.47
-1.74
-2.11
-2.54
-2.92
-3.18
-3.28
-3.24
-3.14
-3.02
-2.90
-2.73
-2.44
-2.00
-1.43
-0.86
-0.49
-0.50
-1.01
-2.03
-3.44
-5.03
-6.58
-7.91
-8.92
-9.56
-9.82
-9.68
-9.15
-8.26
-7.08
-5.76
-4.52
-3.56
-3.06
-3.10
-3.57
-4.29
-4.99
-5.45
-5.57
-5.38
-4.98
-4.55
-4.21
-4.12
-4.37
-5.03
-6.08
-7.34
-8.53
-9.36
-9.63
-9.35
-8.67
-7.85
-7.12
-6.57
-6.19
-5.87
-5.52
-5.12
-4.68
-4.28
-3.99
-3.86
-3.89
-4.04
-4.19
-4.20
-3.95
-3.40
-2.62
-1.81
-1.17
-0.89
-1.01
-1.49
-2.19
-3.00
-3.81
-4.56
-5.15
-5.47
-5.45
-5.07
-4.48
-3.90
-3.58
-3.69
-4.20
-4.94
-5.61
-5.93
-5.77
-5.17
-4.28
-3.29
-2.36
-1.53
-0.80
-0.15
0.43
0.90
1.23
1.43
1.59
1.77
2.04
2.40
2.81
3.17
3.40
3.43
3.28
2.98
2.62
2.26
1.88
1.41
0.83
0.18
-0.37
-0.58
-0.31
0.45
1.47
2.42
2.95
2.89
2.22
1.11
-0.19
-1.43
-2.38
-2.89
-2.91
-2.46
-1.65
-0.59
0.61
1.85
3.05
4.09
4.87
5.30
5.40
5.22
4.90
4.51
4.09
3.63
3.12
2.60
2.12
1.75
1.51
1.35
1.18
0.93
0.56
0.08
-0.48
-1.09
-1.72
-2.34
-2.88
-3.27
-3.41
-3.26
-2.84
-2.27
-1.69
-1.26
-1.08
-1.14
-1.35
-1.56
-1.63
-1.46
-1.04
-0.41
0.34
1.12
1.87
2.58
3.25
3.91
4.54
5.09
5.55
5.91
6.23
6.55
6.89
7.22
7.43
7.39
7.02
6.34
5.45
4.53
3.73
3.11
2.67
2.30
1.83
1.08
-0.10
-1.77
-3.83
-6.03
-8.00
-9.42
-10.05
-9.88
-9.06
-7.87
-6.56
-5.31
-4.23
-3.33
-2.64
-2.17
-1.90
-1.77
-1.67
-1.50
-1.23
-0.89
-0.56
-0.34
-0.29
-0.40
-0.64
-0.99
-1.40
-1.85
-2.35
-2.92
-3.58
-4.36
-5.21
-6.01
-6.62
-6.92
-6.86
-6.53
-5.99
-5.32
-4.49
-3.44
-2.10
-0.54
1.11
2.67
4.01
5.10
5.98
6.66
7.12
7.30
7.16
6.75
6.19
5.67
5.29
5.08
4.99
4.88
4.67
4.33
3.90
3.49
3.19
3.02
2.96
2.91
2.80
2.56
2.20
1.76
1.31
0.87
0.40
-0.17
-0.89
-1.76
-2.68
-3.46
-3.89
-3.79
-3.14
-2.05
-0.77
0.40
1.21
1.58
1.54
1.28
0.98
0.80
0.78
0.87
0.97
1.01
0.99
0.91
0.87
0.89
0.96
1.00
0.94
0.73
0.40
0.04
-0.24
-0.41
-0.48
-0.55
-0.68
-0.88
-1.08
-1.19
-1.13
-0.93
-0.68
-0.49
-0.42
-0.41
-0.38
-0.21
0.13
0.62
1.16
1.64
1.95
2.04
1.91
1.60
1.19
0.78
0.44
0.22
0.09
0.03
-0.00
-0.02
0.01
0.12
0.30
0.49
0.64
0.73
0.74
0.71
0.63
0.47
0.18
-0.26
-0.81
-1.37
-1.85
-2.16
-2.28
-2.26
-2.17
-2.01
-1.77
-1.35
-0.71
0.10
0.94
1.58
1.87
1.77
1.40
0.94
0.58
0.43
0.45
0.56
0.62
0.56
0.36
0.06
-0.25
-0.48
-0.55
-0.45
-0.24
-0.02
0.14
0.17
0.09
-0.03
-0.14
-0.25
-0.38
-0.60
-0.95
-1.39
-1.83
-2.16
-2.28
-2.17
-1.86
-1.48
-1.14
-0.89
-0.71
-0.51
-0.23
0.16
0.56
0.87
0.96
0.82
0.48
0.02
-0.46
-0.90
-1.24
-1.45
-1.51
-1.43
-1.22
-0.91
-0.52
-0.09
0.31
0.61
0.72
0.62
0.32
-0.06
-0.42
-0.69
-0.90
-1.14
-1.46
-1.84
-2.19
-2.41
-2.49
-2.53
-2.61
-2.79
-2.95
-2.93
-2.55
-1.83
-0.97
-0.26
0.05
-0.08
-0.47
-0.84
-0.99
-0.85
-0.57
-0.32
-0.23
-0.31
-0.42
-0.45
-0.32
-0.08
0.17
0.32
0.32
0.17
-0.11
-0.50
-0.99
-1.56
-2.15
-2.63
-2.93
-3.01
-2.94
-2.87
-2.90
-3.14
-3.58
-4.16
-4.81
-5.42
-5.89
-6.14
-6.07
-5.62
-4.78
-3.59
-2.19
-0.75
0.58
1.68
2.51
3.09
3.49
3.77
3.97
4.10
4.16
4.15
4.12
4.10
4.12
4.20
4.32
4.46
4.58
4.61
4.47
4.13
3.59
2.97
2.37
1.92
1.63
1.41
1.16
0.80
0.36
-0.09
-0.45
-0.71
-0.93
-1.17
-1.43
-1.65
-1.67
-1.38
-0.78
0.04
0.89
1.60
2.09
2.36
2.46
2.45
2.37
2.21
1.97
1.68
1.38
1.14
1.00
0.99
1.08
1.21
1.30
1.28
1.09
0.76
0.37
0.00
-0.23
-0.31
-0.26
-0.15
-0.05
-0.04
-0.13
-0.33
-0.62
-0.96
-1.33
-1.67
-1.93
-2.04
-1.98
-1.80
-1.57
-1.36
-1.19
-1.03
-0.77
-0.37
0.19
0.81
1.37
1.78
2.03
2.16
2.25
2.30
2.25
2.01
1.57
0.99
0.40
-0.04
-0.28
-0.29
-0.15
0.03
0.20
0.28
0.29
0.21
0.07
-0.14
-0.42
-0.78
-1.22
-1.72
-2.21
-2.61
-2.85
-2.89
-2.73
-2.47
-2.18
-1.94
-1.76
-1.59
-1.35
-0.97
-0.49
0.02
0.42
0.65
0.72
0.74
0.85
1.13
1.56
2.00
2.29
2.27
1.92
1.30
0.57
-0.11
-0.63
-0.94
-1.06
-1.04
-0.92
-0.75
-0.57
-0.43
-0.42
-0.57
-0.87
-1.23
-1.52
-1.67
-1.67
-1.61
-1.60
-1.70
-1.86
-2.01
-2.11
-2.16
-2.18
-2.18
-2.14
-1.97
-1.60
-1.06
-0.43
0.14
0.57
0.82
0.96
1.07
1.17
1.25
1.23
1.06
0.75
0.37
0.02
-0.20
-0.30
-0.32
-0.33
-0.38
-0.46
-0.52
-0.56
-0.58
-0.63
-0.73
-0.88
-1.04
-1.16
-1.24
-1.32
-1.42
-1.56
-1.67
-1.69
-1.60
-1.43
-1.31
-1.29
-1.38
-1.46
-1.39
-1.08
-0.52
0.20
0.95
1.57
1.97
2.12
2.05
1.85
1.61
1.38
1.19
1.03
0.89
0.76
0.65
0.59
0.59
0.65
0.72
0.74
0.66
0.48
0.24
-0.04
-0.31
-0.54
-0.70
-0.77
-0.75
-0.65
-0.53
-0.49
-0.59
-0.85
-1.23
-1.63
-1.91
-1.96
-1.70
-1.14
-0.39
0.40
1.11
1.66
2.05
2.34
2.57
2.69
2.62
2.30
1.74
1.07
0.48
0.12
0.06
0.24
0.56
0.91
1.23
1.46
1.51
1.32
0.83
0.10
-0.72
-1.43
-1.85
-1.92
-1.69
-1.32
-0.96
-0.74
-0.74
-0.99
-1.43
-1.96
-2.42
-2.66
-2.58
-2.17
-1.50
-0.70
0.14
0.92
1.62
2.19
2.57
2.72
2.59
2.23
1.71
1.12
0.56
0.10
-0.23
-0.42
-0.44
-0.31
-0.09
0.17
0.38
0.48
0.46
0.32
0.08
-0.25
-0.66
-1.14
-1.63
-2.07
-2.42
-2.67
-2.84
-2.98
-3.09
-3.18
-3.20
-3.12
-2.90
-2.55
-2.05
-1.38
-0.54
0.44
1.44
2.29
2.80
2.85
2.42
1.66
0.75
-0.10
-0.76
-1.21
-1.47
-1.62
-1.71
-1.77
-1.81
-1.83
-1.89
-2.06
-2.35
-2.75
-3.21
-3.65
-4.02
-4.29
-4.49
-4.61
-4.60
-4.41
-3.98
-3.33
-2.52
-1.62
-0.70
0.23
1.20
2.21
3.26
4.27
5.18
5.93
6.47
6.77
6.80
6.53
5.96
5.18
4.34
3.63
3.15
2.94
2.91
2.90
2.83
2.66
2.47
2.35
2.39
2.54
2.66
2.56
2.13
1.34
0.33
-0.63
-1.29
-1.50
-1.23
-0.65
-0.02
0.44
0.57
0.36
-0.10
-0.69
-1.28
-1.74
-1.96
-1.87
-1.40
-0.60
0.41
1.42
2.22
2.68
2.75
2.50
2.05
1.51
0.96
0.46
0.01
-0.36
-0.67
-0.92
-1.09
-1.16
-1.13
-0.99
-0.77
-0.54
-0.36
-0.28
-0.30
-0.38
-0.49
-0.62
-0.78
-0.98
-1.20
-1.41
-1.52
-1.48
-1.28
-1.00
-0.71
-0.51
-0.40
-0.30
-0.10
0.31
0.95
1.72
2.42
2.86
2.95
2.66
2.12
1.44
0.72
0.03
-0.59
-1.09
-1.40
-1.44
-1.21
-0.74
-0.18
0.32
0.60
0.61
0.36
-0.07
-0.59
-1.08
-1.48
-1.72
-1.79
-1.73
-1.62
-1.53
-1.52
-1.63
-1.83
-2.07
-2.28
-2.34
-2.19
-1.77
-1.10
-0.24
0.66
1.44
1.95
2.13
2.00
1.66
1.20
0.70
0.23
-0.16
-0.41
-0.48
-0.32
0.02
0.47
0.88
1.14
1.19
1.05
0.77
0.44
0.08
-0.28
-0.67
-1.07
-1.46
-1.74
-1.86
-1.80
-1.61
-1.42
-1.35
-1.46
-1.70
-1.97
-2.12
-2.03
-1.67
-1.10
-0.41
0.25
0.79
1.17
1.39
1.52
1.60
1.66
1.70
1.69
1.60
1.44
1.20
0.93
0.69
0.53
0.49
0.61
0.84
1.12
1.38
1.53
1.53
1.41
1.21
0.98
0.76
0.54
0.26
-0.10
-0.55
-1.03
-1.46
-1.75
-1.86
-1.85
-1.82
-1.86
-1.99
-2.12
-2.10
-1.85
-1.32
-0.59
0.19
0.92
1.51
1.95
2.23
2.32
2.17
1.79
1.22
0.59
0.07
-0.22
-0.20
0.07
0.47
0.85
1.06
1.04
0.78
0.39
-0.03
-0.35
-0.54
-0.57
-0.50
-0.36
-0.19
-0.03
0.09
0.13
0.07
-0.12
-0.41
-0.78
-1.13
-1.38
-1.46
-1.32
-0.99
-0.49
0.12
0.78
1.41
1.94
2.29
2.40
2.24
1.86
1.33
0.76
0.25
-0.15
-0.38
-0.44
-0.34
-0.10
0.21
0.49
0.67
0.68
0.53
0.29
0.04
-0.15
-0.29
-0.41
-0.58
-0.81
-1.09
-1.37
-1.56
-1.66
-1.66
-1.63
-1.64
-1.73
-1.86
-1.98
-1.97
-1.75
-1.28
-0.62
0.11
0.78
1.27
1.53
1.60
1.54
1.38
1.12
0.75
0.28
-0.22
-0.60
-0.74
-0.55
-0.11
0.42
0.82
0.92
0.64
0.07
-0.61
-1.20
-1.53
-1.56
-1.34
-0.97
-0.62
-0.38
-0.35
-0.55
-0.97
-1.56
-2.23
-2.86
-3.37
-3.66
-3.72
-3.53
-3.10
-2.47
-1.68
-0.80
0.04
0.71
1.15
1.38
1.51
1.66
1.90
2.14
2.27
2.17
1.85
1.44
1.12
1.00
1.09
1.27
1.39
1.34
1.10
0.75
0.35
-0.01
-0.31
-0.53
-0.69
-0.81
-0.91
-1.00
-1.10
-1.21
-1.33
-1.50
-1.76
-2.11
-2.51
-2.87
-3.09
-3.06
-2.74
-2.14
-1.34
-0.43
0.47
1.29
1.95
2.42
2.70
2.82
2.80
2.66
2.40
2.02
1.58
1.16
0.87
0.78
0.90
1.11
1.27
1.28
1.12
0.85
0.58
0.38
0.24
0.11
-0.08
-0.34
-0.62
-0.86
-0.98
-1.00
-0.96
-0.95
-1.02
-1.20
-1.43
-1.63
-1.73
-1.69
-1.46
-1.02
-0.36
0.49
1.42
2.30
2.93
3.20
3.05
2.59
1.99
1.41
0.97
0.69
0.55
0.57
0.76
1.16
1.70
2.23
2.54
2.48
2.03
1.30
0.50
-0.20
-0.72
-1.06
-1.29
-1.45
-1.57
-1.64
-1.68
-1.72
-1.82
-2.04
-2.37
-2.79
-3.22
-3.61
-3.84
-3.83
-3.48
-2.78
-1.79
-0.73
0.20
0.82
1.09
1.09
0.98
0.90
0.91
1.00
1.10
1.16
1.18
1.14
1.05
0.92
0.79
0.74
0.82
1.06
1.37
1.61
1.62
1.36
0.84
0.19
-0.44
-0.93
-1.24
-1.38
-1.40
-1.38
-1.39
-1.46
-1.62
-1.81
-1.96
-1.98
-1.78
-1.29
-0.50
0.51
1.61
2.59
3.29
3.58
3.45
2.98
2.30
1.57
0.89
0.34
-0.02
-0.15
-0.06
0.19
0.47
0.60
0.49
0.15
-0.33
-0.81
-1.17
-1.36
-1.43
-1.43
-1.38
-1.28
-1.12
-0.90
-0.68
-0.53
-0.54
-0.71
-1.01
-1.36
-1.68
-1.87
-1.85
-1.54
-0.92
-0.03
0.97
1.89
2.56
2.91
2.94
2.78
2.50
2.16
1.73
1.20
0.58
-0.03
-0.47
-0.66
-0.58
-0.31
0.03
0.31
0.49
0.56
0.53
0.39
0.16
-0.14
-0.47
-0.76
-0.98
-1.11
-1.15
-1.09
-0.91
-0.62
-0.30
-0.11
-0.17
-0.50
-0.95
-1.25
-1.15
-0.57
0.37
1.42
2.34
2.98
3.36
3.52
3.45
3.09
2.42
1.48
0.51
-0.22
-0.48
-0.22
0.43
1.21
1.87
2.29
2.47
2.48
2.40
2.26
2.05
1.75
1.37
0.95
0.56
0.27
0.09
-0.02
-0.11
-0.29
-0.70
-1.45
-2.64
-4.19
-5.94
-7.55
-8.68
-9.08
-8.67
-7.59
-6.12
-4.56
-3.18
-2.15
-1.52
-1.29
-1.36
-1.57
-1.69
-1.49
-0.80
0.38
1.90
3.50
4.87
5.77
6.08
5.84
5.19
4.31
3.41
2.62
2.03
1.64
1.39
1.16
0.85
0.38
-0.23
-0.92
-1.62
-2.32
-3.03
-3.81
-4.66
-5.53
-6.26
-6.74
-6.90
-6.80
-6.59
-6.42
-6.39
-6.45
-6.49
-6.38
-6.07
-5.58
-5.04
-4.53
-4.11
-3.75
-3.38
-2.97
-2.51
-2.01
-1.45
-0.78
0.09
1.18
2.45
3.75
4.88
5.67
6.06
6.10
5.95
5.79
5.75
5.84
6.02
6.18
6.23
6.10
5.79
5.28
4.61
3.80
2.94
2.16
1.58
1.29
1.26
1.41
1.61
1.75
1.79
1.71
1.52
1.21
0.81
0.39
0.10
0.06
0.30
0.73
1.16
1.41
1.36
1.09
0.72
0.39
0.13
-0.09
-0.36
-0.72
-1.14
-1.49
-1.67
-1.63
-1.42
-1.15
-0.96
-0.92
-1.01
-1.14
-1.17
-1.02
-0.63
-0.07
0.58
1.25
1.89
2.47
2.97
3.36
3.56
3.50
3.17
2.64
2.05
1.55
1.23
1.13
1.18
1.29
1.38
1.35
1.13
0.68
-0.02
-0.88
-1.75
-2.44
-2.81
-2.84
-2.65
-2.42
-2.32
-2.39
-2.60
-2.84
-3.04
-3.17
-3.28
-3.38
-3.44
-3.36
-3.02
-2.34
-1.36
-0.24
0.83
1.69
2.29
2.65
2.84
2.92
2.88
2.69
2.34
1.86
1.38
1.00
0.83
0.85
0.97
1.06
1.03
0.83
0.51
0.14
-0.21
-0.48
-0.66
-0.78
-0.87
-0.99
-1.18
-1.46
-1.84
-2.26
-2.63
-2.86
-2.89
-2.71
-2.37
-1.90
-1.30
-0.51
0.48
1.62
2.79
3.81
4.51
4.84
4.86
4.66
4.33
3.93
3.45
2.92
2.37
1.89
1.55
1.34
1.20
1.03
0.77
0.41
0.04
-0.29
-0.52
-0.68
-0.86
-1.15
-1.61
-2.18
-2.73
-3.12
-3.28
-3.21
-3.06
-2.97
-2.99
-3.12
-3.23
-3.19
-2.90
-2.36
-1.58
-0.66
0.30
1.24
2.05
2.68
3.08
3.28
3.29
3.19
3.00
2.71
2.30
1.79
1.23
0.74
0.45
0.43
0.65
0.99
1.28
1.35
1.09
0.55
-0.16
-0.84
-1.33
-1.56
-1.56
-1.43
-1.27
-1.14
-1.08
-1.09
-1.19
-1.34
-1.51
-1.60
-1.55
-1.27
-0.76
-0.06
0.74
1.54
2.23
2.75
3.04
3.07
2.84
2.36
1.69
0.94
0.22
-0.37
-0.73
-0.80
-0.60
-0.21
0.23
0.55
0.63
0.43
0.00
-0.50
-0.92
-1.17
-1.24
-1.23
-1.26
-1.42
-1.71
-2.04
-2.29
-2.37
-2.23
-1.94
-1.53
-1.06
-0.52
0.06
0.66
1.23
1.70
2.04
2.27
2.41
2.47
2.44
2.27
1.91
1.41
0.83
0.31
-0.09
-0.30
-0.37
-0.35
-0.30
-0.27
-0.30
-0.41
-0.56
-0.75
-0.93
-1.08
-1.21
-1.35
-1.53
-1.74
-1.98
-2.23
-2.51
-2.79
-3.03
-3.12
-2.96
-2.45
-1.63
-0.62
0.38
1.18
1.66
1.80
1.64
1.31
0.92
0.59
0.40
0.35
0.43
0.54
0.63
0.64
0.58
0.50
0.45
0.44
0.46
0.45
0.33
0.06
-0.34
-0.79
-1.17
-1.38
-1.39
-1.26
-1.15
-1.17
-1.37
-1.65
-1.88
-1.88
-1.58
-1.01
-0.32
0.34
0.83
1.13
1.27
1.35
1.41
1.45
1.39
1.19
0.83
0.39
0.02
-0.17
-0.12
0.09
0.33
0.44
0.34
0.06
-0.29
-0.56
-0.66
-0.59
-0.47
-0.43
-0.57
-0.91
-1.35
-1.73
-1.92
-1.92
-1.78
-1.64
-1.59
-1.62
-1.68
-1.66
-1.49
-1.14
-0.66
-0.06
0.61
1.31
1.93
2.35
2.47
2.23
1.71
1.09
0.58
0.34
0.41
0.69
1.02
1.27
1.36
1.30
1.19
1.06
0.95
0.84
0.71
0.55
0.39
0.25
0.12
-0.05
-0.36
-0.87
-1.56
-2.32
-2.98
-3.34
-3.30
-2.89
-2.21
-1.42
-0.67
-0.04
0.45
0.81
1.07
1.26
1.40
1.49
1.51
1.45
1.28
0.98
0.60
0.25
0.09
0.20
0.56
1.04
1.43
1.55
1.39
1.03
0.66
0.39
0.28
0.26
0.17
-0.10
-0.58
-1.21
-1.87
-2.44
-2.82
-2.99
-2.98
-2.84
-2.60
-2.26
-1.76
-1.10
-0.28
0.58
1.33
1.83
2.00
1.85
1.46
0.95
0.42
-0.05
-0.41
-0.62
-0.65
-0.52
-0.27
0.02
0.26
0.34
0.24
-0.02
-0.37
-0.71
-0.95
-1.08
-1.15
-1.27
-1.55
-2.04
-2.71
-3.47
-4.18
-4.73
-5.06
-5.14
-4.94
-4.50
-3.84
-3.07
-2.32
-1.73
-1.37
-1.22
-1.20
-1.21
-1.17
-1.07
-0.91
-0.64
-0.24
0.34
1.11
2.00
2.92
3.72
4.34
4.75
4.99
5.09
5.09
4.99
4.78
4.43
3.94
3.33
2.67
2.05
1.52
1.08
0.70
0.30
-0.16
-0.67
-1.17
-1.53
-1.63
-1.37
-0.74
0.16
1.16
2.04
2.62
2.80
2.60
2.16
1.65
1.21
0.90
0.68
0.48
0.26
0.03
-0.11
-0.08
0.16
0.52
0.84
0.97
0.86
0.55
0.20
-0.08
-0.23
-0.28
-0.28
-0.28
-0.32
-0.41
-0.57
-0.85
-1.24
-1.67
-1.99
-2.05
-1.71
-0.98
0.02
1.08
2.02
2.68
3.00
2.98
2.66
2.13
1.49
0.83
0.20
-0.33
-0.71
-0.90
-0.83
-0.48
0.11
0.80
1.42
1.78
1.81
1.53
1.05
0.50
-0.00
-0.43
-0.77
-1.04
-1.23
-1.37
-1.48
-1.59
-1.71
-1.83
-1.90
-1.84
-1.58
-1.11
-0.43
0.38
1.19
1.88
2.34
2.52
2.41
2.10
1.66
1.20
0.77
0.39
0.04
-0.28
-0.56
-0.75
-0.82
-0.71
-0.43
-0.08
0.22
0.32
0.14
-0.26
-0.75
-1.15
-1.33
-1.26
-1.03
-0.75
-0.59
-0.63
-0.92
-1.45
-2.10
-2.71
-3.04
-2.89
-2.16
-0.93
0.55
1.94
2.96
3.47
3.49
3.16
2.66
2.14
1.67
1.24
0.87
0.57
0.39
0.36
0.48
0.70
0.93
1.07
1.08
0.98
0.82
0.64
0.46
0.26
0.03
-0.27
-0.60
-0.97
-1.36
-1.77
-2.19
-2.56
-2.83
-2.95
-2.89
-2.65
-2.27
-1.75
-1.11
-0.38
0.40
1.14
1.74
2.11
2.19
1.96
1.50
0.93
0.42
0.15
0.23
0.62
1.14
1.55
1.67
1.47
1.06
0.67
0.45
0.44
0.52
0.53
0.37
0.04
-0.34
-0.65
-0.80
-0.82
-0.80
-0.84
-0.99
-1.25
-1.57
-1.88
-2.13
-2.29
-2.34
-2.26
-2.04
-1.62
-0.97
-0.09
0.95
1.99
2.82
3.23
3.12
2.54
1.69
0.81
0.14
-0.21
-0.25
-0.05
0.28
0.66
1.01
1.28
1.40
1.32
1.05
0.67
0.30
0.04
-0.06
-0.06
-0.03
-0.05
-0.15
-0.29
-0.42
-0.53
-0.64
-0.82
-1.10
-1.47
-1.85
-2.15
-2.26
-2.08
-1.56
-0.72
0.35
1.47
2.40
2.96
3.06
2.77
2.27
1.72
1.25
0.90
0.63
0.42
0.26
0.16
0.16
0.24
0.37
0.49
0.55
0.48
0.25
-0.16
-0.70
-1.28
-1.75
-2.02
-2.07
-1.96
-1.82
-1.77
-1.83
-2.00
-2.19
-2.34
-2.42
-2.40
-2.24
-1.90
-1.35
-0.59
0.28
1.16
1.90
2.39
2.60
2.54
2.25
1.83
1.35
0.88
0.45
0.09
-0.20
-0.39
-0.47
-0.47
-0.41
-0.36
-0.35
-0.38
-0.44
-0.51
-0.59
-0.71
-0.90
-1.16
-1.44
-1.67
-1.80
-1.82
-1.79
-1.78
-1.84
-1.98
-2.13
-2.20
-2.12
-1.83
-1.30
-0.58
0.31
1.27
2.17
2.86
3.22
3.17
2.75
2.08
1.35
0.72
0.27
0.02
-0.04
0.08
0.37
0.81
1.31
1.67
1.73
1.38
0.70
-0.08
-0.72
-1.04
-1.05
-0.89
-0.76
-0.80
-1.05
-1.43
-1.81
-2.09
-2.22
-2.21
-2.11
-2.01
-1.93
-1.87
-1.82
-1.68
-1.39
-0.89
-0.18
0.65
1.46
2.13
2.56
2.73
2.66
2.38
1.92
1.33
0.73
0.26
0.06
0.22
0.66
1.18
1.56
1.60
1.30
0.80
0.32
0.02
-0.05
0.06
0.20
0.27
0.24
0.13
-0.03
-0.20
-0.40
-0.64
-0.96
-1.31
-1.66
-1.95
-2.14
-2.24
-2.26
-2.20
-1.98
-1.52
-0.75
0.28
1.40
2.33
2.83
2.78
2.25
1.42
0.56
-0.10
-0.43
-0.41
-0.09
0.43
1.01
1.53
1.88
1.96
1.76
1.33
0.81
0.33
0.01
-0.07
0.04
0.25
0.41
0.43
0.26
-0.05
-0.42
-0.76
-1.04
-1.27
-1.49
-1.73
-1.96
-2.08
-2.00
-1.63
-0.99
-0.18
0.62
1.26
1.64
1.78
1.78
1.73
1.67
1.57
1.38
1.08
0.76
0.52
0.46
0.58
0.77
0.90
0.87
0.71
0.49
0.32
0.26
0.27
0.26
0.16
-0.07
-0.37
-0.67
-0.94
-1.16
-1.38
-1.61
-1.88
-2.20
-2.57
-2.98
-3.37
-3.67
-3.73
-3.45
-2.76
-1.72
-0.49
0.70
1.62
2.15
2.31
2.20
1.98
1.75
1.53
1.28
0.96
0.59
0.23
0.02
0.00
0.15
0.34
0.44
0.37
0.14
-0.19
-0.55
-0.92
-1.29
-1.66
-2.02
-2.37
-2.71
-3.03
-3.36
-3.70
-4.02
-4.31
-4.53
-4.71
-4.90
-5.11
-5.34
-5.56
-5.69
-5.63
-5.29
-4.56
-3.41
-1.89
-0.19
1.46
2.81
3.73
4.20
4.34
4.30
4.22
4.20
4.24
4.32
4.42
4.47
4.44
4.32
4.09
3.77
3.40
2.99
2.58
2.25
2.06
2.04
2.15
2.24
2.18
1.83
1.22
0.53
0.00
-0.18
-0.02
0.32
0.58
0.53
0.11
-0.54
-1.14
-1.41
-1.21
-0.57
0.31
1.20
1.90
2.31
2.43
2.31
2.00
1.55
1.05
0.59
0.28
0.21
0.34
0.59
0.84
1.01
1.10
1.17
1.27
1.41
1.55
1.58
1.42
1.05
0.52
-0.11
-0.70
-1.17
-1.49
-1.66
-1.75
-1.83
-1.98
-2.24
-2.58
-2.93
-3.17
-3.19
-2.84
-2.08
-0.95
0.37
1.63
2.57
3.04
3.06
2.78
2.40
2.03
1.68
1.30
0.84
0.33
-0.08
-0.24
-0.07
0.37
0.90
1.32
1.46
1.26
0.75
0.03
-0.73
-1.38
-1.82
-2.01
-2.00
-1.90
-1.82
-1.80
-1.82
-1.83
-1.81
-1.79
-1.79
-1.80
-1.73
-1.42
-0.79
0.11
1.09
1.88
2.28
2.24
1.91
1.52
1.25
1.12
1.05
0.90
0.62
0.25
-0.08
-0.23
-0.18
0.01
0.24
0.42
0.49
0.49
0.42
0.27
-0.02
-0.47
-1.03
-1.57
-1.92
-2.01
-1.85
-1.62
-1.48
-1.56
-1.84
-2.17
-2.40
-2.40
-2.13
-1.60
-0.87
0.00
0.94
1.81
2.47
2.78
2.67
2.23
1.62
1.05
0.66
0.49
0.48
0.52
0.54
0.52
0.46
0.42
0.42
0.47
0.51
0.49
0.38
0.17
-0.09
-0.32
-0.48
-0.58
-0.67
-0.81
-1.01
-1.26
-1.48
-1.66
-1.82
-2.00
-2.24
-2.48
-2.58
-2.42
-1.90
-1.06
-0.07
0.86
1.54
1.87
1.90
1.72
1.46
1.20
1.00
0.87
0.82
0.87
0.99
1.16
1.33
1.44
1.48
1.47
1.45
1.44
1.41
1.30
1.08
0.74
0.32
-0.11
-0.54
-0.97
-1.41
-1.85
-2.21
-2.41
-2.37
-2.13
-1.81
-1.58
-1.56
-1.74
-1.97
-2.03
-1.72
-0.99
0.02
1.10
1.98
2.54
2.75
2.66
2.36
1.93
1.42
0.91
0.49
0.24
0.21
0.34
0.58
0.82
1.00
1.10
1.13
1.10
0.99
0.81
0.56
0.27
-0.05
-0.37
-0.70
-1.05
-1.39
-1.70
-1.96
-2.15
-2.27
-2.35
-2.41
-2.42
-2.36
-2.17
-1.80
-1.24
-0.50
0.31
1.09
1.72
2.09
2.14
1.89
1.38
0.71
0.02
-0.58
-0.94
-1.02
-0.78
-0.31
0.26
0.75
1.04
1.05
0.81
0.40
-0.08
-0.52
-0.87
-1.13
-1.28
-1.35
-1.36
-1.34
-1.33
-1.40
-1.57
-1.82
-2.09
-2.29
-2.35
-2.22
-1.89
-1.35
-0.63
0.23
1.13
1.93
2.50
2.74
2.66
2.39
2.05
1.75
1.47
1.17
0.77
0.31
-0.11
-0.32
-0.22
0.14
0.59
0.90
0.88
0.51
-0.11
-0.77
-1.30
-1.62
-1.78
-1.88
-2.02
-2.20
-2.37
-2.41
-2.29
-2.05
-1.80
-1.68
-1.74
-1.92
-2.04
-1.91
-1.41
-0.53
0.56
1.65
2.51
3.00
3.12
2.93
2.54
2.06
1.53
1.00
0.49
0.09
-0.14
-0.14
0.07
0.41
0.74
0.94
0.95
0.75
0.37
-0.12
-0.67
-1.22
-1.68
-2.00
-2.14
-2.10
-1.94
-1.76
-1.65
-1.69
-1.90
-2.20
-2.49
-2.58
-2.31
-1.61
-0.49
0.86
2.19
3.22
3.75
3.72
3.22
2.43
1.59
0.89
0.43
0.27
0.36
0.63
0.97
1.30
1.53
1.59
1.46
1.13
0.67
0.18
-0.21
-0.39
-0.35
-0.14
0.12
0.29
0.30
0.15
-0.14
-0.50
-0.90
-1.32
-1.74
-2.14
-2.48
-2.71
-2.76
-2.54
-1.98
-1.08
0.10
1.38
2.52
3.30
3.56
3.31
2.68
1.87
1.08
0.47
0.14
0.11
0.34
0.74
1.16
1.45
1.52
1.34
0.96
0.46
-0.05
-0.52
-0.93
-1.26
-1.53
-1.71
-1.77
-1.73
-1.62
-1.53
-1.55
-1.73
-2.04
-2.40
-2.64
-2.62
-2.26
-1.57
-0.61
0.51
1.67
2.73
3.52
3.91
3.82
3.25
2.37
1.38
0.53
-0.03
-0.21
-0.05
0.32
0.75
1.06
1.13
0.94
0.59
0.23
-0.02
-0.11
-0.11
-0.16
-0.39
-0.78
-1.27
-1.72
-2.01
-2.15
-2.17
-2.20
-2.30
-2.50
-2.72
-2.85
-2.79
-2.43
-1.78
-0.89
0.13
1.17
2.14
2.95
3.50
3.72
3.56
3.07
2.38
1.68
1.16
0.89
0.86
0.94
1.04
1.07
1.01
0.90
0.75
0.55
0.31
0.07
-0.13
-0.26
-0.31
-0.34
-0.44
-0.71
-1.16
-1.75
-2.34
-2.82
-3.10
-3.17
-3.05
-2.76
-2.30
-1.67
-0.86
0.06
0.98
1.74
2.24
2.45
2.47
2.40
2.33
2.28
2.18
1.94
1.56
1.13
0.76
0.57
0.58
0.71
0.83
0.82
0.65
0.37
0.08
-0.13
-0.22
-0.21
-0.16
-0.15
-0.25
-0.47
-0.79
-1.16
-1.53
-1.86
-2.14
-2.34
-2.48
-2.49
-2.31
-1.87
-1.13
-0.17
0.92
1.99
2.91
3.61
4.02
4.08
3.78
3.12
2.22
1.28
0.52
0.10
0.06
0.27
0.56
0.77
0.82
0.77
0.70
0.65
0.62
0.57
0.44
0.24
0.00
-0.22
-0.40
-0.55
-0.71
-0.93
-1.21
-1.53
-1.84
-2.11
-2.31
-2.44
-2.48
-2.38
-2.09
-1.53
-0.72
0.29
1.32
2.20
2.76
2.91
2.69
2.21
1.63
1.05
0.55
0.15
-0.13
-0.28
-0.28
-0.11
0.21
0.58
0.90
1.05
0.97
0.66
0.21
-0.26
-0.65
-0.93
-1.10
-1.20
-1.28
-1.43
-1.66
-2.00
-2.42
-2.83
-3.13
-3.21
-3.00
-2.47
-1.66
-0.63
0.48
1.51
2.34
2.85
2.99
2.83
2.47
2.05
1.64
1.28
0.94
0.64
0.41
0.30
0.33
0.46
0.59
0.61
0.48
0.26
0.02
-0.18
-0.31
-0.44
-0.63
-0.91
-1.22
-1.47
-1.57
-1.55
-1.51
-1.57
-1.82
-2.22
-2.62
-2.85
-2.74
-2.26
-1.45
-0.44
0.62
1.61
2.41
2.95
3.16
3.05
2.68
2.17
1.62
1.12
0.69
0.37
0.20
0.24
0.53
1.03
1.61
2.09
2.32
2.23
1.86
1.31
0.68
0.07
-0.50
-0.98
-1.30
-1.42
-1.35
-1.19
-1.07
-1.15
-1.45
-1.90
-2.32
-2.53
-2.41
-1.97
-1.32
-0.57
0.18
0.89
1.56
2.18
2.68
2.96
2.91
2.51
1.83
1.03
0.30
-0.17
-0.31
-0.17
0.12
0.42
0.61
0.63
0.52
0.35
0.16
-0.01
-0.17
-0.32
-0.46
-0.59
-0.73
-0.93
-1.24
-1.68
-2.18
-2.63
-2.90
-2.92
-2.71
-2.37
-1.93
-1.40
-0.70
0.23
1.35
2.51
3.47
4.02
4.09
3.74
3.11
2.36
1.57
0.79
0.04
-0.59
-0.97
-0.99
-0.68
-0.19
0.25
0.47
0.41
0.19
-0.04
-0.19
-0.26
-0.38
-0.63
-1.02
-1.46
-1.81
-1.98
-1.96
-1.88
-1.85
-1.96
-2.20
-2.47
-2.63
-2.55
-2.13
-1.33
-0.23
1.03
2.23
3.18
3.73
3.83
3.55
2.99
2.25
1.42
0.58
-0.19
-0.75
-1.01
-0.92
-0.54
-0.02
0.48
0.86
1.06
1.08
0.90
0.52
-0.03
-0.64
-1.19
-1.50
-1.48
-1.20
-0.82
-0.55
-0.53
-0.80
-1.25
-1.76
-2.16
-2.32
-2.17
-1.67
-0.83
0.23
1.35
2.35
3.05
3.36
3.30
2.93
2.38
1.81
1.34
1.05
0.97
1.05
1.18
1.29
1.31
1.22
1.05
0.81
0.55
0.28
0.05
-0.11
-0.18
-0.20
-0.26
-0.42
-0.73
-1.14
-1.53
-1.80
-1.89
-1.86
-1.79
-1.81
-1.93
-2.11
-2.23
-2.19
-1.96
-1.55
-1.04
-0.46
0.17
0.88
1.64
2.34
2.84
3.02
2.86
2.41
1.84
1.26
0.80
0.48
0.34
0.38
0.59
0.90
1.18
1.30
1.18
0.83
0.32
-0.21
-0.64
-0.91
-1.04
-1.09
-1.14
-1.25
-1.42
-1.63
-1.82
-1.93
-1.97
-2.00
-2.05
-2.12
-2.10
-1.86
-1.30
-0.44
0.57
1.51
2.19
2.52
2.53
2.28
1.88
1.40
0.92
0.51
0.23
0.10
0.12
0.25
0.43
0.63
0.81
0.92
0.89
0.67
0.25
-0.28
-0.79
-1.18
-1.40
-1.51
-1.61
-1.75
-1.95
-2.12
-2.19
-2.12
-1.97
-1.82
-1.72
-1.67
-1.60
-1.39
-0.99
-0.39
0.34
1.09
1.76
2.30
2.66
2.82
2.77
2.51
2.07
1.55
1.04
0.70
0.63
0.85
1.28
1.72
1.97
1.88
1.47
0.84
0.20
-0.30
-0.60
-0.79
-0.99
-1.30
-1.70
-2.09
-2.36
-2.46
-2.43
-2.41
-2.49
-2.67
-2.81
-2.75
-2.34
-1.59
-0.61
0.39
1.20
1.72
1.94
1.95
1.88
1.79
1.71
1.61
1.44
1.16
0.78
0.36
-0.02
-0.25
-0.24
0.02
0.46
0.91
1.14
0.99
0.46
-0.31
-1.09
-1.62
-1.80
-1.67
-1.41
-1.22
-1.23
-1.44
-1.74
-2.00
-2.08
-1.91
-1.48
-0.82
-0.01
0.85
1.63
2.20
2.46
2.39
2.04
1.49
0.87
0.26
-0.28
-0.73
-1.03
-1.09
-0.86
-0.34
0.34
0.99
1.42
1.52
1.31
0.89
0.39
-0.12
-0.61
-1.04
-1.39
-1.63
-1.74
-1.78
-1.83
-1.98
-2.22
-2.45
-2.50
-2.23
-1.59
-0.65
0.46
1.56
2.49
3.11
3.36
3.24
2.80
2.18
1.53
0.99
0.64
0.53
0.63
0.89
1.23
1.57
1.82
1.88
1.66
1.16
0.44
-0.32
-0.94
-1.28
-1.31
-1.13
-0.87
-0.70
-0.70
-0.90
-1.23
-1.63
-2.00
-2.24
-2.26
-1.99
-1.43
-0.63
0.28
1.13
1.77
2.16
2.30
2.24
2.04
1.73
1.30
0.79
0.29
-0.08
-0.21
-0.09
0.21
0.56
0.82
0.91
0.83
0.60
0.27
-0.13
-0.57
-0.97
-1.24
-1.33
-1.24
-1.05
-0.92
-0.99
-1.31
-1.78
-2.23
-2.45
-2.31
-1.77
-0.93
0.07
1.06
1.91
2.52
2.81
2.73
2.27
1.50
0.56
-0.32
-0.92
-1.11
-0.90
-0.41
0.17
0.65
0.94
1.04
0.99
0.82
0.55
0.12
-0.45
-1.11
-1.70
-2.06
-2.12
-1.91
-1.63
-1.48
-1.60
-1.95
-2.36
-2.59
-2.44
-1.85
-0.89
0.23
1.29
2.08
2.52
2.59
2.33
1.84
1.17
0.43
-0.30
-0.89
-1.22
-1.21
-0.83
-0.17
0.62
1.29
1.65
1.57
1.09
0.38
-0.32
-0.78
-0.91
-0.77
-0.51
-0.35
-0.42
-0.72
-1.17
-1.65
-2.05
-2.30
-2.36
-2.18
-1.70
-0.88
0.23
1.42
2.44
3.02
3.02
2.50
1.69
0.88
0.29
0.01
-0.03
0.06
0.19
0.31
0.43
0.54
0.60
0.55
0.37
0.10
-0.15
-0.30
-0.34
-0.33
-0.41
-0.67
-1.14
-1.72
-2.29
-2.68
-2.83
-2.73
-2.48
-2.14
-1.79
-1.41
-0.93
-0.29
0.54
1.47
2.34
2.99
3.31
3.27
2.93
2.35
1.62
0.80
0.01
-0.63
-0.97
-0.89
-0.42
0.25
0.86
1.15
1.03
0.59
0.07
-0.32
-0.49
-0.48
-0.42
-0.42
-0.50
-0.63
-0.76
-0.94
-1.25
-1.73
-2.29
-2.69
-2.67
-2.07
-0.98
0.38
1.66
2.63
3.18
3.35
3.26
3.01
2.64
2.16
1.59
0.99
0.47
0.15
0.11
0.34
0.73
1.12
1.31
1.18
0.71
0.00
-0.77
-1.45
-1.91
-2.15
-2.23
-2.25
-2.27
-2.35
-2.47
-2.62
-2.77
-2.88
-2.91
-2.81
-2.52
-2.04
-1.36
-0.58
0.19
0.84
1.29
1.49
1.47
1.25
0.86
0.36
-0.16
-0.61
-0.90
-0.98
-0.88
-0.69
-0.53
-0.49
-0.63
-0.92
-1.32
-1.78
-2.26
-2.73
-3.15
-3.51
-3.76
-3.93
-4.10
-4.35
-4.74
-5.23
-5.71
-5.99
-5.94
-5.47
-4.61
-3.50
-2.27
-1.08
-0.02
0.80
1.37
1.69
1.83
1.89
1.94
2.08
2.30
2.61
2.99
3.41
3.81
4.10
4.22
4.10
3.76
3.26
2.67
2.10
1.59
1.18
0.87
0.66
0.53
0.45
0.40
0.32
0.17
-0.08
-0.41
-0.72
-0.90
-0.80
-0.34
0.49
1.56
2.68
3.63
4.23
4.42
4.23
3.78
3.19
2.59
2.06
1.65
1.37
1.23
1.19
1.21
1.20
1.11
0.89
0.56
0.16
-0.24
-0.56
-0.77
-0.87
-0.88
-0.81
-0.70
-0.55
-0.39
-0.23
-0.10
-0.04
-0.10
-0.31
-0.69
-1.13
-1.51
-1.63
-1.32
-0.54
0.62
1.92
3.05
3.77
4.01
3.84
3.46
3.07
2.79
2.59
2.38
2.05
1.55
0.96
0.44
0.13
0.09
0.26
0.50
0.67
0.69
0.58
0.39
0.19
-0.01
-0.24
-0.55
-0.91
-1.27
-1.52
-1.57
-1.44
-1.27
-1.24
-1.51
-2.08
-2.79
-3.33
-3.42
-2.90
-1.79
-0.35
1.14
2.38
3.20
3.57
3.53
3.18
2.57
1.81
0.99
0.20
-0.40
-0.74
-0.76
-0.53
-0.16
0.18
0.38
0.39
0.28
0.12
0.00
-0.03
0.01
0.05
0.03
-0.08
-0.27
-0.53
-0.83
-1.19
-1.61
-2.11
-2.63
-3.06
-3.27
-3.17
-2.68
-1.85
-0.77
0.42
1.58
2.60
3.36
3.76
3.73
3.28
2.52
1.61
0.77
0.15
-0.15
-0.15
0.08
0.42
0.77
1.05
1.20
1.17
0.96
0.60
0.13
-0.37
-0.79
-1.06
-1.12
-0.99
-0.71
-0.42
-0.25
-0.32
-0.66
-1.24
-1.91
-2.49
-2.81
-2.76
-2.34
-1.59
-0.61
0.49
1.57
2.51
3.17
3.47
3.42
3.06
2.50
1.86
1.22
0.65
0.18
-0.14
-0.27
-0.22
-0.03
0.23
0.48
0.68
0.79
0.82
0.75
0.55
0.21
-0.24
-0.75
-1.23
-1.56
-1.73
-1.76
-1.78
-1.88
-2.14
-2.50
-2.86
-3.08
-3.09
-2.86
-2.45
-1.91
-1.25
-0.45
0.52
1.60
2.62
3.40
3.74
3.58
2.99
2.15
1.30
0.62
0.24
0.17
0.34
0.65
0.95
1.13
1.13
0.96
0.66
0.32
0.03
-0.17
-0.28
-0.34
-0.42
-0.55
-0.73
-0.91
-1.05
-1.15
-1.27
-1.52
-1.93
-2.44
-2.91
-3.13
-2.97
-2.39
-1.49
-0.43
0.63
1.55
2.22
2.56
2.55
2.22
1.69
1.12
0.65
0.33
0.14
-0.00
-0.10
-0.09
0.08
0.43
0.85
1.15
1.17
0.86
0.32
-0.27
-0.77
-1.12
-1.34
-1.51
-1.65
-1.74
-1.76
-1.74
-1.74
-1.85
-2.16
-2.63
-3.12
-3.41
-3.27
-2.58
-1.34
0.30
2.05
3.58
4.62
5.01
4.74
3.95
2.83
1.59
0.45
-0.41
-0.86
-0.87
-0.52
0.03
0.58
0.95
1.04
0.84
0.39
-0.19
-0.81
-1.37
-1.79
-2.02
-2.01
-1.81
-1.50
-1.23
-1.10
-1.16
-1.38
-1.66
-1.88
-1.95
-1.79
-1.38
-0.74
0.06
0.91
1.70
2.31
2.66
2.76
2.64
2.37
2.02
1.61
1.16
0.69
0.25
-0.11
-0.27
-0.20
0.11
0.58
1.04
1.33
1.38
1.16
0.77
0.31
-0.17
-0.66
-1.15
-1.60
-1.89
-1.91
-1.60
-1.06
-0.49
-0.13
-0.12
-0.41
-0.82
-1.15
-1.27
-1.15
-0.83
-0.38
0.20
0.87
1.56
2.15
2.52
2.63
2.50
2.21
1.83
1.39
0.87
0.31
-0.18
-0.46
-0.43
-0.14
0.27
0.58
0.65
0.45
0.10
-0.23
-0.42
-0.45
-0.37
-0.29
-0.27
-0.35
-0.51
-0.73
-1.02
-1.37
-1.73
-2.04
-2.21
-2.16
-1.86
-1.31
-0.60
0.22
1.04
1.81
2.46
2.90
3.05
2.89
2.41
1.70
0.89
0.13
-0.43
-0.73
-0.73
-0.48
-0.11
0.27
0.54
0.62
0.50
0.22
-0.16
-0.60
-1.03
-1.40
-1.67
-1.83
-1.89
-1.93
-2.07
-2.36
-2.79
-3.26
-3.61
-3.73
-3.55
-3.08
-2.35
-1.41
-0.36
0.70
1.57
2.10
2.18
1.86
1.32
0.76
0.33
0.08
-0.05
-0.12
-0.14
-0.10
0.00
0.14
0.22
0.16
-0.06
-0.38
-0.70
-0.92
-1.01
-0.98
-0.86
-0.71
-0.57
-0.52
-0.60
-0.82
-1.17
-1.56
-1.91
-2.15
-2.27
-2.30
-2.25
-2.06
-1.65
-0.93
0.12
1.42
2.74
3.82
4.39
4.38
3.84
2.97
2.03
1.20
0.54
0.07
-0.23
-0.34
-0.23
0.07
0.50
0.90
1.09
0.99
0.62
0.11
-0.40
-0.77
-0.94
-0.94
-0.85
-0.76
-0.71
-0.72
-0.74
-0.72
-0.64
-0.51
-0.43
-0.48
-0.71
-1.04
-1.31
-1.32
-0.94
-0.17
0.83
1.82
2.57
2.95
2.96
2.71
2.31
1.84
1.34
0.80
0.26
-0.18
-0.43
-0.42
-0.15
0.27
0.67
0.91
0.93
0.75
0.44
0.08
-0.27
-0.56
-0.76
-0.85
-0.87
-0.84
-0.80
-0.75
-0.71
-0.68
-0.69
-0.85
-1.20
-1.73
-2.32
-2.74
-2.76
-2.25
-1.25
0.04
1.35
2.38
2.96
3.06
2.77
2.25
1.68
1.19
0.83
0.62
0.53
0.55
0.68
0.88
1.11
1.28
1.32
1.20
0.94
0.61
0.22
-0.20
-0.64
-1.08
-1.41
-1.54
-1.41
-1.12
-0.84
-0.78
-1.09
-1.72
-2.55
-3.35
-3.95
-4.24
-4.14
-3.64
-2.72
-1.42
0.12
1.63
2.79
3.36
3.27
2.68
1.86
1.09
0.51
0.15
-0.06
-0.14
-0.08
0.13
0.47
0.81
1.01
0.97
0.72
0.38
0.08
-0.09
-0.16
-0.21
-0.33
-0.57
-0.92
-1.30
-1.64
-1.86
-1.94
-1.91
-1.87
-1.88
-2.00
-2.22
-2.41
-2.45
-2.23
-1.74
-1.06
-0.29
0.51
1.30
2.05
2.70
3.12
3.17
2.80
2.07
1.15
0.31
-0.24
-0.40
-0.19
0.26
0.78
1.22
1.46
1.44
1.17
0.73
0.23
-0.21
-0.51
-0.66
-0.71
-0.72
-0.75
-0.80
-0.87
-0.97
-1.11
-1.33
-1.68
-2.12
-2.58
-2.90
-2.92
-2.53
-1.70
-0.53
0.80
2.06
3.04
3.60
3.72
3.46
2.93
2.25
1.54
0.88
0.38
0.14
0.19
0.53
1.04
1.59
2.01
2.19
2.07
1.65
1.00
0.20
-0.60
-1.28
-1.72
-1.85
-1.70
-1.38
-1.03
-0.81
-0.81
-1.05
-1.51
-2.09
-2.67
-3.13
-3.35
-3.23
-2.72
-1.84
-0.66
0.71
2.08
3.27
4.06
4.31
4.01
3.27
2.33
1.46
0.91
0.76
0.96
1.37
1.77
1.98
1.89
1.48
0.83
0.09
-0.59
-1.05
-1.25
-1.22
-1.08
-0.94
-0.91
-1.03
-1.27
-1.61
-1.97
-2.33
-2.66
-2.94
-3.14
-3.25
-3.19
-2.90
-2.28
-1.27
0.09
1.62
3.07
4.15
4.66
4.57
4.00
3.18
2.32
1.59
1.04
0.66
0.44
0.38
0.50
0.77
1.10
1.35
1.41
1.21
0.83
0.39
0.03
-0.21
-0.38
-0.57
-0.81
-1.07
-1.21
-1.17
-0.98
-0.81
-0.85
-1.14
-1.59
-1.96
-2.03
-1.75
-1.22
-0.59
-0.00
0.54
1.10
1.76
2.47
3.08
3.39
3.28
2.76
1.97
1.12
0.41
-0.05
-0.19
-0.02
0.37
0.85
1.25
1.44
1.35
1.01
0.52
0.05
-0.32
-0.55
-0.65
-0.71
-0.77
-0.88
-1.04
-1.27
-1.54
-1.81
-2.05
-2.23
-2.36
-2.47
-2.56
-2.58
-2.37
-1.78
-0.75
0.62
2.04
3.18
3.79
3.83
3.43
2.85
2.28
1.79
1.36
0.98
0.66
0.49
0.55
0.81
1.17
1.42
1.40
1.08
0.54
-0.02
-0.45
-0.66
-0.70
-0.70
-0.79
-1.07
-1.51
-2.02
-2.49
-2.82
-2.99
-3.02
-2.99
-2.92
-2.80
-2.57
-2.14
-1.45
-0.53
0.50
1.49
2.26
2.70
2.79
2.60
2.25
1.86
1.49
1.15
0.86
0.57
0.29
0.06
-0.06
-0.05
0.12
0.38
0.64
0.76
0.67
0.33
-0.18
-0.75
-1.25
-1.58
-1.73
-1.74
-1.70
-1.71
-1.83
-2.11
-2.52
-3.00
-3.41
-3.59
-3.38
-2.65
-1.42
0.16
1.81
3.17
4.02
4.23
3.90
3.25
2.51
1.83
1.24
0.73
0.30
0.04
0.06
0.46
1.15
1.94
2.54
2.69
2.33
1.57
0.64
-0.24
-0.95
-1.49
-1.93
-2.32
-2.65
-2.80
-2.70
-2.35
-1.93
-1.65
-1.68
-2.07
-2.62
-3.01
-2.94
-2.27
-1.10
0.28
1.56
2.47
2.93
3.01
2.85
2.56
2.19
1.75
1.26
0.79
0.42
0.25
0.31
0.57
0.94
1.32
1.61
1.73
1.69
1.49
1.18
0.80
0.38
-0.08
-0.58
-1.12
-1.65
-2.11
-2.39
-2.45
-2.31
-2.10
-1.94
-1.95
-2.11
-2.30
-2.34
-2.10
-1.53
-0.73
0.18
1.07
1.86
2.53
3.04
3.34
3.36
3.03
2.36
1.46
0.54
-0.15
-0.45
-0.31
0.18
0.80
1.35
1.65
1.64
1.34
0.85
0.31
-0.21
-0.66
-1.03
-1.32
-1.55
-1.73
-1.88
-2.03
-2.23
-2.49
-2.78
-3.06
-3.25
-3.29
-3.15
-2.82
-2.30
-1.61
-0.76
0.19
1.13
1.91
2.38
2.46
2.17
1.63
1.02
0.48
0.09
-0.16
-0.32
-0.40
-0.38
-0.23
0.06
0.43
0.76
0.92
0.84
0.53
0.08
-0.37
-0.76
-1.07
-1.31
-1.52
-1.69
-1.78
-1.79
-1.76
-1.74
-1.81
-1.98
-2.18
-2.31
-2.21
-1.81
-1.08
-0.09
1.03
2.09
2.92
3.39
3.44
3.12
2.53
1.85
1.19
0.68
0.36
0.28
0.42
0.77
1.22
1.63
1.87
1.85
1.59
1.19
0.78
0.45
0.19
-0.04
-0.30
-0.62
-0.95
-1.23
-1.41
-1.45
-1.40
-1.35
-1.40
-1.62
-2.03
-2.58
-3.08
-3.33
-3.14
-2.41
-1.20
0.28
1.78
3.05
3.94
4.39
4.42
4.07
3.40
2.49
1.50
0.62
0.07
-0.04
0.25
0.76
1.22
1.44
1.36
1.10
0.80
0.60
0.48
0.32
0.01
-0.46
-0.99
-1.38
-1.48
-1.28
-0.91
-0.56
-0.42
-0.57
-0.98
-1.52
-2.06
-2.48
-2.68
-2.59
-2.13
-1.32
-0.23
0.97
2.12
3.04
3.63
3.80
3.53
2.88
1.95
0.93
0.07
-0.44
-0.54
-0.28
0.12
0.46
0.57
0.41
0.06
-0.32
-0.59
-0.72
-0.73
-0.73
-0.81
-1.00
-1.22
-1.39
-1.41
-1.31
-1.22
-1.28
-1.58
-2.08
-2.63
-3.03
-3.10
-2.80
-2.16
-1.29
-0.29
0.77
1.82
2.76
3.48
3.83
3.74
3.22
2.42
1.59
0.94
0.59
0.53
0.65
0.82
1.00
1.17
1.37
1.57
1.70
1.68
1.42
0.94
0.34
-0.23
-0.64
-0.85
-0.90
-0.89
-0.91
-1.05
-1.32
-1.70
-2.12
-2.51
-2.79
-2.87
-2.67
-2.17
-1.38
-0.32
0.88
2.11
3.17
3.92
4.25
4.14
3.67
2.97
2.18
1.42
0.78
0.31
0.04
-0.01
0.14
0.41
0.67
0.77
0.62
0.20
-0.39
-1.03
-1.58
-1.95
-2.14
-2.19
-2.18
-2.20
-2.29
-2.45
-2.62
-2.72
-2.67
-2.50
-2.26
-2.04
-1.86
-1.68
-1.36
-0.80
0.02
0.99
1.92
2.62
2.99
3.03
2.84
2.49
2.07
1.59
1.07
0.54
0.09
-0.21
-0.26
-0.04
0.38
0.85
1.20
1.26
0.97
0.39
-0.31
-0.91
-1.28
-1.38
-1.30
-1.19
-1.16
-1.23
-1.36
-1.49
-1.57
-1.58
-1.54
-1.45
-1.24
-0.84
-0.21
0.65
1.63
2.59
3.33
3.69
3.56
2.97
2.01
0.90
-0.11
-0.84
-1.19
-1.18
-0.88
-0.40
0.15
0.66
1.03
1.15
0.97
0.52
-0.07
-0.64
-1.07
-1.33
-1.50
-1.64
-1.81
-2.00
-2.18
-2.34
-2.44
-2.47
-2.36
-2.01
-1.37
-0.47
0.52
1.41
2.01
2.26
2.19
1.93
1.54
1.08
0.53
-0.07
-0.64
-1.03
-1.12
-0.90
-0.48
-0.07
0.14
0.09
-0.15
-0.40
-0.55
-0.58
-0.59
-0.72
-1.03
-1.48
-1.96
-2.38
-2.72
-3.01
-3.28
-3.48
-3.43
-2.98
-2.04
-0.70
0.80
2.14
3.05
3.44
3.36
2.99
2.52
2.06
1.64
1.24
0.82
0.44
0.17
0.10
0.24
0.51
0.78
0.92
0.83
0.53
0.07
-0.43
-0.87
-1.17
-1.32
-1.34
-1.32
-1.37
-1.58
-2.00
-2.58
-3.18
-3.62
-3.75
-3.47
-2.76
-1.67
-0.35
1.02
2.23
3.12
3.57
3.59
3.24
2.67
2.04
1.48
1.07
0.84
0.77
0.84
1.03
1.30
1.59
1.80
1.79
1.52
1.00
0.34
-0.32
-0.82
-1.13
-1.26
-1.29
-1.31
-1.36
-1.43
-1.52
-1.64
-1.78
-1.94
-2.06
-2.05
-1.79
-1.22
-0.32
0.80
1.97
2.99
3.70
3.99
3.85
3.34
2.57
1.71
0.92
0.36
0.11
0.17
0.44
0.77
1.03
1.16
1.13
0.99
0.75
0.43
0.04
-0.37
-0.75
-1.05
-1.21
-1.28
-1.28
-1.28
-1.32
-1.42
-1.56
-1.71
-1.79
-1.69
-1.30
-0.58
0.40
1.46
2.41
3.12
3.54
3.71
3.64
3.33
2.76
1.94
0.99
0.10
-0.55
-0.84
-0.79
-0.53
-0.20
0.07
0.23
0.27
0.18
-0.05
-0.41
-0.85
-1.27
-1.57
-1.67
-1.59
-1.39
-1.21
-1.17
-1.34
-1.70
-2.11
-2.39
-2.36
-1.96
-1.21
-0.22
0.84
1.85
2.69
3.31
3.64
3.64
3.27
2.58
1.67
0.73
-0.04
-0.49
-0.58
-0.36
0.02
0.39
0.61
0.61
0.42
0.09
-0.29
-0.65
-0.96
-1.24
-1.49
-1.70
-1.84
-1.87
-1.81
-1.69
-1.61
-1.67
-1.92
-2.33
-2.76
-3.05
-3.02
-2.54
-1.57
-0.23
1.28
2.68
3.68
4.10
3.92
3.30
2.50
1.75
1.22
0.91
0.76
0.65
0.54
0.46
0.46
0.61
0.87
1.17
1.40
1.46
1.32
1.00
0.58
0.17
-0.18
-0.45
-0.68
-0.92
-1.18
-1.43
-1.59
-1.62
-1.53
-1.44
-1.46
-1.68
-2.06
-2.46
-2.67
-2.53
-1.99
-1.09
0.01
1.14
2.11
2.78
3.04
2.85
2.32
1.63
0.98
0.55
0.38
0.41
0.57
0.77
1.01
1.27
1.52
1.67
1.61
1.26
0.67
-0.01
-0.58
-0.92
-1.00
-0.92
-0.81
-0.78
-0.85
-1.01
-1.20
-1.35
-1.45
-1.48
-1.50
-1.56
-1.68
-1.85
-1.97
-1.88
-1.41
-0.53
0.66
1.89
2.88
3.39
3.35
2.86
2.08
1.20
0.36
-0.33
-0.82
-1.04
-0.96
-0.63
-0.12
0.41
0.85
1.09
1.13
0.98
0.69
0.31
-0.13
-0.58
-0.99
-1.33
-1.56
-1.67
-1.69
-1.64
-1.54
-1.40
-1.29
-1.26
-1.37
-1.64
-1.99
-2.26
-2.26
-1.85
-1.01
0.13
1.35
2.35
2.94
3.03
2.72
2.16
1.56
1.04
0.63
0.31
0.02
-0.26
-0.50
-0.61
-0.54
-0.30
0.02
0.28
0.36
0.24
-0.00
-0.23
-0.34
-0.33
-0.27
-0.28
-0.43
-0.68
-0.93
-1.08
-1.11
-1.08
-1.10
-1.26
-1.57
-1.98
-2.38
-2.64
-2.67
-2.37
-1.71
-0.72
0.46
1.63
2.56
3.07
3.13
2.81
2.30
1.77
1.33
0.98
0.66
0.37
0.13
0.03
0.13
0.39
0.70
0.89
0.86
0.60
0.25
-0.07
-0.29
-0.47
-0.70
-1.05
-1.51
-1.93
-2.19
-2.23
-2.08
-1.90
-1.82
-1.93
-2.16
-2.43
-2.59
-2.57
-2.33
-1.87
-1.18
-0.28
0.76
1.84
2.79
3.45
3.71
3.55
3.00
2.18
1.25
0.38
-0.26
-0.58
-0.56
-0.27
0.17
0.58
0.87
0.98
0.93
0.78
0.56
0.29
-0.00
-0.24
-0.36
-0.34
-0.21
-0.08
-0.09
-0.29
-0.68
-1.12
-1.49
-1.71
-1.80
-1.88
-2.07
-2.38
-2.70
-2.81
-2.50
-1.69
-0.50
0.79
1.88
2.55
2.78
2.65
2.33
1.91
1.41
0.81
0.12
-0.53
-0.96
-1.04
-0.74
-0.16
0.50
1.05
1.36
1.41
1.20
0.80
0.22
-0.47
-1.20
-1.86
-2.32
-2.48
-2.37
-2.06
-1.71
-1.48
-1.47
-1.69
-2.06
-2.43
-2.64
-2.53
-2.00
-1.10
0.05
1.21
2.13
2.67
2.79
2.62
2.31
2.02
1.80
1.62
1.42
1.18
0.96
0.84
0.87
1.01
1.15
1.17
1.01
0.66
0.17
-0.37
-0.92
-1.41
-1.79
-2.03
-2.11
-2.06
-1.92
-1.75
-1.62
-1.59
-1.72
-2.03
-2.51
-3.02
-3.35
-3.25
-2.55
-1.27
0.37
2.02
3.31
4.02
4.09
3.65
2.91
2.11
1.44
0.98
0.75
0.69
0.74
0.86
1.02
1.22
1.46
1.73
1.97
2.11
2.12
1.98
1.72
1.40
1.09
0.84
0.64
0.46
0.26
-0.01
-0.35
-0.73
-1.14
-1.57
-2.02
-2.49
-2.91
-3.15
-3.05
-2.50
-1.48
-0.13
1.29
2.53
3.38
3.74
3.64
3.20
2.56
1.86
1.23
0.78
0.58
0.66
0.96
1.35
1.69
1.84
1.73
1.40
0.91
0.38
-0.08
-0.41
-0.61
-0.73
-0.82
-0.93
-1.05
-1.16
-1.20
-1.18
-1.16
-1.22
-1.45
-1.81
-2.21
-2.49
-2.49
-2.13
-1.42
-0.47
0.58
1.60
2.50
3.18
3.54
3.52
3.06
2.23
1.17
0.13
-0.65
-0.96
-0.76
-0.17
0.58
1.22
1.55
1.51
1.12
0.53
-0.11
-0.66
-1.04
-1.26
-1.35
-1.39
-1.43
-1.50
-1.59
-1.69
-1.81
-1.97
-2.17
-2.38
-2.54
-2.52
-2.21
-1.58
-0.64
0.50
1.66
2.68
3.41
3.74
3.62
3.06
2.14
1.04
0.01
-0.74
-1.09
-1.06
-0.77
-0.42
-0.13
0.03
0.10
0.12
0.09
-0.04
-0.32
-0.74
-1.24
-1.68
-1.97
-2.07
-2.06
-2.03
-2.02
-2.03
-1.97
-1.77
-1.45
-1.12
-0.92
-0.91
-1.05
-1.15
-0.98
-0.41
0.52
1.62
2.61
3.29
3.57
3.50
3.19
2.75
2.25
1.70
1.16
0.67
0.30
0.12
0.09
0.17
0.27
0.31
0.29
0.22
0.12
0.02
-0.11
-0.28
-0.51
-0.76
-0.98
-1.09
-1.05
-0.90
-0.70
-0.58
-0.61
-0.86
-1.32
-1.91
-2.49
-2.88
-2.92
-2.55
-1.80
-0.78
0.33
1.40
2.29
2.93
3.22
3.09
2.52
1.60
0.55
-0.37
-0.90
-0.96
-0.61
-0.05
0.56
1.10
1.52
1.83
2.02
2.05
1.90
1.62
1.27
0.92
0.60
0.31
-0.00
-0.37
-0.76
-1.10
-1.35
-1.45
-1.45
-1.44
-1.49
-1.66
-1.93
-2.20
-2.31
-2.13
-1.61
-0.81
0.11
0.96
1.59
1.96
2.12
2.12
2.00
1.78
1.45
1.03
0.59
0.25
0.07
0.12
0.34
0.64
0.90
1.03
0.94
0.66
0.23
-0.22
-0.58
-0.78
-0.84
-0.82
-0.80
-0.85
-1.00
-1.22
-1.47
-1.72
-1.96
-2.22
-2.49
-2.73
-2.84
-2.72
-2.28
-1.51
-0.50
0.61
1.64
2.45
2.92
3.06
2.92
2.59
2.16
1.71
1.29
0.95
0.70
0.53
0.41
0.31
0.23
0.17
0.14
0.16
0.22
0.26
0.24
0.08
-0.21
-0.61
-1.04
-1.37
-1.54
-1.52
-1.36
-1.17
-1.10
-1.27
-1.72
-2.36
-3.04
-3.53
-3.68
-3.37
-2.60
-1.46
-0.09
1.28
2.44
3.21
3.50
3.37
2.95
2.43
1.92
1.49
1.11
0.79
0.56
0.51
0.72
1.16
1.67
2.05
2.13
1.84
1.26
0.53
-0.19
-0.80
-1.28
-1.63
-1.86
-1.94
-1.88
-1.67
-1.37
-1.06
-0.83
-0.74
-0.81
-1.07
-1.47
-1.93
-2.32
-2.47
-2.22
-1.50
-0.40
0.85
1.96
2.69
2.96
2.87
2.58
2.26
1.96
1.64
1.25
0.79
0.38
0.16
0.22
0.52
0.88
1.11
1.05
0.70
0.18
-0.34
-0.70
-0.82
-0.77
-0.63
-0.49
-0.38
-0.26
-0.08
0.13
0.29
0.25
-0.05
-0.62
-1.30
-1.93
-2.33
-2.46
-2.30
-1.90
-1.27
-0.41
0.64
1.73
2.69
3.32
3.52
3.30
2.78
2.12
1.49
1.01
0.75
0.75
0.95
1.26
1.52
1.63
1.53
1.25
0.88
0.49
0.13
-0.17
-0.44
-0.70
-0.98
-1.27
-1.58
-1.86
-2.08
-2.18
-2.16
-2.10
-2.10
-2.30
-2.75
-3.39
-4.06
-4.51
-4.52
-3.96
-2.85
-1.34
0.35
1.91
3.10
3.73
3.73
3.16
2.20
1.12
0.20
-0.34
-0.43
-0.13
0.40
0.95
1.37
1.58
1.59
1.44
1.17
0.82
0.41
-0.03
-0.43
-0.75
-1.01
-1.24
-1.51
-1.83
-2.12
-2.29
-2.26
-2.03
-1.71
-1.46
-1.41
-1.57
-1.87
-2.14
-2.20
-1.92
-1.28
-0.31
0.85
2.02
2.98
3.56
3.64
3.22
2.45
1.53
0.69
0.10
-0.13
0.00
0.41
0.95
1.49
1.88
2.03
1.94
1.68
1.37
1.11
0.92
0.76
0.53
0.12
-0.45
-1.12
-1.77
-2.26
-2.53
-2.60
-2.51
-2.38
-2.26
-2.21
-2.26
-2.34
-2.40
-2.31
-1.99
-1.35
-0.38
0.89
2.32
3.73
4.89
5.56
5.61
5.05
4.06
2.92
1.91
1.23
0.94
0.96
1.15
1.36
1.50
1.50
1.32
0.99
0.57
0.14
-0.15
-0.26
-0.18
-0.04
0.04
-0.04
-0.29
-0.60
-0.83
-0.87
-0.75
-0.58
-0.49
-0.61
-0.95
-1.46
-1.98
-2.37
-2.48
-2.22
-1.56
-0.60
0.52
1.62
2.55
3.22
3.57
3.60
3.32
2.76
1.96
1.00
-0.02
-0.97
-1.75
-2.27
-2.49
-2.44
-2.19
-1.86
-1.60
-1.50
-1.66
-2.06
-2.64
-3.29
-3.88
-4.27
-4.37
-4.12
-3.55
-2.77
-1.93
-1.23
-0.82
-0.74
-0.95
-1.34
-1.74
-2.00
-2.00
-1.70
-1.10
-0.23
0.81
1.88
2.80
3.40
3.57
3.32
2.75
2.05
1.41
0.94
0.67
0.55
0.53
0.58
0.71
0.93
1.20
1.42
1.48
1.27
0.83
0.27
-0.25
-0.62
-0.80
-0.89
-0.99
-1.20
-1.53
-1.94
-2.34
-2.69
-2.99
-3.27
-3.51
-3.67
-3.63
-3.25
-2.42
-1.15
0.42
2.00
3.29
4.06
4.25
4.01
3.53
3.00
2.53
2.09
1.66
1.23
0.90
0.72
0.76
0.95
1.16
1.30
1.30
1.24
1.18
1.20
1.27
1.29
1.14
0.74
0.14
-0.55
-1.13
-1.47
-1.54
-1.44
-1.33
-1.38
-1.66
-2.12
-2.63
-2.99
-3.05
-2.73
-2.03
-1.04
0.12
1.27
2.29
3.07
3.52
3.64
3.42
2.94
2.29
1.58
0.93
0.43
0.12
0.01
0.05
0.20
0.43
0.69
0.94
1.17
1.32
1.35
1.22
0.90
0.42
-0.14
-0.63
-0.93
-0.95
-0.74
-0.44
-0.23
-0.26
-0.58
-1.12
-1.72
-2.24
-2.59
-2.76
-2.73
-2.49
-1.98
-1.15
-0.06
1.14
2.19
2.88
3.08
2.83
2.33
1.75
1.23
0.80
0.42
0.04
-0.31
-0.56
-0.61
-0.46
-0.18
0.10
0.24
0.15
-0.17
-0.63
-1.14
-1.59
-1.89
-2.02
-2.00
-1.85
-1.64
-1.44
-1.31
-1.26
-1.26
-1.28
-1.30
-1.35
-1.47
-1.62
-1.69
-1.47
-0.82
0.25
1.56
2.80
3.72
4.18
4.23
3.98
3.54
2.92
2.11
1.14
0.14
-0.67
-1.13
-1.11
-0.66
0.10
0.97
1.75
2.26
2.40
2.14
1.53
0.72
-0.10
-0.74
-1.05
-1.03
-0.75
-0.41
-0.19
-0.26
-0.68
-1.42
-2.36
-3.33
-4.18
-4.75
-4.94
-4.67
-3.94
-2.82
-1.50
-0.18
0.95
1.74
2.16
2.27
2.15
1.87
1.52
1.15
0.81
0.59
0.54
0.65
0.87
1.08
1.16
1.05
0.75
0.36
0.01
-0.23
-0.33
-0.37
-0.42
-0.56
-0.80
-1.07
-1.29
-1.38
-1.34
-1.17
-0.97
-0.81
-0.78
-0.91
-1.13
-1.33
-1.31
-0.92
-0.14
0.91
1.98
2.80
3.21
3.21
2.96
2.63
2.33
2.03
1.67
1.21
0.71
0.35
0.27
0.53
1.03
1.58
1.97
2.05
1.79
1.25
0.56
-0.15
-0.74
-1.16
-1.39
-1.47
-1.49
-1.53
-1.64
-1.79
-1.94
-2.02
-2.04
-2.03
-2.04
-2.06
-2.02
-1.78
-1.26
-0.44
0.56
1.56
2.34
2.77
2.82
2.56
2.16
1.74
1.38
1.06
0.76
0.45
0.18
0.05
0.12
0.38
0.71
0.94
0.91
0.59
0.05
-0.52
-0.96
-1.21
-1.29
-1.29
-1.30
-1.36
-1.48
-1.64
-1.87
-2.18
-2.57
-2.96
-3.22
-3.21
-2.79
-1.95
-0.80
0.47
1.63
2.52
3.09
3.33
3.28
2.99
2.51
1.90
1.25
0.67
0.25
0.02
-0.04
-0.00
0.06
0.13
0.21
0.31
0.44
0.55
0.62
0.60
0.51
0.36
0.15
-0.15
-0.55
-1.06
-1.60
-2.06
-2.33
-2.34
-2.15
-1.88
-1.65
-1.49
-1.33
-1.01
-0.41
0.45
1.44
2.31
2.81
2.83
2.41
1.73
1.02
0.46
0.13
-0.02
-0.04
-0.01
0.07
0.21
0.43
0.68
0.84
0.79
0.46
-0.10
-0.75
-1.29
-1.59
-1.63
-1.50
-1.34
-1.26
-1.30
-1.45
-1.65
-1.86
-2.05
-2.19
-2.21
-1.99
-1.44
-0.54
0.62
1.84
2.85
3.46
3.58
3.30
2.81
2.26
1.76
1.29
0.83
0.39
0.07
0.01
0.27
0.83
1.47
1.94
2.05
1.72
1.08
0.30
-0.43
-1.00
-1.38
-1.60
-1.71
-1.72
-1.66
-1.56
-1.49
-1.55
-1.79
-2.18
-2.60
-2.83
-2.69
-2.10
-1.11
0.09
1.26
2.21
2.82
3.06
2.94
2.49
1.77
0.90
0.04
-0.63
-0.99
-1.01
-0.79
-0.47
-0.17
0.02
0.08
-0.01
-0.30
-0.80
-1.47
-2.16
-2.67
-2.83
-2.63
-2.20
-1.81
-1.71
-1.98
-2.49
-2.96
-3.11
-2.77
-1.95
-0.82
0.39
1.46
2.25
2.69
2.73
2.40
1.76
0.94
0.11
-0.53
-0.85
-0.80
-0.49
-0.09
0.23
0.38
0.33
0.13
-0.14
-0.42
-0.67
-0.86
-0.97
-1.01
-1.01
-1.04
-1.15
-1.38
-1.73
-2.14
-2.54
-2.83
-2.90
-2.65
-2.02
-1.05
0.14
1.34
2.35
3.02
3.30
3.24
2.96
2.57
2.13
1.70
1.33
1.08
0.98
1.01
1.11
1.18
1.14
0.94
0.62
0.25
-0.11
-0.40
-0.61
-0.77
-0.90
-1.01
-1.09
-1.16
-1.24
-1.36
-1.55
-1.80
-2.06
-2.26
-2.29
-2.02
-1.40
-0.40
0.85
2.16
3.27
3.97
4.13
3.78
3.11
2.32
1.64
1.14
0.83
0.67
0.62
0.69
0.89
1.19
1.51
1.73
1.77
1.61
1.27
0.86
0.44
0.10
-0.15
-0.30
-0.38
-0.45
-0.60
-0.89
-1.34
-1.86
-2.34
-2.62
-2.62
-2.35
-1.82
-1.09
-0.18
0.86
1.93
2.89
3.54
3.76
3.50
2.87
2.04
1.24
0.59
0.18
0.02
0.08
0.29
0.61
0.95
1.23
1.36
1.28
0.95
0.42
-0.25
-0.99
-1.68
-2.25
-2.66
-2.86
-2.83
-2.63
-2.33
-2.08
-1.99
-2.10
-2.30
-2.36
-2.07
-1.30
-0.14
1.16
2.28
2.96
3.13
2.88
2.39
1.83
1.31
0.85
0.44
0.07
-0.18
-0.28
-0.18
0.11
0.48
0.78
0.89
0.74
0.39
-0.02
-0.36
-0.54
-0.58
-0.57
-0.60
-0.70
-0.84
-0.96
-1.04
-1.14
-1.35
-1.71
-2.17
-2.57
-2.71
-2.44
-1.71
-0.61
0.72
2.04
3.16
3.90
4.15
3.92
3.31
2.52
1.71
1.01
0.43
-0.02
-0.33
-0.42
-0.25
0.17
0.70
1.10
1.19
0.87
0.27
-0.42
-0.98
-1.31
-1.44
-1.47
-1.51
-1.61
-1.75
-1.88
-1.95
-1.97
-1.99
-2.04
-2.11
-2.15
-2.02
-1.65
-0.96
0.01
1.11
2.14
2.93
3.37
3.46
3.27
2.90
2.41
1.85
1.25
0.68
0.26
0.08
0.21
0.59
1.06
1.44
1.54
1.33
0.87
0.32
-0.17
-0.51
-0.70
-0.78
-0.84
-0.89
-0.93
-0.96
-0.94
-0.89
-0.84
-0.81
-0.83
-0.93
-1.14
-1.46
-1.87
-2.26
-2.44
-2.22
-1.46
-0.20
1.32
2.73
3.73
4.12
3.96
3.45
2.82
2.22
1.69
1.21
0.78
0.49
0.48
0.80
1.39
2.00
2.38
2.35
1.90
1.19
0.42
-0.26
-0.83
-1.34
-1.81
-2.21
-2.43
-2.36
-2.01
-1.48
-0.98
-0.69
-0.68
-0.92
-1.30
-1.69
-2.04
-2.32
-2.49
-2.45
-2.06
-1.20
0.11
1.69
3.16
4.17
4.48
4.08
3.17
2.08
1.08
0.33
-0.14
-0.42
-0.59
-0.72
-0.81
-0.81
-0.67
-0.40
-0.06
0.25
0.42
0.39
0.17
-0.13
-0.43
-0.65
-0.79
-0.93
-1.12
-1.42
-1.79
-2.18
-2.50
-2.66
-2.66
-2.57
-2.50
-2.54
-2.67
-2.79
-2.68
-2.19
-1.24
0.04
1.44
2.67
3.52
3.88
3.76
3.24
2.47
1.59
0.82
0.29
0.11
0.28
0.69
1.16
1.52
1.69
1.65
1.43
1.09
0.68
0.22
-0.23
-0.60
-0.81
-0.82
-0.69
-0.53
-0.47
-0.58
-0.85
-1.16
-1.37
-1.45
-1.44
-1.48
-1.69
-2.09
-2.56
-2.86
-2.79
-2.24
-1.27
-0.06
1.14
2.13
2.79
3.08
3.02
2.65
2.03
1.25
0.47
-0.13
-0.41
-0.30
0.13
0.73
1.29
1.63
1.65
1.40
1.01
0.58
0.21
-0.08
-0.35
-0.62
-0.91
-1.18
-1.39
-1.52
-1.62
-1.71
-1.83
-1.93
-1.97
-1.94
-1.90
-1.94
-2.14
-2.44
-2.68
-2.58
-1.95
-0.74
0.85
2.47
3.73
4.35
4.27
3.61
2.62
1.55
0.58
-0.16
-0.63
-0.77
-0.62
-0.23
0.26
0.67
0.90
0.89
0.70
0.44
0.20
0.02
-0.14
-0.35
-0.65
-1.00
-1.32
-1.51
-1.55
-1.46
-1.33
-1.26
-1.28
-1.42
-1.64
-1.88
-2.09
-2.18
-2.07
-1.69
-1.00
-0.03
1.08
2.15
2.96
3.35
3.25
2.72
1.91
1.05
0.34
-0.07
-0.17
-0.01
0.31
0.67
0.97
1.11
1.03
0.68
0.09
-0.64
-1.33
-1.82
-2.00
-1.91
-1.63
-1.30
-1.04
-0.92
-0.95
-1.15
-1.51
-1.97
-2.45
-2.80
-2.93
-2.78
-2.38
-1.79
-1.07
-0.27
0.60
1.53
2.42
3.17
3.61
3.63
3.18
2.32
1.24
0.19
-0.59
-0.95
-0.85
-0.43
0.11
0.58
0.84
0.88
0.74
0.47
0.09
-0.38
-0.88
-1.30
-1.52
-1.46
-1.16
-0.76
-0.45
-0.37
-0.56
-0.95
-1.41
-1.85
-2.23
-2.55
-2.78
-2.83
-2.54
-1.79
-0.58
0.93
2.46
3.71
4.47
4.71
4.52
4.04
3.41
2.69
1.94
1.20
0.55
0.09
-0.14
-0.14
0.03
0.26
0.51
0.69
0.79
0.74
0.54
0.20
-0.24
-0.70
-1.10
-1.41
-1.59
-1.64
-1.56
-1.35
-1.06
-0.78
-0.62
-0.66
-0.92
-1.35
-1.79
-2.08
-2.02
-1.56
-0.69
0.43
1.62
2.64
3.33
3.58
3.38
2.82
2.00
1.09
0.21
-0.48
-0.87
-0.90
-0.61
-0.10
0.42
0.79
0.91
0.79
0.54
0.27
0.08
-0.04
-0.17
-0.38
-0.68
-0.99
-1.20
-1.19
-0.95
-0.57
-0.19
-0.00
-0.11
-0.50
-1.07
-1.61
-1.89
-1.73
-1.08
-0.08
1.05
2.02
2.65
2.86
2.74
2.41
2.00
1.59
1.17
0.76
0.35
0.01
-0.22
-0.27
-0.13
0.19
0.59
0.96
1.13
1.00
0.55
-0.13
-0.82
-1.35
-1.58
-1.57
-1.44
-1.37
-1.47
-1.75
-2.17
-2.66
-3.16
-3.58
-3.84
-3.81
-3.38
-2.50
-1.23
0.25
1.70
2.85
3.51
3.60
3.14
2.24
1.11
-0.03
-0.95
-1.52
-1.67
-1.45
-0.98
-0.37
0.21
0.63
0.77
0.60
0.14
-0.49
-1.11
-1.60
-1.88
-1.96
-1.92
-1.85
-1.80
-1.82
-1.90
-2.05
-2.26
-2.52
-2.80
-3.04
-3.19
-3.14
-2.81
-2.10
-1.00
0.39
1.85
3.07
3.80
3.93
3.53
2.80
2.00
1.32
0.84
0.60
0.58
0.75
1.09
1.50
1.89
2.13
2.14
1.93
1.55
1.09
0.62
0.18
-0.22
-0.57
-0.87
-1.10
-1.30
-1.52
-1.82
-2.23
-2.73
-3.24
-3.65
-3.88
-3.91
-3.72
-3.33
-2.72
-1.84
-0.70
0.61
1.91
2.94
3.54
3.61
3.24
2.60
1.86
1.18
0.67
0.37
0.28
0.38
0.59
0.84
1.06
1.22
1.34
1.44
1.50
1.45
1.21
0.74
0.09
-0.62
-1.22
-1.58
-1.67
-1.55
-1.37
-1.27
-1.39
-1.77
-2.34
-2.94
-3.32
-3.27
-2.66
-1.53
-0.06
1.47
2.76
3.61
3.92
3.74
3.18
2.36
1.45
0.62
0.03
-0.17
0.05
0.62
1.34
2.00
2.46
2.66
2.60
2.33
1.88
1.26
0.53
-0.21
-0.81
-1.18
-1.35
-1.41
-1.53
-1.79
-2.15
-2.51
-2.74
-2.81
-2.73
-2.56
-2.32
-1.97
-1.42
-0.62
0.40
1.52
2.53
3.28
3.65
3.63
3.27
2.68
1.99
1.33
0.78
0.40
0.20
0.19
0.34
0.62
0.97
1.31
1.57
1.63
1.44
0.97
0.27
-0.51
-1.22
-1.73
-2.01
-2.07
-2.01
-1.92
-1.88
-1.94
-2.14
-2.44
-2.80
-3.12
-3.23
-2.97
-2.19
-0.87
0.86
2.72
4.36
5.45
5.82
5.50
4.71
3.72
2.76
1.97
1.37
0.94
0.70
0.68
0.90
1.27
1.62
1.72
1.45
0.87
0.17
-0.42
-0.73
-0.77
-0.68
-0.63
-0.72
-0.95
-1.23
-1.45
-1.56
-1.60
-1.67
-1.85
-2.21
-2.70
-3.19
-3.51
-3.49
-3.00
-2.04
-0.73
0.78
2.26
3.55
4.48
4.95
4.92
4.45
3.67
2.77
1.98
1.42
1.12
1.02
1.00
0.95
0.86
0.76
0.68
0.66
0.67
0.66
0.55
0.34
0.07
-0.20
-0.38
-0.42
-0.34
-0.22
-0.20
-0.39
-0.80
-1.37
-1.96
-2.42
-2.68
-2.78
-2.80
-2.81
-2.80
-2.64
-2.18
-1.33
-0.13
1.20
2.42
3.30
3.74
3.74
3.41
2.86
2.20
1.52
0.93
0.52
0.34
0.40
0.63
0.94
1.21
1.38
1.39
1.25
0.94
0.45
-0.17
-0.86
-1.48
-1.95
-2.20
-2.26
-2.21
-2.13
-2.04
-1.94
-1.83
-1.76
-1.83
-2.11
-2.59
-3.13
-3.45
-3.27
-2.42
-0.97
0.79
2.48
3.71
4.26
4.13
3.48
2.57
1.64
0.87
0.32
-0.01
-0.17
-0.20
-0.13
0.01
0.20
0.36
0.43
0.35
0.13
-0.18
-0.45
-0.58
-0.54
-0.36
-0.16
-0.08
-0.18
-0.47
-0.86
-1.25
-1.57
-1.83
-2.05
-2.28
-2.52
-2.74
-2.86
-2.75
-2.30
-1.42
-0.15
1.34
2.77
3.80
4.21
3.95
3.19
2.20
1.23
0.44
-0.11
-0.41
-0.45
-0.19
0.36
1.08
1.74
2.07
1.94
1.38
0.60
-0.10
-0.51
-0.58
-0.43
-0.27
-0.24
-0.37
-0.58
-0.80
-0.94
-1.04
-1.17
-1.38
-1.69
-2.04
-2.37
-2.58
-2.59
-2.36
-1.84
-1.04
-0.03
1.09
2.16
3.00
3.47
3.51
3.17
2.57
1.88
1.27
0.83
0.59
0.51
0.53
0.61
0.72
0.88
1.04
1.17
1.16
0.95
0.58
0.14
-0.25
-0.49
-0.57
-0.58
-0.62
-0.76
-1.01
-1.27
-1.45
-1.49
-1.41
-1.32
-1.32
-1.50
-1.87
-2.28
-2.53
-2.38
-1.70
-0.53
0.90
2.24
3.18
3.52
3.32
2.77
2.09
1.42
0.83
0.28
-0.21
-0.57
-0.72
-0.61
-0.29
0.12
0.46
0.65
0.66
0.56
0.40
0.22
-0.02
-0.33
-0.73
-1.15
-1.54
-1.86
-2.11
-2.32
-2.53
-2.72
-2.88
-2.96
-2.96
-2.90
-2.77
-2.57
-2.21
-1.62
-0.75
0.34
1.52
2.59
3.35
3.69
3.60
3.16
2.51
1.79
1.12
0.61
0.33
0.32
0.55
0.93
1.30
1.51
1.45
1.12
0.64
0.13
-0.28
-0.53
-0.66
-0.73
-0.81
-0.89
-0.98
-1.07
-1.17
-1.31
-1.49
-1.68
-1.84
-1.96
-2.03
-2.05
-2.01
-1.83
-1.43
-0.74
0.23
1.36
2.48
3.37
3.87
3.87
3.41
2.60
1.63
0.69
-0.06
-0.51
-0.65
-0.50
-0.13
0.37
0.89
1.31
1.56
1.58
1.40
1.09
0.75
0.45
0.19
-0.03
-0.27
-0.54
-0.83
-1.11
-1.37
-1.61
-1.84
-2.03
-2.18
-2.27
-2.31
-2.33
-2.35
-2.32
-2.11
-1.59
-0.70
0.51
1.79
2.85
3.46
3.55
3.21
2.66
2.06
1.53
1.09
0.72
0.43
0.24
0.18
0.27
0.46
0.68
0.85
0.90
0.81
0.55
0.19
-0.18
-0.45
-0.54
-0.48
-0.41
-0.48
-0.79
-1.29
-1.80
-2.14
-2.26
-2.22
-2.21
-2.34
-2.55
-2.66
-2.43
-1.72
-0.59
0.71
1.91
2.77
3.20
3.20
2.81
2.13
1.29
0.44
-0.24
-0.62
-0.65
-0.43
-0.12
0.13
0.23
0.19
0.07
-0.11
-0.31
-0.56
-0.85
-1.15
-1.38
-1.48
-1.42
-1.22
-0.97
-0.76
-0.70
-0.82
-1.12
-1.51
-1.92
-2.25
-2.43
-2.45
-2.29
-1.94
-1.37
-0.56
0.44
1.53
2.49
3.17
3.45
3.35
3.00
2.58
2.19
1.87
1.53
1.11
0.60
0.10
-0.21
-0.24
0.01
0.36
0.61
0.59
0.26
-0.26
-0.80
-1.25
-1.58
-1.83
-2.06
-2.26
-2.33
-2.18
-1.78
-1.25
-0.78
-0.59
-0.77
-1.24
-1.81
-2.21
-2.23
-1.79
-0.93
0.19
1.41
2.54
3.43
3.95
4.04
3.68
2.95
2.00
1.03
0.22
-0.26
-0.38
-0.16
0.29
0.82
1.27
1.52
1.51
1.25
0.79
0.27
-0.19
-0.49
-0.60
-0.60
-0.60
-0.68
-0.88
-1.18
-1.47
-1.68
-1.81
-1.88
-1.98
-2.14
-2.36
-2.54
-2.57
-2.32
-1.72
-0.78
0.40
1.62
2.67
3.38
3.69
3.62
3.26
2.71
2.05
1.35
0.69
0.17
-0.08
-0.00
0.35
0.84
1.27
1.49
1.48
1.28
0.98
0.66
0.30
-0.10
-0.51
-0.85
-1.00
-0.94
-0.70
-0.42
-0.29
-0.41
-0.76
-1.28
-1.82
-2.27
-2.54
-2.56
-2.27
-1.66
-0.78
0.23
1.20
1.96
2.38
2.47
2.29
1.95
1.52
1.02
0.49
-0.06
-0.54
-0.87
-0.99
-0.90
-0.64
-0.30
0.02
0.26
0.38
0.38
0.26
0.05
-0.23
-0.57
-0.92
-1.27
-1.57
-1.79
-1.91
-1.93
-1.91
-1.93
-2.04
-2.21
-2.36
-2.35
-2.08
-1.53
-0.78
0.05
0.84
1.53
2.09
2.49
2.73
2.72
2.44
1.91
1.22
0.50
-0.10
-0.52
-0.74
-0.80
-0.72
-0.56
-0.32
-0.04
0.23
0.46
0.61
0.66
0.60
0.44
0.19
-0.14
-0.50
-0.87
-1.17
-1.38
-1.46
-1.45
-1.38
-1.30
-1.25
-1.26
-1.34
-1.45
-1.50
-1.35
-0.87
-0.05
1.00
2.08
2.92
3.36
3.38
3.04
2.49
1.83
1.15
0.54
0.08
-0.13
-0.03
0.31
0.76
1.12
1.23
1.05
0.64
0.11
-0.40
-0.76
-0.93
-0.90
-0.75
-0.56
-0.43
-0.39
-0.44
-0.54
-0.66
-0.84
-1.10
-1.46
-1.90
-2.33
-2.58
-2.52
-2.08
-1.26
-0.22
0.85
1.72
2.26
2.43
2.31
2.04
1.73
1.47
1.26
1.11
0.99
0.91
0.91
0.97
1.08
1.19
1.28
1.33
1.29
1.15
0.89
0.53
0.12
-0.27
-0.58
-0.79
-0.94
-1.09
-1.27
-1.50
-1.70
-1.85
-1.92
-1.96
-2.02
-2.11
-2.15
-1.98
-1.47
-0.58
0.57
1.75
2.66
3.11
3.04
2.60
1.99
1.42
1.01
0.75
0.61
0.53
0.50
0.53
0.65
0.81
0.92
0.89
0.65
0.18
-0.44
-1.11
-1.69
-2.08
-2.24
-2.20
-2.06
-1.95
-1.96
-2.10
-2.29
-2.43
-2.46
-2.40
-2.32
-2.32
-2.37
-2.36
-2.07
-1.35
-0.25
1.02
2.12
2.75
2.80
2.37
1.71
1.04
0.48
0.04
-0.34
-0.66
-0.86
-0.84
-0.56
-0.07
0.45
0.81
0.88
0.68
0.35
0.06
-0.07
-0.04
0.04
0.02
-0.18
-0.56
-1.03
-1.45
-1.72
-1.83
-1.83
-1.79
-1.76
-1.75
-1.71
-1.62
-1.43
-1.10
-0.64
-0.06
0.61
1.30
1.90
2.34
2.55
2.52
2.25
1.81
1.25
0.65
0.15
-0.16
-0.19
0.05
0.46
0.90
1.21
1.31
1.20
0.96
0.68
0.38
0.04
-0.38
-0.87
-1.35
-1.70
-1.81
-1.67
-1.36
-1.03
-0.83
-0.87
-1.18
-1.69
-2.28
-2.75
-2.93
-2.64
-1.83
-0.56
0.93
2.35
3.39
3.90
3.85
3.35
2.59
1.73
0.93
0.31
-0.09
-0.23
-0.12
0.17
0.53
0.85
1.04
1.05
0.91
0.68
0.41
0.16
-0.07
-0.28
-0.50
-0.76
-1.03
-1.26
-1.38
-1.37
-1.25
-1.11
-1.07
-1.17
-1.41
-1.69
-1.86
-1.80
-1.44
-0.79
0.06
1.00
1.89
2.64
3.17
3.45
3.43
3.14
2.62
1.93
1.18
0.48
-0.06
-0.37
-0.44
-0.26
0.11
0.57
0.97
1.16
1.04
0.63
0.08
-0.45
-0.80
-0.97
-1.04
-1.13
-1.34
-1.68
-2.09
-2.52
-2.91
-3.24
-3.44
-3.45
-3.19
-2.63
-1.79
-0.75
0.37
1.47
2.45
3.20
3.67
3.81
3.63
3.17
2.51
1.73
0.94
0.24
-0.26
-0.50
-0.47
-0.26
0.01
0.23
0.35
0.36
0.31
0.18
-0.04
-0.41
-0.93
-1.50
-2.01
-2.31
-2.34
-2.13
-1.80
-1.47
-1.27
-1.25
-1.40
-1.64
-1.86
-1.96
-1.89
-1.60
-1.11
-0.43
0.44
1.48
2.63
3.77
4.71
5.29
5.39
5.01
4.29
3.43
2.61
1.97
1.56
1.40
1.42
1.52
1.57
1.42
1.04
0.50
-0.06
-0.48
-0.71
-0.81
-0.91
-1.10
-1.43
-1.84
-2.25
-2.60
-2.86
-3.00
-2.99
-2.82
-2.52
-2.17
-1.88
-1.67
-1.49
-1.21
-0.73
-0.01
0.86
1.70
2.37
2.79
2.93
2.86
2.64
2.38
2.16
2.06
2.07
2.12
2.13
2.02
1.80
1.60
1.54
1.68
1.93
2.09
1.94
1.38
0.46
-0.58
-1.50
-2.09
-2.31
-2.26
-2.10
-1.95
-1.87
-1.81
-1.78
-1.80
-1.96
-2.32
-2.80
-3.20
-3.25
-2.76
-1.74
-0.40
0.92
1.94
2.53
2.72
2.63
2.35
1.94
1.42
0.81
0.21
-0.27
-0.53
-0.50
-0.19
0.30
0.84
1.23
1.29
0.91
0.15
-0.80
-1.69
-2.28
-2.47
-2.33
-2.05
-1.76
-1.57
-1.46
-1.43
-1.48
-1.64
-1.91
-2.22
-2.40
-2.24
-1.59
-0.48
0.87
2.11
2.93
3.16
2.84
2.21
1.51
0.91
0.46
0.11
-0.16
-0.33
-0.33
-0.11
0.28
0.73
1.10
1.29
1.30
1.15
0.88
0.51
0.04
-0.46
-0.89
-1.16
-1.22
-1.12
-0.99
-0.98
-1.15
-1.50
-1.93
-2.35
-2.67
-2.79
-2.62
-2.12
-1.26
-0.12
1.13
2.30
3.21
3.74
3.83
3.47
2.71
1.66
0.52
-0.47
-1.09
-1.23
-0.92
-0.31
0.36
0.91
1.23
1.30
1.14
0.78
0.28
-0.30
-0.86
-1.33
-1.64
-1.76
-1.73
-1.58
-1.40
-1.24
-1.18
-1.29
-1.59
-2.01
-2.38
-2.49
-2.18
-1.41
-0.30
0.91
1.99
2.73
3.08
3.07
2.79
2.32
1.76
1.19
0.71
0.43
0.40
0.57
0.83
1.00
0.97
0.69
0.25
-0.19
-0.48
-0.53
-0.38
-0.12
0.10
0.23
0.28
0.29
0.31
0.31
0.20
-0.11
-0.62
-1.24
-1.76
-1.96
-1.72
-1.09
-0.25
0.57
1.18
1.49
1.54
1.39
1.14
0.81
0.46
0.13
-0.12
-0.22
-0.13
0.10
0.40
0.66
0.80
0.81
0.66
0.38
-0.03
-0.54
-1.06
-1.51
-1.79
-1.85
-1.71
-1.49
-1.36
-1.49
-1.93
-2.62
-3.36
-3.88
-3.95
-3.48
-2.53
-1.29
0.03
1.24
2.19
2.81
3.08
2.99
2.58
1.95
1.23
0.56
0.07
-0.17
-0.15
0.12
0.55
1.03
1.44
1.66
1.62
1.33
0.84
0.23
-0.41
-0.97
-1.38
-1.55
-1.47
-1.22
-0.98
-0.95
-1.23
-1.79
-2.44
-2.95
-3.11
-2.86
-2.21
-1.28
-0.15
1.06
2.24
3.19
3.72
3.74
3.25
2.42
1.50
0.70
0.15
-0.15
-0.27
-0.26
-0.15
0.04
0.30
0.59
0.81
0.87
0.70
0.30
-0.27
-0.88
-1.44
-1.84
-2.05
-2.08
-2.00
-1.86
-1.72
-1.61
-1.51
-1.37
-1.13
-0.74
-0.22
0.36
0.92
1.39
1.76
2.04
2.28
2.43
2.38
2.05
1.43
0.68
0.05
-0.21
-0.01
0.53
1.16
1.60
1.72
1.55
1.23
0.90
0.61
0.35
0.05
-0.32
-0.72
-1.09
-1.37
-1.54
-1.60
-1.62
-1.69
-1.85
-2.09
-2.34
-2.45
-2.28
-1.76
-0.91
0.13
1.17
2.00
2.50
2.63
2.44
2.03
1.56
1.14
0.87
0.82
0.99
1.33
1.76
2.17
2.43
2.42
2.09
1.44
0.58
-0.33
-1.13
-1.68
-1.98
-2.09
-2.14
-2.26
-2.51
-2.86
-3.25
-3.63
-3.95
-4.21
-4.36
-4.35
-4.05
-3.38
-2.34
-1.03
0.31
1.44
2.20
2.57
2.60
2.42
2.09
1.64
1.10
0.53
0.05
-0.18
-0.07
0.33
0.87
1.30
1.47
1.32
0.95
0.48
0.02
-0.41
-0.85
-1.33
-1.83
-2.31
-2.69
-2.95
-3.10
-3.19
-3.24
-3.24
-3.17
-2.99
-2.63
-2.03
-1.13
0.07
1.44
2.72
3.64
3.97
3.70
3.01
2.15
1.34
0.70
0.24
-0.01
-0.05
0.17
0.60
1.13
1.54
1.66
1.41
0.87
0.21
-0.37
-0.77
-0.97
-1.02
-1.02
-1.04
-1.14
-1.35
-1.65
-1.98
-2.29
-2.51
-2.57
-2.41
-1.96
-1.15
0.00
1.39
2.80
3.98
4.73
4.97
4.75
4.25
3.64
3.04
2.47
1.92
1.38
0.90
0.53
0.29
0.19
0.18
0.19
0.20
0.19
0.18
0.18
0.16
0.10
-0.03
-0.22
-0.41
-0.53
-0.59
-0.62
-0.74
-1.02
-1.43
-1.85
-2.08
-1.93
-1.35
-0.43
0.63
1.62
2.38
2.89
3.19
3.28
3.15
2.77
2.13
1.31
0.49
-0.15
-0.47
-0.45
-0.17
0.24
0.64
0.94
1.12
1.14
0.99
0.66
0.16
-0.40
-0.90
-1.21
-1.26
-1.12
-0.94
-0.92
-1.18
-1.75
-2.49
-3.17
-3.54
-3.42
-2.78
-1.68
-0.34
1.04
2.23
3.09
3.52
3.52
3.13
2.44
1.59
0.75
0.11
-0.20
-0.13
0.26
0.84
1.42
1.85
2.06
2.03
1.78
1.38
0.91
0.47
0.13
-0.08
-0.19
-0.28
-0.45
-0.70
-1.01
-1.30
-1.55
-1.73
-1.86
-1.87
-1.62
-0.98
0.09
1.44
2.74
3.65
3.93
3.57
2.75
1.79
0.95
0.40
0.20
0.29
0.56
0.87
1.08
1.11
0.92
0.58
0.15
-0.29
-0.71
-1.09
-1.44
-1.74
-1.94
-2.01
-1.96
-1.85
-1.76
-1.76
-1.89
-2.09
-2.24
-2.20
-1.91
-1.32
-0.51
0.40
1.25
1.90
2.25
2.26
1.99
1.54
1.03
0.55
0.16
-0.13
-0.32
-0.38
-0.28
0.00
0.45
0.94
1.31
1.36
1.02
0.36
-0.43
-1.12
-1.54
-1.70
-1.73
-1.77
-1.93
-2.17
-2.40
-2.53
-2.54
-2.44
-2.27
-1.99
-1.51
-0.73
0.32
1.50
2.56
3.25
3.48
3.26
2.73
2.04
1.35
0.73
0.27
0.01
-0.03
0.13
0.40
0.68
0.88
0.98
1.00
0.97
0.89
0.75
0.55
0.31
0.08
-0.10
-0.22
-0.34
-0.54
-0.86
-1.31
-1.83
-2.33
-2.71
-2.88
-2.72
-2.16
-1.21
-0.02
1.18
2.12
2.61
2.63
2.28
1.75
1.20
0.74
0.39
0.15
0.05
0.15
0.48
1.00
1.56
1.97
2.05
1.79
1.27
0.67
0.19
-0.07
-0.12
-0.06
-0.01
-0.04
-0.20
-0.46
-0.75
-1.01
-1.19
-1.30
-1.35
-1.40
-1.45
-1.48
-1.42
-1.22
-0.82
-0.27
0.36
0.96
1.44
1.75
1.88
1.82
1.62
1.32
0.99
0.68
0.44
0.29
0.22
0.19
0.17
0.14
0.08
-0.04
-0.24
-0.49
-0.79
-1.09
-1.39
-1.67
-1.93
-2.16
-2.32
-2.36
-2.25
-1.98
-1.61
-1.23
-0.99
-0.97
-1.17
-1.50
-1.75
-1.73
-1.33
-0.58
0.36
1.25
1.92
2.28
2.35
2.18
1.84
1.38
0.84
0.34
0.02
-0.00
0.27
0.72
1.13
1.33
1.24
0.87
0.36
-0.17
-0.60
-0.90
-1.08
-1.19
-1.29
-1.42
-1.57
-1.67
-1.68
-1.56
-1.36
-1.22
-1.24
-1.46
-1.81
-2.11
-2.12
-1.73
-0.89
0.26
1.51
2.66
3.53
4.02
4.09
3.77
3.11
2.22
1.23
0.32
-0.35
-0.68
-0.65
-0.34
0.05
0.32
0.37
0.21
-0.06
-0.32
-0.49
-0.59
-0.73
-0.98
-1.33
-1.70
-1.95
-1.98
-1.81
-1.56
-1.35
-1.29
-1.38
-1.56
-1.77
-1.97
-2.12
-2.18
-2.05
-1.66
-0.91
0.15
1.38
2.56
3.47
3.96
4.00
3.64
3.01
2.24
1.51
0.92
0.57
0.46
0.55
0.72
0.88
0.98
1.03
1.08
1.13
1.16
1.11
0.88
0.43
-0.22
-0.94
-1.61
-2.12
-2.41
-2.49
-2.40
-2.21
-1.95
-1.68
-1.41
-1.16
-0.91
-0.60
-0.17
0.40
1.06
1.73
2.29
2.67
2.87
2.88
2.72
2.34
1.72
0.84
-0.21
-1.21
-1.94
-2.18
-1.90
-1.23
-0.43
0.23
0.56
0.51
0.14
-0.39
-0.93
-1.38
-1.68
-1.84
-1.89
-1.91
-1.96
-2.07
-2.24
-2.43
-2.57
-2.56
-2.38
-2.00
-1.42
-0.66
0.27
1.31
2.39
3.38
4.09
4.40
4.24
3.63
2.72
1.69
0.72
-0.02
-0.46
-0.59
-0.48
-0.25
-0.02
0.10
0.10
0.01
-0.09
-0.16
-0.20
-0.27
-0.43
-0.67
-0.93
-1.10
-1.09
-0.92
-0.69
-0.55
-0.61
-0.92
-1.37
-1.82
-2.07
-1.98
-1.50
-0.67
0.36
1.39
2.26
2.86
3.13
3.09
2.78
2.22
1.50
0.74
0.06
-0.36
-0.43
-0.18
0.27
0.73
1.01
1.00
0.72
0.28
-0.13
-0.41
-0.54
-0.59
-0.69
-0.92
-1.27
-1.66
-1.99
-2.21
-2.32
-2.36
-2.34
-2.25
-2.04
-1.67
-1.17
-0.56
0.10
0.78
1.47
2.15
2.74
3.12
3.16
2.76
1.95
0.89
-0.20
-1.05
-1.50
-1.49
-1.09
-0.46
0.23
0.81
1.15
1.17
0.89
0.39
-0.20
-0.70
-0.99
-1.01
-0.86
-0.70
-0.66
-0.81
-1.13
-1.50
-1.84
-2.06
-2.14
-2.01
-1.61
-0.87
0.18
1.43
2.63
3.56
4.01
3.97
3.49
2.72
1.82
0.93
0.14
-0.45
-0.77
-0.80
-0.58
-0.24
0.09
0.32
0.42
0.39
0.27
0.05
-0.31
-0.81
-1.41
-2.00
-2.44
-2.65
-2.64
-2.57
-2.60
-2.84
-3.24
-3.64
-3.79
-3.50
-2.75
-1.64
-0.40
0.71
1.51
1.97
2.15
2.14
2.02
1.80
1.43
0.90
0.28
-0.27
-0.58
-0.54
-0.17
0.37
0.86
1.12
1.04
0.69
0.15
-0.42
-0.94
-1.34
-1.64
-1.81
-1.89
-1.90
-1.90
-1.95
-2.10
-2.36
-2.65
-2.86
-2.84
-2.49
-1.80
-0.88
0.10
0.96
1.61
2.02
2.23
2.28
2.17
1.89
1.47
0.96
0.46
0.06
-0.21
-0.35
-0.40
-0.37
-0.23
0.06
0.42
0.74
0.81
0.51
-0.14
-0.98
-1.75
-2.26
-2.45
-2.40
-2.27
-2.23
-2.35
-2.59
-2.82
-2.87
-2.57
-1.84
-0.70
0.69
2.10
3.30
4.12
4.47
4.38
3.92
3.17
2.28
1.39
0.72
0.41
0.52
0.96
1.53
2.00
2.20
2.09
1.75
1.28
0.79
0.37
0.00
-0.31
-0.57
-0.77
-0.90
-0.94
-0.93
-0.95
-1.11
-1.50
-2.09
-2.72
-3.12
-3.03
-2.29
-0.98
0.64
2.20
3.37
3.98
4.02
3.63
2.99
2.23
1.48
0.81
0.27
-0.07
-0.20
-0.15
0.04
0.31
0.58
0.80
0.90
0.82
0.53
0.06
-0.51
-1.06
-1.50
-1.78
-1.90
-1.92
-1.90
-1.89
-1.92
-1.99
-2.07
-2.08
-1.88
-1.33
-0.37
0.94
2.38
3.59
4.29
4.32
3.73
2.78
1.78
1.00
0.55
0.43
0.54
0.74
0.94
1.08
1.10
1.02
0.84
0.64
0.48
0.40
0.39
0.33
0.12
-0.30
-0.86
-1.42
-1.84
-2.05
-2.11
-2.16
-2.32
-2.62
-2.94
-3.07
-2.77
-1.95
-0.68
0.78
2.13
3.08
3.50
3.41
2.97
2.36
1.75
1.27
0.96
0.82
0.86
1.06
1.38
1.73
1.99
2.04
1.80
1.31
0.65
-0.03
-0.63
-1.12
-1.51
-1.83
-2.12
-2.35
-2.46
-2.42
-2.20
-1.87
-1.55
-1.35
-1.33
-1.41
-1.45
-1.24
-0.65
0.34
1.57
2.77
3.66
4.08
4.02
3.58
2.95
2.28
1.68
1.17
0.76
0.44
0.22
0.13
0.19
0.42
0.77
1.14
1.42
1.45
1.16
0.55
-0.25
-1.07
-1.74
-2.19
-2.44
-2.59
-2.73
-2.93
-3.17
-3.37
-3.42
-3.26
-2.83
-2.15
-1.26
-0.21
0.92
2.03
3.00
3.69
3.96
3.75
3.10
2.18
1.25
0.55
0.23
0.28
0.55
0.85
1.04
1.11
1.09
1.01
0.85
0.55
0.10
-0.44
-0.93
-1.25
-1.33
-1.24
-1.09
-1.02
-1.05
-1.19
-1.41
-1.72
-2.13
-2.61
-3.06
-3.32
-3.22
-2.66
-1.67
-0.36
1.09
2.48
3.60
4.30
4.45
4.03
3.13
1.94
0.73
-0.23
-0.76
-0.81
-0.47
0.07
0.59
0.95
1.06
0.94
0.68
0.37
0.09
-0.17
-0.45
-0.82
-1.28
-1.78
-2.21
-2.46
-2.46
-2.25
-1.94
-1.66
-1.51
-1.55
-1.71
-1.88
-1.95
-1.81
-1.39
-0.69
0.23
1.22
2.12
2.78
3.11
3.12
2.86
2.44
1.94
1.41
0.92
0.55
0.40
0.50
0.82
1.23
1.57
1.69
1.53
1.16
0.69
0.22
-0.17
-0.47
-0.67
-0.81
-0.91
-1.01
-1.15
-1.37
-1.68
-2.03
-2.34
-2.55
-2.62
-2.58
-2.51
-2.40
-2.24
-1.90
-1.26
-0.26
1.02
2.37
3.50
4.17
4.28
3.89
3.19
2.39
1.64
0.99
0.46
0.06
-0.15
-0.07
0.28
0.82
1.35
1.67
1.64
1.29
0.72
0.08
-0.48
-0.91
-1.19
-1.31
-1.28
-1.15
-0.98
-0.90
-0.99
-1.30
-1.75
-2.23
-2.60
-2.82
-2.87
-2.75
-2.45
-1.91
-1.09
-0.02
1.15
2.22
2.99
3.32
3.22
2.80
2.19
1.52
0.85
0.24
-0.26
-0.59
-0.70
-0.60
-0.34
-0.04
0.18
0.22
0.07
-0.22
-0.56
-0.88
-1.14
-1.30
-1.37
-1.29
-1.07
-0.73
-0.41
-0.24
-0.34
-0.72
-1.29
-1.86
-2.29
-2.49
-2.46
-2.20
-1.71
-0.98
-0.06
0.93
1.81
2.42
2.70
2.68
2.50
2.24
1.92
1.51
0.99
0.45
0.04
-0.14
-0.04
0.23
0.53
0.69
0.68
0.50
0.21
-0.17
-0.60
-1.06
-1.50
-1.80
-1.89
-1.75
-1.42
-1.04
-0.72
-0.55
-0.58
-0.78
-1.11
-1.53
-1.96
-2.30
-2.44
-2.27
-1.73
-0.83
0.31
1.47
2.45
3.11
3.40
3.39
3.15
2.76
2.22
1.55
0.82
0.14
-0.31
-0.43
-0.19
0.29
0.85
1.29
1.46
1.31
0.86
0.22
-0.44
-0.98
-1.28
-1.30
-1.13
-0.91
-0.79
-0.84
-1.04
-1.30
-1.51
-1.62
-1.70
-1.81
-2.00
-2.19
-2.23
-1.95
-1.25
-0.22
0.96
2.01
2.76
3.12
3.18
3.06
2.88
2.65
2.32
1.87
1.30
0.72
0.27
0.06
0.14
0.45
0.84
1.19
1.38
1.37
1.19
0.87
0.45
-0.03
-0.54
-1.02
-1.45
-1.77
-1.98
-2.11
-2.19
-2.29
-2.42
-2.59
-2.75
-2.84
-2.78
-2.53
-2.05
-1.32
-0.44
0.50
1.31
1.86
2.07
1.95
1.63
1.25
0.89
0.60
0.36
0.13
-0.09
-0.29
-0.43
-0.48
-0.45
-0.37
-0.31
-0.29
-0.34
-0.43
-0.55
-0.70
-0.88
-1.12
-1.42
-1.76
-2.09
-2.33
-2.43
-2.38
-2.23
-2.05
-1.94
-1.94
-2.09
-2.29
-2.43
-2.30
-1.77
-0.78
0.55
1.99
3.25
4.09
4.41
4.22
3.64
2.83
1.91
1.02
0.26
-0.30
-0.61
-0.67
-0.52
-0.20
0.24
0.75
1.27
1.72
1.98
1.99
1.72
1.19
0.52
-0.18
-0.79
-1.18
-1.30
-1.17
-0.90
-0.71
-0.78
-1.20
-1.83
-2.39
-2.51
-1.96
-0.77
0.80
2.34
3.47
3.99
3.92
3.42
2.69
1.86
1.02
0.21
-0.46
-0.90
-1.00
-0.75
-0.29
0.21
0.57
0.73
0.74
0.71
0.71
0.71
0.59
0.25
-0.30
-0.92
-1.43
-1.70
-1.70
-1.55
-1.39
-1.35
-1.48
-1.72
-2.01
-2.25
-2.33
-2.19
-1.74
-0.97
0.05
1.16
2.18
2.92
3.27
3.25
2.92
2.37
1.72
1.08
0.54
0.21
0.12
0.29
0.64
1.02
1.30
1.39
1.26
0.96
0.54
0.08
-0.40
-0.83
-1.14
-1.27
-1.19
-0.95
-0.70
-0.60
-0.77
-1.21
-1.81
-2.39
-2.80
-2.92
-2.72
-2.18
-1.31
-0.17
1.08
2.21
2.99
3.29
3.12
2.61
1.94
1.28
0.71
0.28
0.01
-0.03
0.18
0.63
1.18
1.65
1.87
1.72
1.23
0.51
-0.28
-0.97
-1.45
-1.69
-1.75
-1.71
-1.68
-1.75
-1.92
-2.16
-2.41
-2.59
-2.62
-2.44
-1.95
-1.13
-0.01
1.23
2.36
3.17
3.51
3.44
3.08
2.57
2.01
1.42
0.80
0.21
-0.21
-0.36
-0.18
0.22
0.64
0.86
0.74
0.34
-0.22
-0.77
-1.20
-1.49
-1.71
-1.91
-2.11
-2.29
-2.38
-2.36
-2.28
-2.21
-2.27
-2.47
-2.74
-2.88
-2.68
-2.01
-0.91
0.42
1.68
2.58
2.98
2.91
2.53
2.03
1.51
1.01
0.53
0.10
-0.18
-0.21
0.09
0.63
1.24
1.66
1.70
1.32
0.61
-0.21
-0.97
-1.54
-1.91
-2.12
-2.24
-2.30
-2.30
-2.23
-2.10
-1.94
-1.83
-1.77
-1.69
-1.46
-0.94
-0.08
1.00
2.06
2.84
3.18
3.08
2.68
2.17
1.68
1.26
0.92
0.66
0.46
0.37
0.40
0.54
0.78
1.07
1.35
1.50
1.41
0.99
0.26
-0.64
-1.50
-2.14
-2.45
-2.47
-2.29
-2.03
-1.78
-1.59
-1.48
-1.48
-1.52
-1.51
-1.27
-0.69
0.22
1.32
2.36
3.10
3.43
3.38
3.10
2.71
2.27
1.76
1.15
0.53
0.04
-0.14
0.05
0.52
1.04
1.38
1.35
0.98
0.38
-0.26
-0.83
-1.27
-1.61
-1.84
-1.95
-1.93
-1.82
-1.74
-1.79
-2.05
-2.48
-2.93
-3.19
-3.11
-2.62
-1.77
-0.72
0.35
1.30
2.03
2.49
2.64
2.46
1.98
1.31
0.59
-0.04
-0.46
-0.63
-0.59
-0.38
-0.08
0.26
0.56
0.74
0.71
0.43
-0.03
-0.58
-1.05
-1.35
-1.48
-1.51
-1.56
-1.71
-1.97
-2.31
-2.66
-2.88
-2.83
-2.38
-1.51
-0.33
0.97
2.13
2.98
3.44
3.57
3.46
3.20
2.81
2.32
1.80
1.33
1.01
0.83
0.72
0.57
0.32
0.04
-0.14
-0.11
0.14
0.46
0.70
0.72
0.56
0.32
0.15
0.09
0.09
0.02
-0.18
-0.48
-0.80
-1.04
-1.15
-1.16
-1.11
-1.03
-0.87
-0.57
-0.09
0.54
1.22
1.86
2.36
2.68
2.79
2.68
2.35
1.85
1.28
0.82
0.59
0.66
0.96
1.33
1.60
1.66
1.52
1.26
0.95
0.62
0.26
-0.16
-0.58
-0.92
-1.08
-1.05
-0.93
-0.88
-1.01
-1.32
-1.70
-1.99
-2.09
-1.95
-1.61
-1.11
-0.46
0.34
1.21
2.02
2.58
2.76
2.54
2.02
1.35
0.68
0.14
-0.22
-0.35
-0.26
-0.01
0.29
0.52
0.58
0.47
0.27
0.05
-0.13
-0.26
-0.40
-0.58
-0.81
-1.05
-1.28
-1.47
-1.65
-1.84
-2.10
-2.44
-2.85
-3.24
-3.46
-3.33
-2.72
-1.65
-0.28
1.08
2.14
2.75
2.91
2.75
2.43
2.04
1.61
1.16
0.75
0.47
0.40
0.53
0.75
0.95
1.02
0.93
0.73
0.46
0.11
-0.36
-0.99
-1.71
-2.40
-2.87
-2.99
-2.76
-2.31
-1.82
-1.51
-1.47
-1.71
-2.10
-2.49
-2.73
-2.69
-2.30
-1.54
-0.46
0.81
2.01
2.90
3.27
3.09
2.46
1.62
0.81
0.21
-0.11
-0.13
0.09
0.47
0.89
1.24
1.36
1.18
0.71
0.07
-0.56
-1.00
-1.17
-1.10
-0.87
-0.65
-0.54
-0.64
-0.94
-1.43
-2.01
-2.56
-2.98
-3.19
-3.15
-2.88
-2.44
-1.81
-1.02
-0.04
1.06
2.15
3.04
3.58
3.68
3.39
2.85
2.20
1.58
1.03
0.58
0.21
-0.06
-0.22
-0.25
-0.20
-0.12
-0.09
-0.17
-0.35
-0.64
-0.95
-1.24
-1.43
-1.47
-1.34
-1.06
-0.69
-0.34
-0.13
-0.11
-0.31
-0.65
-1.03
-1.36
-1.58
-1.65
-1.53
-1.15
-0.48
0.47
1.59
2.64
3.37
3.60
3.30
2.62
1.80
1.06
0.53
0.24
0.15
0.21
0.36
0.58
0.83
1.05
1.18
1.16
0.99
0.71
0.37
0.07
-0.15
-0.27
-0.28
-0.26
-0.27
-0.40
-0.66
-1.06
-1.53
-2.00
-2.41
-2.70
-2.81
-2.66
-2.21
-1.44
-0.43
0.66
1.63
2.32
2.69
2.74
2.54
2.16
1.62
0.95
0.24
-0.40
-0.80
-0.85
-0.53
0.05
0.72
1.25
1.51
1.44
1.08
0.53
-0.07
-0.62
-1.06
-1.38
-1.62
-1.81
-1.96
-2.06
-2.09
-2.05
-1.99
-1.99
-2.08
-2.24
-2.33
-2.16
-1.56
-0.49
0.91
2.38
3.64
4.44
4.65
4.30
3.49
2.43
1.35
0.47
-0.04
-0.12
0.17
0.68
1.23
1.67
1.93
1.99
1.89
1.64
1.25
0.74
0.16
-0.37
-0.75
-0.93
-0.97
-1.00
-1.15
-1.48
-1.92
-2.32
-2.50
-2.40
-2.05
-1.62
-1.21
-0.88
-0.52
-0.02
0.70
1.58
2.44
3.06
3.27
3.06
2.55
1.91
1.30
0.80
0.41
0.12
-0.06
-0.10
0.04
0.30
0.60
0.79
0.78
0.57
0.20
-0.21
-0.57
-0.84
-1.00
-1.04
-0.97
-0.82
-0.64
-0.52
-0.55
-0.73
-1.02
-1.32
-1.51
-1.50
-1.28
-0.87
-0.34
0.25
0.85
1.40
1.82
2.09
2.17
2.07
1.82
1.48
1.11
0.76
0.48
0.29
0.17
0.12
0.12
0.19
0.33
0.54
0.75
0.84
0.71
0.33
-0.24
-0.82
-1.25
-1.45
-1.46
-1.39
-1.38
-1.49
-1.71
-1.98
-2.23
-2.42
-2.49
-2.38
-2.01
-1.31
-0.28
0.97
2.23
3.25
3.79
3.77
3.23
2.36
1.41
0.61
0.10
-0.13
-0.17
-0.11
-0.04
0.03
0.14
0.26
0.33
0.26
-0.02
-0.47
-0.97
-1.34
-1.44
-1.29
-1.02
-0.84
-0.91
-1.26
-1.77
-2.29
-2.67
-2.86
-2.90
-2.81
-2.57
-2.11
-1.36
-0.35
0.78
1.81
2.51
2.77
2.58
2.06
1.35
0.58
-0.12
-0.65
-0.92
-0.88
-0.57
-0.09
0.40
0.79
1.02
1.09
1.04
0.89
0.61
0.18
-0.38
-1.00
-1.53
-1.85
-1.91
-1.79
-1.61
-1.53
-1.60
-1.77
-1.88
-1.76
-1.28
-0.45
0.60
1.67
2.54
3.03
3.10
2.80
2.25
1.62
1.03
0.58
0.30
0.20
0.27
0.46
0.71
0.93
1.03
0.92
0.60
0.12
-0.39
-0.80
-1.01
-1.02
-0.89
-0.72
-0.64
-0.69
-0.88
-1.15
-1.43
-1.63
-1.68
-1.54
-1.17
-0.59
0.16
1.00
1.80
2.41
2.72
2.68
2.31
1.71
1.03
0.41
-0.05
-0.29
-0.30
-0.10
0.27
0.74
1.22
1.59
1.73
1.55
1.02
0.21
-0.72
-1.58
-2.17
-2.39
-2.24
-1.87
-1.47
-1.25
-1.31
-1.64
-2.10
-2.46
-2.49
-2.04
-1.09
0.21
1.61
2.80
3.57
3.83
3.63
3.09
2.36
1.55
0.73
0.02
-0.46
-0.60
-0.36
0.14
0.68
1.06
1.14
0.93
0.54
0.11
-0.27
-0.57
-0.78
-0.90
-0.91
-0.82
-0.70
-0.65
-0.78
-1.09
-1.48
-1.75
-1.75
-1.39
-0.74
0.03
0.73
1.23
1.48
1.49
1.33
1.05
0.70
0.31
-0.06
-0.31
-0.39
-0.27
-0.02
0.25
0.42
0.39
0.14
-0.27
-0.78
-1.28
-1.72
-2.02
-2.16
-2.15
-2.03
-1.89
-1.80
-1.85
-2.06
-2.37
-2.67
-2.80
-2.63
-2.09
-1.18
-0.02
1.21
2.28
3.01
3.29
3.14
2.64
1.93
1.12
0.33
-0.33
-0.76
-0.90
-0.75
-0.32
0.24
0.76
1.05
0.98
0.52
-0.22
-1.05
-1.77
-2.23
-2.40
-2.33
-2.15
-1.96
-1.83
-1.78
-1.77
-1.77
-1.68
-1.45
-0.98
-0.27
0.61
1.52
2.27
2.74
2.83
2.58
2.08
1.44
0.80
0.29
0.02
-0.00
0.21
0.52
0.81
0.97
0.96
0.83
0.61
0.34
-0.02
-0.45
-0.95
-1.43
-1.79
-1.98
-2.01
-1.95
-1.91
-1.97
-2.15
-2.41
-2.67
-2.78
-2.60
-2.05
-1.11
0.11
1.39
2.50
3.26
3.59
3.60
3.42
3.17
2.86
2.48
1.99
1.42
0.92
0.60
0.53
0.67
0.89
1.02
0.98
0.80
0.55
0.30
0.03
-0.32
-0.84
-1.52
-2.24
-2.80
-3.02
-2.82
-2.27
-1.64
-1.20
-1.12
-1.37
-1.69
-1.78
-1.38
-0.51
0.62
1.68
2.41
2.73
2.71
2.51
2.24
1.93
1.53
1.01
0.44
-0.03
-0.27
-0.18
0.17
0.63
1.01
1.15
1.03
0.71
0.29
-0.16
-0.63
-1.12
-1.64
-2.11
-2.41
-2.48
-2.32
-2.06
-1.86
-1.82
-1.94
-2.06
-2.01
-1.64
-0.93
-0.00
0.97
1.81
2.40
2.71
2.80
2.73
2.56
2.29
1.91
1.45
0.99
0.63
0.50
0.62
0.94
1.31
1.58
1.61
1.41
1.01
0.49
-0.05
-0.53
-0.89
-1.07
-1.04
-0.84
-0.59
-0.44
-0.53
-0.93
-1.56
-2.27
-2.80
-2.94
-2.57
-1.70
-0.49
0.85
2.09
3.05
3.64
3.85
3.69
3.22
2.54
1.77
1.04
0.47
0.11
-0.02
0.04
0.23
0.50
0.78
0.97
0.97
0.73
0.24
-0.38
-0.99
-1.40
-1.53
-1.38
-1.10
-0.84
-0.77
-0.91
-1.23
-1.60
-1.95
-2.22
-2.39
-2.46
-2.37
-2.02
-1.34
-0.32
0.91
2.14
3.12
3.69
3.81
3.56
3.09
2.53
1.99
1.50
1.14
0.97
1.07
1.45
2.02
2.58
2.89
2.80
2.32
1.60
0.85
0.26
-0.15
-0.42
-0.63
-0.83
-1.01
-1.12
-1.17
-1.22
-1.35
-1.60
-1.97
-2.34
-2.60
-2.60
-2.28
-1.60
-0.62
0.56
1.80
2.90
3.69
4.04
3.88
3.27
2.35
1.26
0.20
-0.72
-1.38
-1.74
-1.75
-1.46
-0.96
-0.43
-0.08
-0.08
-0.47
-1.15
-1.90
-2.49
-2.75
-2.69
-2.41
-2.07
-1.80
-1.66
-1.67
-1.83
-2.12
-2.48
-2.79
-2.88
-2.57
-1.78
-0.57
0.85
2.23
3.29
3.90
4.02
3.72
3.14
2.40
1.59
0.82
0.20
-0.19
-0.25
-0.03
0.40
0.86
1.21
1.34
1.22
0.89
0.37
-0.26
-0.93
-1.50
-1.84
-1.87
-1.62
-1.26
-1.00
-1.03
-1.38
-1.93
-2.44
-2.71
-2.62
-2.16
-1.41
-0.48
0.50
1.40
2.13
2.63
2.87
2.84
2.59
2.14
1.55
0.92
0.37
0.01
-0.12
-0.05
0.13
0.31
0.43
0.45
0.39
0.26
0.06
-0.20
-0.48
-0.72
-0.88
-0.97
-1.05
-1.21
-1.51
-1.95
-2.43
-2.81
-3.01
-2.96
-2.68
-2.18
-1.48
-0.56
0.52
1.65
2.63
3.27
3.44
3.16
2.59
1.94
1.39
1.05
0.89
0.83
0.81
0.77
0.75
0.79
0.90
1.08
1.24
1.30
1.19
0.89
0.45
-0.08
-0.58
-0.99
-1.26
-1.39
-1.42
-1.41
-1.41
-1.46
-1.56
-1.64
-1.59
-1.30
-0.71
0.16
1.19
2.19
3.01
3.53
3.70
3.52
3.04
2.31
1.42
0.48
-0.37
-0.99
-1.24
-1.09
-0.59
0.07
0.67
0.97
0.85
0.33
-0.46
-1.27
-1.87
-2.15
-2.09
-1.84
-1.57
-1.48
-1.64
-2.07
-2.64
-3.16
-3.44
-3.33
-2.77
-1.82
-0.63
0.58
1.61
2.33
2.65
2.59
2.24
1.74
1.25
0.89
0.73
0.70
0.72
0.68
0.59
0.51
0.54
0.71
0.94
1.04
0.85
0.33
-0.39
-1.06
-1.50
-1.64
-1.60
-1.56
-1.65
-1.87
-2.14
-2.34
-2.38
-2.31
-2.20
-2.13
-2.09
-1.95
-1.56
-0.78
0.36
1.74
3.07
4.08
4.54
4.42
3.80
2.92
1.99
1.19
0.58
0.15
-0.12
-0.23
-0.16
0.10
0.46
0.79
0.91
0.66
0.03
-0.84
-1.71
-2.32
-2.52
-2.36
-2.00
-1.62
-1.36
-1.27
-1.29
-1.38
-1.52
-1.68
-1.80
-1.78
-1.49
-0.84
0.11
1.19
2.18
2.89
3.23
3.21
2.88
2.32
1.63
0.91
0.29
-0.11
-0.19
0.03
0.43
0.85
1.16
1.28
1.21
1.04
0.83
0.66
0.53
0.44
0.36
0.28
0.19
0.08
-0.04
-0.17
-0.36
-0.62
-1.00
-1.49
-2.04
-2.53
-2.77
-2.65
-2.12
-1.24
-0.14
0.97
1.97
2.75
3.26
3.43
3.25
2.69
1.85
0.89
0.03
-0.58
-0.84
-0.78
-0.49
-0.10
0.30
0.62
0.77
0.70
0.43
0.04
-0.35
-0.62
-0.72
-0.72
-0.73
-0.86
-1.13
-1.47
-1.77
-1.97
-2.07
-2.13
-2.22
-2.38
-2.55
-2.66
-2.62
-2.36
-1.89
-1.21
-0.37
0.59
1.57
2.42
2.98
3.12
2.79
2.09
1.20
0.37
-0.19
-0.40
-0.32
-0.08
0.14
0.26
0.26
0.19
0.10
0.02
-0.05
-0.13
-0.21
-0.27
-0.29
-0.26
-0.22
-0.26
-0.42
-0.75
-1.19
-1.67
-2.09
-2.35
-2.43
-2.34
-2.17
-1.96
-1.75
-1.48
-1.08
-0.48
0.32
1.20
2.00
2.58
2.85
2.82
2.59
2.27
1.95
1.69
1.47
1.30
1.17
1.12
1.16
1.28
1.40
1.45
1.34
1.02
0.54
-0.01
-0.52
-0.90
-1.11
-1.18
-1.19
-1.19
-1.25
-1.38
-1.56
-1.73
-1.85
-1.89
-1.89
-1.87
-1.90
-1.98
-2.01
-1.89
-1.50
-0.78
0.17
1.21
2.14
2.80
3.11
3.09
2.80
2.30
1.65
0.96
0.32
-0.14
-0.36
-0.32
-0.09
0.20
0.46
0.63
0.72
0.77
0.82
0.87
0.92
0.91
0.82
0.66
0.44
0.21
-0.00
-0.18
-0.35
-0.51
-0.68
-0.82
-0.93
-1.02
-1.13
-1.31
-1.52
-1.63
-1.46
-0.86
0.13
1.28
2.26
2.79
2.79
2.35
1.72
1.11
0.64
0.32
0.08
-0.12
-0.29
-0.42
-0.51
-0.58
-0.69
-0.83
-0.99
-1.10
-1.13
-1.04
-0.88
-0.72
-0.65
-0.70
-0.90
-1.16
-1.43
-1.64
-1.74
-1.76
-1.76
-1.83
-2.04
-2.35
-2.61
-2.63
-2.23
-1.37
-0.16
1.16
2.34
3.21
3.71
3.87
3.74
3.33
2.65
1.75
0.77
-0.07
-0.58
-0.67
-0.39
0.07
0.50
0.75
0.77
0.60
0.33
0.03
-0.26
-0.52
-0.72
-0.82
-0.84
-0.82
-0.86
-1.01
-1.30
-1.68
-2.05
-2.35
-2.51
-2.52
-2.34
-1.91
-1.18
-0.17
0.98
2.06
2.82
3.11
2.95
2.48
1.91
1.42
1.06
0.82
0.62
0.42
0.20
0.04
0.01
0.13
0.39
0.72
0.99
1.12
1.06
0.81
0.43
0.00
-0.38
-0.65
-0.79
-0.83
-0.86
-0.94
-1.12
-1.38
-1.63
-1.81
-1.90
-1.93
-1.96
-1.99
-1.97
-1.78
-1.30
-0.53
0.44
1.42
2.20
2.65
2.69
2.37
1.79
1.07
0.37
-0.19
-0.48
-0.46
-0.13
0.42
1.06
1.60
1.90
1.87
1.51
0.94
0.30
-0.27
-0.69
-0.96
-1.07
-1.06
-0.92
-0.68
-0.38
-0.11
0.02
-0.10
-0.50
-1.08
-1.67
-1.99
-1.84
-1.12
0.02
1.29
2.32
2.86
2.84
2.40
1.79
1.19
0.70
0.32
0.02
-0.21
-0.32
-0.29
-0.15
0.04
0.16
0.14
-0.07
-0.43
-0.90
-1.39
-1.82
-2.11
-2.18
-2.04
-1.79
-1.56
-1.48
-1.57
-1.75
-1.88
-1.84
-1.66
-1.47
-1.37
-1.41
-1.45
-1.27
-0.71
0.24
1.34
2.28
2.80
2.81
2.43
1.84
1.22
0.65
0.14
-0.31
-0.67
-0.86
-0.81
-0.57
-0.26
-0.03
-0.00
-0.22
-0.59
-0.99
-1.33
-1.55
-1.69
-1.83
-2.03
-2.26
-2.46
-2.53
-2.42
-2.19
-1.98
-1.92
-2.07
-2.32
-2.47
-2.31
-1.72
-0.73
0.50
1.75
2.82
3.54
3.82
3.63
3.05
2.20
1.28
0.48
-0.08
-0.35
-0.35
-0.15
0.15
0.47
0.75
0.92
0.91
0.71
0.36
-0.07
-0.51
-0.86
-1.09
-1.15
-1.04
-0.79
-0.45
-0.11
0.10
0.11
-0.16
-0.64
-1.21
-1.67
-1.81
-1.49
-0.70
0.46
1.73
2.86
3.57
3.74
3.34
2.50
1.44
0.41
-0.34
-0.72
-0.73
-0.50
-0.17
0.17
0.49
0.80
1.10
1.32
1.37
1.22
0.93
0.62
0.41
0.28
0.14
-0.14
-0.62
-1.23
-1.79
-2.14
-2.22
-2.09
-1.85
-1.59
-1.32
-0.93
-0.36
0.43
1.37
2.31
3.04
3.39
3.30
2.80
2.06
1.28
0.66
0.28
0.13
0.14
0.23
0.37
0.52
0.69
0.87
0.99
1.01
0.84
0.48
-0.01
-0.51
-0.90
-1.09
-1.06
-0.92
-0.83
-0.91
-1.26
-1.84
-2.54
-3.22
-3.70
-3.84
-3.52
-2.70
-1.43
0.11
1.65
2.89
3.62
3.80
3.57
3.11
2.57
1.96
1.28
0.52
-0.19
-0.68
-0.78
-0.49
0.06
0.62
1.01
1.12
0.98
0.69
0.35
-0.01
-0.34
-0.63
-0.83
-0.92
-0.93
-0.91
-0.94
-1.08
-1.33
-1.65
-1.98
-2.20
-2.22
-1.95
-1.33
-0.37
0.80
1.96
2.88
3.36
3.33
2.86
2.15
1.42
0.86
0.53
0.41
0.42
0.53
0.68
0.90
1.15
1.37
1.48
1.41
1.14
0.72
0.22
-0.27
-0.70
-1.08
-1.37
-1.55
-1.59
-1.45
-1.20
-0.94
-0.79
-0.80
-0.99
-1.25
-1.45
-1.43
-1.10
-0.45
0.43
1.40
2.29
2.95
3.28
3.25
2.89
2.29
1.54
0.75
0.04
-0.47
-0.70
-0.59
-0.21
0.28
0.72
0.94
0.89
0.59
0.15
-0.32
-0.73
-1.01
-1.16
-1.17
-1.07
-0.93
-0.81
-0.81
-0.97
-1.31
-1.79
-2.32
-2.76
-3.00
-2.94
-2.55
-1.84
-0.87
0.28
1.48
2.55
3.34
3.70
3.59
3.08
2.31
1.45
0.68
0.09
-0.28
-0.42
-0.40
-0.26
-0.09
0.06
0.14
0.12
-0.02
-0.28
-0.61
-0.98
-1.30
-1.47
-1.46
-1.30
-1.10
-0.99
-1.06
-1.29
-1.56
-1.76
-1.83
-1.76
-1.58
-1.31
-0.92
-0.36
0.36
1.17
1.91
2.44
2.67
2.62
2.41
2.14
1.87
1.62
1.33
0.96
0.53
0.09
-0.25
-0.38
-0.30
-0.06
0.23
0.42
0.43
0.24
-0.11
-0.54
-0.95
-1.30
-1.55
-1.68
-1.72
-1.66
-1.53
-1.37
-1.24
-1.24
-1.41
-1.73
-2.07
-2.29
-2.19
-1.66
-0.72
0.50
1.77
2.87
3.60
3.88
3.72
3.20
2.44
1.58
0.77
0.12
-0.28
-0.43
-0.37
-0.20
-0.01
0.12
0.14
0.10
0.05
0.02
0.05
0.11
0.13
0.06
-0.13
-0.41
-0.72
-0.95
-1.01
-0.87
-0.55
-0.18
0.08
0.09
-0.21
-0.76
-1.36
-1.80
-1.87
-1.50
-0.75
0.25
1.31
2.26
2.99
3.39
3.39
2.97
2.18
1.19
0.25
-0.42
-0.69
-0.59
-0.23
0.22
0.61
0.87
0.96
0.89
0.65
0.28
-0.12
-0.44
-0.59
-0.56
-0.45
-0.38
-0.47
-0.73
-1.09
-1.43
-1.67
-1.77
-1.77
-1.73
-1.65
-1.50
-1.21
-0.73
-0.05
0.74
1.52
2.14
2.51
2.57
2.33
1.84
1.15
0.38
-0.38
-1.00
-1.38
-1.47
-1.26
-0.86
-0.37
0.07
0.36
0.43
0.26
-0.11
-0.63
-1.18
-1.65
-1.93
-1.99
-1.88
-1.74
-1.69
-1.78
-1.95
-2.10
-2.15
-2.09
-1.99
-1.93
-1.87
-1.67
-1.16
-0.24
1.00
2.28
3.26
3.70
3.56
3.01
2.33
1.78
1.45
1.28
1.15
0.95
0.67
0.41
0.26
0.26
0.34
0.43
0.42
0.31
0.12
-0.09
-0.34
-0.61
-0.93
-1.24
-1.48
-1.59
-1.54
-1.38
-1.21
-1.11
-1.16
-1.38
-1.74
-2.11
-2.33
-2.22
-1.64
-0.60
0.72
2.04
3.04
3.53
3.46
2.94
2.19
1.40
0.71
0.18
-0.18
-0.36
-0.35
-0.14
0.24
0.69
1.07
1.27
1.22
0.94
0.52
0.08
-0.30
-0.54
-0.65
-0.65
-0.64
-0.67
-0.82
-1.09
-1.42
-1.73
-1.91
-1.92
-1.83
-1.73
-1.67
-1.60
-1.39
-0.91
-0.12
0.87
1.85
2.62
3.05
3.12
2.89
2.47
1.89
1.21
0.49
-0.17
-0.61
-0.76
-0.61
-0.25
0.17
0.53
0.77
0.90
0.95
0.92
0.81
0.62
0.36
0.10
-0.13
-0.27
-0.33
-0.33
-0.30
-0.27
-0.24
-0.26
-0.33
-0.49
-0.71
-0.96
-1.14
-1.17
-0.99
-0.60
-0.05
0.58
1.18
1.63
1.88
1.89
1.70
1.35
0.90
0.41
-0.06
-0.47
-0.78
-0.93
-0.90
-0.68
-0.36
-0.04
0.12
0.03
-0.29
-0.74
-1.15
-1.39
-1.45
-1.39
-1.34
-1.38
-1.51
-1.69
-1.87
-2.05
-2.28
-2.53
-2.74
-2.75
-2.37
-1.53
-0.27
1.20
2.60
3.67
4.23
4.24
3.78
3.03
2.16
1.33
0.66
0.26
0.18
0.43
0.98
1.69
2.39
2.88
2.99
2.63
1.84
0.77
-0.41
-1.53
-2.50
-3.29
-3.94
-4.44
-4.77
-4.89
-4.72
-4.28
-3.61
-2.87
-2.21
-1.70
-1.31
-0.92
-0.39
0.38
1.33
2.32
3.16
3.71
3.93
3.89
3.67
3.29
2.75
2.04
1.19
0.32
-0.40
-0.83
-0.90
-0.64
-0.19
0.32
0.77
1.06
1.15
1.00
0.61
0.02
-0.62
-1.18
-1.55
-1.72
-1.75
-1.76
-1.87
-2.08
-2.37
-2.65
-2.84
-2.89
-2.79
-2.52
-2.06
-1.41
-0.60
0.29
1.14
1.84
2.29
2.46
2.37
2.07
1.66
1.21
0.79
0.44
0.19
0.08
0.13
0.33
0.64
0.99
1.29
1.46
1.44
1.26
0.93
0.50
0.01
-0.51
-1.03
-1.49
-1.84
-2.06
-2.18
-2.24
-2.31
-2.45
-2.64
-2.84
-2.91
-2.74
-2.20
-1.30
-0.11
1.16
2.29
3.07
3.38
3.22
2.69
1.95
1.19
0.54
0.10
-0.08
-0.03
0.17
0.45
0.73
0.95
1.09
1.11
0.96
0.63
0.13
-0.48
-1.10
-1.61
-1.98
-2.26
-2.53
-2.93
-3.50
-4.16
-4.78
-5.18
-5.28
-5.08
-4.63
-3.99
-3.17
-2.17
-0.98
0.30
1.50
2.43
2.93
2.97
2.64
2.10
1.51
0.99
0.63
0.42
0.36
0.43
0.61
0.86
1.14
1.36
1.42
1.24
0.79
0.16
-0.53
-1.11
-1.50
-1.71
-1.81
-1.87
-1.92
-1.97
-2.01
-2.07
-2.21
-2.48
-2.84
-3.16
-3.24
-2.93
-2.18
-1.08
0.20
1.49
2.68
3.68
4.41
4.76
4.63
4.02
3.06
2.00
1.15
0.69
0.67
0.97
1.38
1.74
1.95
1.99
1.88
1.66
1.34
0.95
0.55
0.21
-0.02
-0.17
-0.28
-0.41
-0.59
-0.77
-0.90
-1.00
-1.16
-1.50
-2.09
-2.83
-3.47
-3.72
-3.31
-2.17
-0.48
1.43
3.17
4.39
4.91
4.76
4.12
3.26
2.44
1.83
1.49
1.35
1.32
1.35
1.40
1.49
1.62
1.74
1.76
1.59
1.21
0.68
0.12
-0.34
-0.61
-0.72
-0.72
-0.74
-0.85
-1.06
-1.32
-1.57
-1.73
-1.79
-1.82
-1.89
-2.02
-2.15
-2.14
-1.80
-1.00
0.22
1.72
3.22
4.40
5.07
5.16
4.75
4.03
3.18
2.34
1.62
1.06
0.71
0.58
0.67
0.92
1.25
1.55
1.75
1.80
1.72
1.54
1.30
1.02
0.71
0.37
0.02
-0.35
-0.72
-1.08
-1.41
-1.70
-1.94
-2.18
-2.42
-2.65
-2.81
-2.77
-2.44
-1.78
-0.85
0.21
1.26
2.18
2.93
3.44
3.65
3.48
2.89
1.94
0.80
-0.27
-1.06
-1.44
-1.43
-1.12
-0.64
-0.08
0.50
1.00
1.35
1.45
1.25
0.82
0.25
-0.31
-0.80
-1.22
-1.59
-1.91
-2.15
-2.21
-2.07
-1.75
-1.38
-1.13
-1.10
-1.22
-1.32
-1.15
-0.54
0.51
1.83
3.11
4.05
4.44
4.23
3.50
2.46
1.35
0.39
-0.31
-0.70
-0.83
-0.79
-0.64
-0.39
-0.04
0.40
0.85
1.18
1.23
0.91
0.25
-0.62
-1.51
-2.22
-2.64
-2.72
-2.51
-2.09
-1.60
-1.17
-0.90
-0.87
-1.10
-1.49
-1.94
-2.23
-2.17
-1.62
-0.55
0.90
2.46
3.79
4.57
4.65
4.07
3.04
1.91
0.97
0.41
0.26
0.43
0.78
1.19
1.55
1.83
1.96
1.93
1.70
1.31
0.86
0.43
0.09
-0.19
-0.45
-0.79
-1.20
-1.64
-2.00
-2.21
-2.26
-2.22
-2.19
-2.26
-2.46
-2.71
-2.86
-2.74
-2.21
-1.22
0.12
1.59
2.91
3.85
4.25
4.11
3.55
2.72
1.77
0.84
0.06
-0.50
-0.74
-0.62
-0.19
0.46
1.14
1.67
1.85
1.61
1.00
0.21
-0.54
-1.07
-1.32
-1.33
-1.25
-1.20
-1.24
-1.35
-1.48
-1.59
-1.70
-1.85
-2.03
-2.19
-2.19
-1.88
-1.20
-0.20
0.91
1.89
2.51
2.64
2.32
1.71
1.02
0.43
-0.02
-0.35
-0.63
-0.85
-0.95
-0.83
-0.43
0.18
0.81
1.25
1.31
0.99
0.38
-0.32
-0.92
-1.36
-1.64
-1.85
-2.02
-2.18
-2.30
-2.34
-2.32
-2.30
-2.37
-2.55
-2.77
-2.86
-2.62
-1.90
-0.74
0.68
2.08
3.18
3.85
4.08
3.96
3.58
3.02
2.30
1.50
0.70
0.04
-0.34
-0.41
-0.18
0.21
0.59
0.81
0.79
0.57
0.27
0.04
-0.05
-0.05
-0.11
-0.35
-0.82
-1.38
-1.81
-1.93
-1.73
-1.39
-1.15
-1.22
-1.58
-2.04
-2.26
-2.00
-1.15
0.15
1.59
2.80
3.51
3.60
3.16
2.39
1.52
0.72
0.08
-0.39
-0.68
-0.78
-0.67
-0.39
-0.02
0.30
0.45
0.38
0.14
-0.18
-0.48
-0.70
-0.80
-0.80
-0.71
-0.56
-0.43
-0.36
-0.40
-0.54
-0.74
-0.95
-1.20
-1.52
-1.94
-2.40
-2.69
-2.57
-1.86
-0.58
1.01
2.51
3.55
3.93
3.69
3.05
2.26
1.54
0.98
0.60
0.39
0.33
0.41
0.58
0.78
0.96
1.04
0.99
0.81
0.50
0.08
-0.40
-0.90
-1.31
-1.58
-1.66
-1.54
-1.30
-1.05
-0.90
-0.92
-1.12
-1.42
-1.72
-1.89
-1.82
-1.47
-0.89
-0.15
0.67
1.43
2.06
2.47
2.62
2.51
2.16
1.66
1.09
0.54
0.08
-0.24
-0.38
-0.31
-0.05
0.35
0.76
1.03
1.03
0.69
0.07
-0.69
-1.40
-1.92
-2.18
-2.23
-2.17
-2.10
-2.04
-1.98
-1.92
-1.89
-1.92
-2.04
-2.21
-2.31
-2.19
-1.71
-0.87
0.22
1.37
2.37
3.05
3.33
3.19
2.66
1.84
0.87
-0.07
-0.79
-1.18
-1.18
-0.87
-0.40
0.04
0.32
0.38
0.25
-0.01
-0.28
-0.50
-0.65
-0.76
-0.88
-1.05
-1.29
-1.54
-1.74
-1.87
-1.94
-2.00
-2.14
-2.35
-2.57
-2.70
-2.58
-2.13
-1.35
-0.34
0.75
1.74
2.47
2.85
2.89
2.65
2.25
1.78
1.28
0.75
0.19
-0.35
-0.75
-0.86
-0.61
-0.07
0.59
1.10
1.29
1.08
0.58
-0.05
-0.65
-1.12
-1.43
-1.58
-1.57
-1.40
-1.13
-0.85
-0.71
-0.83
-1.24
-1.83
-2.37
-2.62
-2.41
-1.74
-0.75
0.36
1.39
2.22
2.79
3.12
3.18
2.97
2.50
1.85
1.14
0.54
0.17
0.08
0.20
0.38
0.53
0.60
0.63
0.71
0.86
1.07
1.22
1.20
0.96
0.54
0.11
-0.20
-0.31
-0.24
-0.13
-0.12
-0.26
-0.50
-0.73
-0.89
-0.96
-0.97
-0.94
-0.85
-0.60
-0.13
0.59
1.47
2.36
3.05
3.39
3.28
2.77
1.95
1.01
0.12
-0.59
-1.06
-1.29
-1.34
-1.26
-1.10
-0.90
-0.70
-0.55
-0.47
-0.46
-0.53
-0.63
-0.75
-0.85
-0.94
-1.00
-1.07
-1.19
-1.41
-1.72
-2.05
-2.30
-2.36
-2.20
-1.85
-1.41
-0.94
-0.45
0.09
0.73
1.47
2.25
2.95
3.42
3.52
3.20
2.49
1.52
0.51
-0.32
-0.82
-0.95
-0.76
-0.40
-0.01
0.31
0.51
0.59
0.54
0.39
0.14
-0.19
-0.55
-0.91
-1.21
-1.42
-1.53
-1.53
-1.47
-1.38
-1.34
-1.37
-1.51
-1.75
-2.02
-2.23
-2.26
-1.98
-1.33
-0.33
0.88
2.10
3.11
3.71
3.83
3.49
2.84
2.05
1.30
0.72
0.35
0.21
0.26
0.46
0.72
0.97
1.12
1.13
0.96
0.67
0.30
-0.08
-0.44
-0.78
-1.12
-1.44
-1.72
-1.90
-1.93
-1.81
-1.57
-1.31
-1.13
-1.10
-1.24
-1.49
-1.71
-1.73
-1.40
-0.67
0.41
1.66
2.83
3.70
4.07
3.91
3.26
2.32
1.30
0.41
-0.24
-0.59
-0.63
-0.39
0.12
0.79
1.47
1.96
2.06
1.69
0.89
-0.13
-1.14
-1.93
-2.39
-2.53
-2.41
-2.13
-1.74
-1.33
-0.95
-0.66
-0.48
-0.46
-0.59
-0.86
-1.16
-1.37
-1.34
-0.96
-0.23
0.72
1.68
2.40
2.72
2.61
2.15
1.48
0.73
0.02
-0.58
-1.02
-1.26
-1.29
-1.14
-0.89
-0.61
-0.36
-0.20
-0.16
-0.29
-0.59
-1.07
-1.61
-2.04
-2.19
-1.97
-1.47
-0.94
-0.65
-0.78
-1.33
-2.10
-2.86
-3.35
-3.46
-3.14
-2.41
-1.36
-0.09
1.21
2.35
3.16
3.54
3.50
3.13
2.56
1.93
1.30
0.72
0.22
-0.16
-0.37
-0.33
-0.03
0.47
1.04
1.44
1.46
1.05
0.30
-0.56
-1.24
-1.59
-1.58
-1.36
-1.09
-0.91
-0.83
-0.81
-0.81
-0.82
-0.89
-1.05
-1.27
-1.46
-1.45
-1.10
-0.37
0.63
1.69
2.57
3.12
3.28
3.11
2.74
2.25
1.73
1.23
0.80
0.52
0.43
0.52
0.69
0.83
0.86
0.76
0.59
0.41
0.26
0.09
-0.18
-0.60
-1.14
-1.68
-2.07
-2.19
-2.05
-1.72
-1.33
-1.01
-0.84
-0.87
-1.08
-1.42
-1.73
-1.85
-1.63
-1.00
-0.02
1.12
2.17
2.93
3.28
3.22
2.83
2.20
1.45
0.69
0.07
-0.26
-0.23
0.18
0.84
1.53
2.02
2.16
1.88
1.29
0.53
-0.25
-0.94
-1.51
-1.97
-2.33
-2.56
-2.61
-2.49
-2.26
-2.04
-1.93
-1.97
-2.03
-1.92
-1.47
-0.65
0.45
1.58
2.52
3.14
3.40
3.36
3.04
2.47
1.64
0.64
-0.40
-1.26
-1.73
-1.73
-1.29
-0.57
0.19
0.79
1.08
1.01
0.65
0.11
-0.41
-0.79
-0.96
-0.97
-0.93
-0.97
-1.15
-1.45
-1.80
-2.09
-2.24
-2.18
-1.88
-1.32
-0.52
0.47
1.51
2.40
2.97
3.12
2.85
2.26
1.50
0.71
0.05
-0.43
-0.70
-0.75
-0.65
-0.46
-0.27
-0.18
-0.22
-0.42
-0.74
-1.08
-1.34
-1.41
-1.24
-0.85
-0.37
0.04
0.23
0.11
-0.26
-0.78
-1.28
-1.63
-1.69
-1.41
-0.75
0.27
1.50
2.74
3.74
4.29
4.32
3.88
3.16
2.37
1.66
1.07
0.58
0.14
-0.24
-0.47
-0.45
-0.13
0.41
0.94
1.23
1.07
0.48
-0.37
-1.18
-1.71
-1.85
-1.69
-1.40
-1.20
-1.18
-1.38
-1.73
-2.15
-2.56
-2.88
-3.02
-2.89
-2.40
-1.51
-0.32
1.00
2.18
3.00
3.31
3.09
2.49
1.67
0.80
0.03
-0.58
-0.96
-1.02
-0.73
-0.10
0.73
1.50
1.98
2.01
1.62
0.98
0.30
-0.30
-0.79
-1.21
-1.58
-1.85
-1.93
-1.77
-1.48
-1.21
-1.14
-1.28
-1.47
-1.44
-0.96
-0.02
1.18
2.34
3.14
3.43
3.23
2.69
1.97
1.23
0.54
-0.06
-0.55
-0.90
-1.09
-1.07
-0.81
-0.37
0.14
0.54
0.65
0.41
-0.12
-0.73
-1.16
-1.24
-0.98
-0.56
-0.25
-0.20
-0.45
-0.83
-1.13
-1.18
-0.92
-0.44
0.12
0.66
1.13
1.50
1.73
1.76
1.49
0.89
0.02
-0.89
-1.59
-1.88
-1.68
-1.13
-0.45
0.15
0.50
0.58
0.45
0.20
-0.09
-0.37
-0.64
-0.89
-1.14
-1.39
-1.63
-1.86
-2.07
-2.23
-2.31
-2.24
-1.93
-1.34
-0.48
0.52
1.48
2.18
2.46
2.33
1.90
1.42
1.06
0.89
0.84
0.73
0.47
0.07
-0.30
-0.44
-0.22
0.30
0.91
1.33
1.39
1.08
0.54
-0.07
-0.66
-1.22
-1.79
-2.32
-2.71
-2.82
-2.58
-2.04
-1.35
-0.68
-0.08
0.45
1.00
1.61
2.23
2.72
2.94
2.82
2.36
1.67
0.91
0.21
-0.30
-0.56
-0.56
-0.35
0.00
0.41
0.79
1.02
1.06
0.85
0.41
-0.19
-0.82
-1.36
-1.75
-2.00
-2.15
-2.29
-2.44
-2.60
-2.72
-2.73
-2.53
-2.05
-1.28
-0.27
0.86
1.90
2.69
3.10
3.14
2.87
2.40
1.85
1.29
0.79
0.40
0.18
0.17
0.33
0.61
0.91
1.16
1.27
1.25
1.09
0.81
0.46
0.07
-0.33
-0.66
-0.87
-0.92
-0.82
-0.64
-0.49
-0.48
-0.64
-0.89
-1.08
-1.00
-0.55
0.22
1.16
2.03
2.63
2.86
2.74
2.34
1.78
1.16
0.58
0.10
-0.22
-0.39
-0.40
-0.29
-0.15
-0.04
-0.03
-0.15
-0.40
-0.74
-1.10
-1.42
-1.65
-1.81
-1.90
-2.01
-2.15
-2.34
-2.55
-2.72
-2.77
-2.66
-2.35
-1.84
-1.16
-0.31
0.63
1.57
2.35
2.82
2.86
2.47
1.80
1.10
0.58
0.36
0.40
0.55
0.64
0.58
0.40
0.20
0.07
0.04
0.08
0.09
0.01
-0.19
-0.51
-0.93
-1.41
-1.89
-2.30
-2.57
-2.66
-2.57
-2.37
-2.13
-1.92
-1.76
-1.64
-1.52
-1.31
-0.93
-0.31
0.57
1.62
2.64
3.37
3.60
3.27
2.52
1.64
0.96
0.68
0.85
1.34
1.97
2.54
2.90
2.97
2.71
2.12
1.32
0.43
-0.35
-0.91
-1.18
-1.22
-1.11
-0.96
-0.81
-0.68
-0.59
-0.57
-0.68
-0.97
-1.44
-2.01
-2.52
-2.78
-2.64
-2.04
-1.09
0.03
1.10
1.95
2.51
2.76
2.73
2.44
1.93
1.26
0.54
-0.10
-0.53
-0.69
-0.59
-0.32
-0.02
0.19
0.23
0.09
-0.16
-0.40
-0.56
-0.58
-0.51
-0.41
-0.37
-0.41
-0.53
-0.67
-0.79
-0.89
-0.96
-1.03
-1.11
-1.19
-1.31
-1.47
-1.71
-1.96
-2.13
-2.07
-1.67
-0.91
0.11
1.20
2.13
2.73
2.95
2.82
2.45
1.96
1.42
0.88
0.37
-0.04
-0.30
-0.33
-0.13
0.23
0.64
0.96
1.13
1.14
1.03
0.86
0.66
0.42
0.13
-0.23
-0.65
-1.12
-1.59
-2.00
-2.28
-2.36
-2.22
-1.91
-1.54
-1.28
-1.28
-1.58
-2.09
-2.61
-2.87
-2.69
-1.98
-0.84
0.49
1.71
2.56
2.85
2.58
1.90
1.15
0.78
1.20
2.71
5.26
8.54
11.94
14.83
16.76
17.57
17.39
16.53
15.27
13.82
12.25
10.63
9.02
7.57
6.39
5.52
4.91
4.40
3.86
3.20
2.41
1.57
0.73
-0.11
-1.04
-2.17
-3.56
-5.13
-6.63
-7.71
-8.02
-7.43
-6.08
-4.34
-2.70
-1.57
-1.14
-1.34
-1.94
-2.66
-3.25
-3.62
-3.75
-3.67
-3.42
-3.01
-2.47
-1.87
-1.34
-1.05
-1.15
-1.71
-2.69
-3.97
-5.40
-6.86
-8.29
-9.60
-10.70
-11.41
-11.63
-11.34
-10.72
-10.00
-9.42
-9.05
-8.81
-8.55
-8.19
-7.76
-7.35
-7.03
-6.78
-6.45
-5.92
-5.20
-4.39
-3.72
-3.35
-3.37
-3.76
-4.41
-5.18
-5.89
-6.37
-6.44
-5.99
-5.01
-3.67
-2.17
-0.75
0.46
1.43
2.22
2.92
3.54
4.07
4.46
4.69
4.81
4.87
4.89
4.85
4.68
4.32
3.81
3.27
2.80
2.51
2.35
2.21
1.96
1.54
0.98
0.42
-0.00
-0.16
-0.01
0.46
1.20
2.14
3.12
3.98
4.51
4.58
4.19
3.46
2.60
1.83
1.27
0.95
0.82
0.84
0.99
1.26
1.62
1.97
2.19
2.16
1.84
1.25
0.49
-0.32
-1.13
-1.92
-2.68
-3.40
-4.03
-4.46
-4.64
-4.54
-4.22
-3.82
-3.52
-3.41
-3.48
-3.59
-3.50
-2.98
-1.91
-0.36
1.44
3.16
4.47
5.18
5.28
4.88
4.16
3.29
2.37
1.46
0.59
-0.16
-0.73
-1.10
-1.30
-1.43
-1.53
-1.58
-1.52
-1.25
-0.81
-0.34
-0.04
-0.08
-0.50
-1.14
-1.80
-2.29
-2.56
-2.64
-2.66
-2.70
-2.82
-3.00
-3.20
-3.34
-3.31
-3.02
-2.39
-1.40
-0.13
1.25
2.56
3.63
4.34
4.64
4.54
4.10
3.41
2.63
1.94
1.48
1.32
1.42
1.68
2.00
2.33
2.65
3.01
3.38
3.70
3.84
3.71
3.29
2.69
2.09
1.62
1.34
1.19
1.07
0.86
0.53
0.08
-0.47
-1.07
-1.67
-2.22
-2.58
-2.64
-2.32
-1.63
-0.67
0.39
1.38
2.17
2.68
2.88
2.79
2.45
1.98
1.50
1.13
0.92
0.83
0.77
0.66
0.46
0.21
0.01
-0.06
0.04
0.27
0.49
0.59
0.47
0.10
-0.43
-0.98
-1.38
-1.56
-1.52
-1.39
-1.33
-1.46
-1.82
-2.36
-2.98
-3.58
-4.04
-4.20
-3.92
-3.06
-1.61
0.28
2.29
4.04
5.19
5.61
5.38
4.71
3.83
2.88
1.98
1.22
0.68
0.48
0.64
1.08
1.61
2.04
2.24
2.20
1.99
1.75
1.53
1.34
1.10
0.73
0.19
-0.47
-1.14
-1.68
-1.99
-2.06
-1.99
-1.93
-2.03
-2.31
-2.64
-2.80
-2.56
-1.81
-0.66
0.69
1.96
2.92
3.46
3.58
3.38
2.97
2.43
1.82
1.17
0.51
-0.06
-0.47
-0.62
-0.49
-0.11
0.38
0.81
1.05
1.03
0.77
0.37
-0.08
-0.51
-0.89
-1.20
-1.43
-1.57
-1.65
-1.77
-1.98
-2.34
-2.81
-3.24
-3.42
-3.17
-2.37
-1.09
0.47
2.04
3.33
4.16
4.46
4.31
3.83
3.16
2.40
1.63
0.95
0.46
0.26
0.39
0.77
1.23
1.58
1.66
1.43
0.94
0.29
-0.43
-1.13
-1.72
-2.12
-2.28
-2.22
-2.03
-1.87
-1.88
-2.08
-2.41
-2.70
-2.84
-2.70
-2.26
-1.54
-0.57
0.59
1.79
2.88
3.69
4.10
4.10
3.77
3.23
2.60
1.96
1.35
0.81
0.40
0.15
0.11
0.27
0.56
0.91
1.19
1.32
1.22
0.90
0.44
-0.09
-0.57
-0.96
-1.26
-1.52
-1.78
-2.03
-2.23
-2.32
-2.29
-2.17
-2.01
-1.80
-1.47
-0.96
-0.20
0.76
1.75
2.59
3.11
3.25
3.06
2.65
2.12
1.54
0.96
0.45
0.11
0.00
0.18
0.61
1.20
1.79
2.21
2.35
2.19
1.79
1.26
0.71
0.19
-0.24
-0.56
-0.74
-0.76
-0.64
-0.49
-0.48
-0.76
-1.35
-2.13
-2.79
-3.01
-2.57
-1.47
0.06
1.67
3.03
3.94
4.35
4.32
3.93
3.28
2.45
1.50
0.57
-0.19
-0.66
-0.79
-0.62
-0.27
0.13
0.44
0.60
0.58
0.39
0.06
-0.36
-0.81
-1.27
-1.71
-2.11
-2.44
-2.70
-2.84
-2.86
-2.77
-2.58
-2.29
-1.89
-1.36
-0.72
-0.02
0.64
1.20
1.60
1.84
1.90
1.80
1.58
1.25
0.86
0.47
0.13
-0.11
-0.21
-0.16
0.00
0.22
0.40
0.49
0.46
0.32
0.09
-0.19
-0.51
-0.87
-1.24
-1.55
-1.73
-1.79
-1.79
-1.87
-2.15
-2.61
-3.11
-3.40
-3.25
-2.57
-1.44
-0.05
1.34
2.53
3.43
3.97
4.16
3.99
3.50
2.77
1.92
1.09
0.40
-0.09
-0.34
-0.38
-0.23
0.05
0.39
0.71
0.92
0.97
0.84
0.58
0.23
-0.15
-0.54
-0.92
-1.25
-1.48
-1.61
-1.62
-1.59
-1.63
-1.80
-2.11
-2.48
-2.74
-2.72
-2.31
-1.48
-0.33
0.98
2.26
3.30
3.95
4.12
3.84
3.21
2.43
1.66
1.03
0.60
0.39
0.36
0.49
0.73
0.99
1.18
1.21
1.06
0.75
0.34
-0.11
-0.54
-0.90
-1.10
-1.08
-0.84
-0.44
-0.05
0.12
-0.05
-0.51
-1.12
-1.70
-2.12
-2.34
-2.39
-2.28
-1.95
-1.30
-0.29
0.98
2.29
3.32
3.84
3.77
3.20
2.36
1.45
0.62
-0.06
-0.55
-0.83
-0.89
-0.71
-0.37
0.02
0.32
0.42
0.29
-0.04
-0.44
-0.79
-1.00
-1.02
-0.91
-0.76
-0.67
-0.74
-0.99
-1.35
-1.68
-1.87
-1.89
-1.80
-1.77
-1.90
-2.25
-2.69
-3.03
-3.04
-2.61
-1.72
-0.52
0.80
2.02
2.99
3.60
3.81
3.67
3.24
2.68
2.09
1.58
1.19
0.92
0.75
0.65
0.60
0.58
0.56
0.51
0.40
0.25
0.08
-0.08
-0.20
-0.31
-0.45
-0.69
-1.05
-1.51
-2.02
-2.45
-2.71
-2.72
-2.50
-2.17
-1.89
-1.81
-1.99
-2.34
-2.67
-2.76
-2.44
-1.67
-0.55
0.75
2.02
3.08
3.81
4.10
3.91
3.30
2.40
1.42
0.61
0.12
0.02
0.22
0.57
0.90
1.13
1.23
1.21
1.11
0.92
0.62
0.21
-0.26
-0.66
-0.91
-0.97
-0.90
-0.85
-0.89
-1.04
-1.23
-1.36
-1.41
-1.43
-1.52
-1.74
-2.08
-2.43
-2.69
-2.78
-2.72
-2.55
-2.32
-2.01
-1.57
-0.93
-0.10
0.86
1.78
2.46
2.78
2.67
2.22
1.55
0.84
0.20
-0.29
-0.63
-0.82
-0.86
-0.75
-0.52
-0.25
-0.04
-0.05
-0.34
-0.87
-1.50
-2.05
-2.37
-2.38
-2.16
-1.82
-1.48
-1.24
-1.11
-1.04
-0.96
-0.80
-0.49
-0.00
0.66
1.43
2.22
2.94
3.55
4.07
4.60
5.30
6.28
7.63
9.29
11.05
12.58
13.53
13.60
12.68
10.89
8.55
6.11
3.97
2.41
1.50
1.15
1.15
1.31
1.48
1.60
1.66
1.62
1.43
0.99
0.27
-0.75
-1.99
-3.34
-4.72
-6.10
-7.49
-8.96
-10.56
-12.26
-13.96
-15.44
-16.40
-16.62
-15.99
-14.60
-12.71
-10.65
-8.70
-6.98
-5.50
-4.16
-2.84
-1.46
0.01
1.55
3.10
4.54
5.70
6.45
6.78
6.85
6.98
7.51
8.67
10.49
12.78
15.14
17.15
18.53
19.27
19.61
19.97
20.80
22.40
24.75
27.30
29.25
29.81
28.52
25.34
20.69
15.26
9.78
4.82
0.39
-3.82
-8.23
-13.13
-18.47
-24.00
-29.21
-33.54
-36.45
-37.91
-38.08
-37.19
-35.55
-33.48
-31.66
-30.99
-32.37
-34.36
-35.69
-35.60
-34.29
-32.53
-30.67
-28.42
-24.91
-19.32
-11.27
-1.56
8.08
15.72
19.54
19.64
17.03
13.54
11.25
12.03
16.56
23.94
32.08
38.33
40.60
37.61
29.29
16.25
0.15
-17.25
-33.61
-45.87
-51.66
-50.59
-45.19
-39.11
-35.33
-35.60
-37.81
-38.79
-35.05
-23.84
-3.67
24.29
56.96
88.40
113.15
127.52
130.43
123.31
108.49
88.54
64.52
36.61
4.38
-27.51
-51.98
-64.60
-66.43
-65.87
-66.24
-66.55
-63.03
-51.67
-27.74
8.15
50.03
88.60
114.13
121.31
109.84
83.72
49.25
13.71
-17.59
-42.69
-62.68
-80.66
-97.90
-113.31
-123.98
-126.51
-117.50
-95.37
-61.74
-17.17
29.63
66.34
85.83
90.24
83.33
66.63
42.77
15.31
-11.48
-33.76
-47.39
-49.34
-39.47
-21.08
1.14
22.82
40.61
52.61
57.95
57.52
53.23
46.49
37.55
26.41
13.55
-0.30
-14.24
-27.63
-39.46
-48.53
-54.18
-56.74
-56.98
-55.57
-53.22
-50.47
-47.81
-45.34
-42.91
-40.45
-38.18
-36.28
-34.65
-33.04
-31.07
-28.46
-24.93
-20.41
-15.13
-9.70
-4.85
-1.17
0.98
1.67
1.35
0.69
0.38
0.87
2.30
4.50
7.05
9.36
10.86
11.15
10.13
8.16
5.89
4.07
3.31
3.82
5.46
7.84
10.52
13.16
15.50
17.36
18.60
19.20
19.22
18.85
18.29
17.73
17.19
16.64
15.99
15.21
14.38
13.61
13.08
12.86
12.98
13.37
13.94
14.56
15.11
15.48
15.54
15.18
14.27
12.78
10.83
8.63
6.49
4.66
3.27
2.32
1.66
1.15
0.62
-0.01
-0.75
-1.57
-2.35
-2.94
-3.18
-2.96
-2.21
-0.89
0.94
3.19
5.67
8.10
10.17
11.63
12.31
12.25
11.61
10.64
9.56
8.55
7.71
7.05
6.58
6.27
6.11
6.06
6.07
6.02
5.81
5.34
4.60
3.65
2.65
1.73
0.96
0.28
-0.44
-1.30
-2.35
-3.50
-4.61
-5.58
-6.44
-7.25
-8.08
-8.86
-9.38
-9.38
-8.63
-7.11
-4.97
-2.47
0.09
2.51
4.66
6.48
7.85
8.73
9.08
8.95
8.50
7.95
7.47
7.18
7.10
7.18
7.35
7.54
7.70
7.79
7.76
7.58
7.21
6.63
5.80
4.72
3.41
1.98
0.56
-0.71
-1.70
-2.40
-2.88
-3.32
-3.90
-4.76
-5.90
-7.14
-8.21
-8.79
-8.64
-7.71
-6.10
-4.06
-1.88
0.16
1.84
3.05
3.74
3.95
3.77
3.29
2.64
1.93
1.25
0.73
0.47
0.51
0.85
1.37
1.96
2.46
2.82
3.01
3.04
2.93
2.71
2.38
1.97
1.48
0.90
0.19
-0.70
-1.77
-2.95
-4.11
-5.08
-5.74
-6.00
-5.88
-5.38
-4.55
-3.40
-1.99
-0.44
1.10
2.41
3.29
3.65
3.54
3.16
2.72
2.39
2.22
2.12
1.99
1.76
1.44
1.15
0.96
0.91
0.90
0.80
0.53
0.06
-0.50
-1.04
-1.47
-1.75
-1.97
-2.21
-2.58
-3.12
-3.81
-4.55
-5.26
-5.84
-6.27
-6.50
-6.52
-6.29
-5.79
-4.99
-3.94
-2.71
-1.44
-0.30
0.56
1.03
1.05
0.67
-0.01
-0.81
-1.57
-2.14
-2.47
-2.57
-2.52
-2.38
-2.23
-2.12
-2.11
-2.23
-2.46
-2.74
-2.99
-3.14
-3.19
-3.23
-3.36
-3.68
-4.22
-4.95
-5.78
-6.59
-7.27
-7.71
-7.80
-7.44
-6.57
-5.23
-3.56
-1.83
-0.32
0.74
1.25
1.25
0.84
0.20
-0.55
-1.30
-1.96
-2.47
-2.79
-2.89
-2.84
-2.73
-2.65
-2.69
-2.86
-3.15
-3.54
-4.01
-4.51
-5.00
-5.41
-5.71
-5.91
-6.09
-6.38
-6.87
-7.52
-8.19
-8.65
-8.68
-8.09
-6.87
-5.14
-3.13
-1.15
0.52
1.72
2.41
2.67
2.68
2.59
2.49
2.37
2.16
1.82
1.39
0.98
0.75
0.78
1.04
1.37
1.55
1.46
1.10
0.62
0.19
-0.09
-0.22
-0.28
-0.37
-0.54
-0.83
-1.25
-1.82
-2.54
-3.28
-3.83
-3.90
-3.27
-1.91
0.00
2.09
3.96
5.33
6.10
6.36
6.28
6.04
5.71
5.34
4.91
4.42
3.93
3.50
3.20
3.04
2.97
2.91
2.72
2.38
1.86
1.20
0.47
-0.32
-1.16
-2.04
-2.93
-3.80
-4.60
-5.31
-5.92
-6.44
-6.85
-7.07
-7.01
-6.57
-5.72
-4.50
-3.02
-1.45
0.05
1.32
2.27
2.84
3.04
2.93
2.56
2.01
1.35
0.68
0.13
-0.19
-0.20
0.05
0.43
0.77
0.89
0.74
0.37
-0.08
-0.44
-0.59
-0.55
-0.40
-0.29
-0.35
-0.63
-1.04
-1.42
-1.56
-1.28
-0.48
0.85
2.67
4.84
7.16
9.33
11.03
11.95
11.93
11.05
9.58
7.89
6.35
5.13
4.28
3.71
3.32
3.04
2.81
2.55
2.18
1.60
0.80
-0.12
-0.99
-1.62
-1.89
-1.83
-1.54
-1.19
-0.92
-0.82
-0.94
-1.28
-1.81
-2.43
-2.92
-3.02
-2.53
-1.38
0.29
2.15
3.86
5.14
5.87
6.01
5.59
4.65
3.26
1.58
-0.08
-1.37
-2.05
-2.04
-1.53
-0.83
-0.28
-0.06
-0.22
-0.72
-1.46
-2.35
-3.30
-4.18
-4.85
-5.23
-5.33
-5.26
-5.22
-5.35
-5.66
-6.06
-6.36
-6.40
-6.08
-5.43
-4.53
-3.53
-2.53
-1.59
-0.76
-0.12
0.26
0.32
0.04
-0.49
-1.11
-1.65
-1.98
-2.09
-2.03
-1.88
-1.73
-1.60
-1.51
-1.45
-1.47
-1.59
-1.79
-2.02
-2.21
-2.34
-2.44
-2.62
-2.93
-3.39
-3.87
-4.18
-4.13
-3.58
-2.53
-1.08
0.57
2.18
3.53
4.47
4.95
4.99
4.72
4.25
3.73
3.21
2.72
2.26
1.82
1.44
1.11
0.86
0.63
0.35
-0.09
-0.76
-1.64
-2.65
-3.63
-4.48
-5.19
-5.87
-6.66
-7.64
-8.76
-9.80
-10.47
-10.52
-9.82
-8.41
-6.48
-4.33
-2.27
-0.54
0.72
1.45
1.72
1.63
1.26
0.67
-0.09
-0.93
-1.76
-2.43
-2.88
-3.18
-3.46
-3.84
-4.36
-4.88
-5.21
-5.20
-4.85
-4.37
-4.01
-4.01
-4.45
-5.22
-6.10
-6.83
-7.20
-7.08
-6.42
-5.24
-3.65
-1.83
0.03
1.70
3.01
3.88
4.31
4.44
4.42
4.42
4.52
4.69
4.87
4.94
4.87
4.67
4.35
3.92
3.38
2.74
2.01
1.30
0.69
0.23
-0.13
-0.50
-1.01
-1.75
-2.71
-3.78
-4.83
-5.70
-6.22
-6.24
-5.69
-4.59
-3.07
-1.38
0.29
1.83
3.24
4.58
5.88
7.09
8.06
8.64
8.77
8.54
8.11
7.68
7.42
7.36
7.46
7.61
7.73
7.75
7.64
7.37
6.92
6.25
5.40
4.42
3.50
2.86
2.70
3.12
4.05
5.25
6.42
7.28
7.71
7.72
7.42
6.94
6.32
5.54
4.59
3.54
2.60
2.06
2.17
3.00
4.44
6.27
8.17
9.90
11.24
12.04
12.13
11.38
9.77
7.43
4.67
1.92
-0.37
-1.87
-2.42
-2.06
-0.98
0.55
2.25
3.90
5.33
6.47
7.33
7.96
8.43
8.79
9.04
9.14
9.02
8.58
7.82
6.78
5.61
4.51
3.61
2.95
2.43
1.90
1.23
0.43
-0.33
-0.82
-0.85
-0.38
0.43
1.29
1.94
2.19
2.00
1.44
0.64
-0.25
-1.10
-1.74
-1.99
-1.72
-0.90
0.36
1.85
3.27
4.39
5.08
5.33
5.24
4.92
4.50
4.04
3.59
3.14
2.69
2.25
1.83
1.49
1.25
1.12
1.07
1.07
1.11
1.21
1.40
1.68
2.01
2.25
2.29
2.05
1.61
1.14
0.87
0.96
1.38
1.96
2.41
2.49
2.10
1.29
0.24
-0.85
-1.83
-2.67
-3.40
-4.09
-4.78
-5.45
-6.04
-6.44
-6.55
-6.33
-5.75
-4.84
-3.66
-2.25
-0.73
0.78
2.14
3.21
3.89
4.17
4.09
3.74
3.20
2.52
1.76
0.98
0.26
-0.33
-0.73
-0.93
-0.96
-0.87
-0.75
-0.68
-0.78
-1.06
-1.50
-1.98
-2.32
-2.38
-2.08
-1.46
-0.65
0.24
1.12
1.89
2.50
2.85
2.89
2.59
1.99
1.21
0.34
-0.52
-1.32
-2.01
-2.57
-3.01
-3.35
-3.66
-3.94
-4.16
-4.17
-3.83
-3.05
-1.88
-0.50
0.88
2.10
3.09
3.87
4.47
4.84
4.89
4.51
3.65
2.42
1.03
-0.28
-1.30
-1.93
-2.21
-2.21
-2.03
-1.68
-1.15
-0.39
0.57
1.59
2.51
3.14
3.42
3.40
3.20
2.92
2.62
2.27
1.85
1.30
0.65
-0.11
-0.98
-2.04
-3.30
-4.69
-5.99
-6.88
-7.08
-6.48
-5.24
-3.73
-2.37
-1.52
-1.28
-1.56
-2.15
-2.75
-3.17
-3.28
-3.04
-2.44
-1.49
-0.22
1.29
2.90
4.41
5.66
6.46
6.74
6.52
5.89
4.96
3.84
2.58
1.25
-0.07
-1.29
-2.32
-3.17
-3.88
-4.53
-5.16
-5.74
-6.16
-6.28
-6.02
-5.35
-4.37
-3.20
-1.99
-0.85
0.15
0.92
1.37
1.42
1.02
0.16
-1.06
-2.44
-3.76
-4.79
-5.41
-5.63
-5.59
-5.45
-5.37
-5.35
-5.26
-4.87
-3.96
-2.45
-0.45
1.73
3.72
5.19
5.96
6.07
5.67
4.99
4.21
3.42
2.67
1.99
1.47
1.21
1.34
1.85
2.64
3.44
3.96
3.98
3.48
2.58
1.54
0.57
-0.21
-0.80
-1.29
-1.72
-2.09
-2.37
-2.52
-2.52
-2.39
-2.14
-1.79
-1.37
-0.96
-0.72
-0.79
-1.26
-2.05
-2.93
-3.63
-3.92
-3.74
-3.17
-2.40
-1.63
-0.96
-0.44
-0.06
0.19
0.29
0.23
0.01
-0.30
-0.59
-0.77
-0.80
-0.68
-0.46
-0.15
0.25
0.80
1.53
2.46
3.54
4.69
5.82
6.83
7.69
8.41
8.98
9.39
9.57
9.46
9.01
8.20
7.06
5.62
3.92
2.00
-0.13
-2.35
-4.53
-6.49
-8.09
-9.31
-10.23
-10.96
-11.60
-12.16
-12.53
-12.60
-12.27
-11.54
-10.50
-9.29
-8.04
-6.81
-5.64
-4.53
-3.49
-2.54
-1.71
-1.02
-0.47
-0.03
0.33
0.69
1.07
1.47
1.87
2.21
2.42
2.45
2.30
2.02
1.75
1.61
1.69
1.97
2.37
2.75
3.00
3.08
3.06
3.07
3.24
3.61
4.12
4.60
4.86
4.79
4.39
3.78
3.13
2.62
2.36
2.42
2.75
3.24
3.71
3.96
3.80
3.17
2.10
0.79
-0.55
-1.76
-2.80
-3.71
-4.53
-5.29
-5.95
-6.44
-6.71
-6.79
-6.72
-6.62
-6.58
-6.64
-6.79
-6.93
-6.92
-6.61
-5.91
-4.87
-3.65
-2.49
-1.59
-1.05
-0.85
-0.85
-0.93
-0.97
-0.96
-0.93
-0.92
-0.92
-0.88
-0.76
-0.57
-0.37
-0.24
-0.23
-0.31
-0.39
-0.35
-0.14
0.21
0.58
0.85
0.98
1.05
1.24
1.73
2.62
3.87
5.27
6.50
7.28
7.42
6.89
5.82
4.45
3.02
1.73
0.68
-0.07
-0.52
-0.68
-0.59
-0.33
0.01
0.31
0.51
0.57
0.53
0.47
0.45
0.45
0.45
0.36
0.17
-0.11
-0.41
-0.66
-0.80
-0.85
-0.81
-0.73
-0.61
-0.48
-0.38
-0.38
-0.53
-0.88
-1.39
-2.00
-2.62
-3.14
-3.52
-3.69
-3.60
-3.21
-2.50
-1.55
-0.52
0.38
0.98
1.19
1.04
0.65
0.18
-0.28
-0.66
-0.92
-1.04
-0.99
-0.76
-0.45
-0.20
-0.19
-0.55
-1.27
-2.20
-3.12
-3.80
-4.13
-4.09
-3.74
-3.21
-2.63
-2.10
-1.71
-1.49
-1.41
-1.45
-1.52
-1.59
-1.64
-1.70
-1.79
-1.88
-1.93
-1.87
-1.66
-1.32
-0.89
-0.43
0.05
0.59
1.21
1.92
2.63
3.22
3.54
3.50
3.09
2.39
1.56
0.79
0.22
-0.07
-0.08
0.13
0.45
0.77
1.00
1.12
1.11
1.01
0.81
0.49
0.03
-0.56
-1.17
-1.69
-2.00
-2.04
-1.86
-1.56
-1.23
-0.97
-0.80
-0.75
-0.79
-0.92
-1.10
-1.25
-1.27
-1.05
-0.51
0.34
1.38
2.42
3.25
3.70
3.68
3.26
2.60
1.90
1.30
0.86
0.54
0.22
-0.15
-0.57
-0.96
-1.21
-1.25
-1.08
-0.76
-0.38
-0.00
0.33
0.59
0.78
0.86
0.82
0.64
0.38
0.11
-0.11
-0.27
-0.41
-0.58
-0.84
-1.18
-1.54
-1.86
-2.11
-2.29
-2.42
-2.51
-2.49
-2.28
-1.81
-1.07
-0.14
0.83
1.69
2.35
2.73
2.82
2.61
2.11
1.37
0.48
-0.40
-1.11
-1.52
-1.57
-1.28
-0.75
-0.10
0.57
1.22
1.80
2.29
2.69
2.99
3.18
3.28
3.25
3.02
2.51
1.63
0.38
-1.11
-2.57
-3.72
-4.37
-4.49
-4.24
-3.84
-3.45
-3.08
-2.56
-1.72
-0.48
1.05
2.55
3.64
4.04
3.63
2.52
0.92
-0.91
-2.75
-4.42
-5.80
-6.74
-7.10
-6.77
-5.73
-4.09
-2.08
-0.02
1.76
3.03
3.71
3.86
3.65
3.24
2.71
2.12
1.48
0.85
0.26
-0.24
-0.62
-0.88
-0.99
-0.83
-0.26
0.83
2.40
4.22
5.96
7.30
8.08
8.37
8.36
8.25
8.14
7.96
7.56
6.77
5.52
3.81
1.73
-0.59
-3.04
-5.48
-7.76
-9.71
-11.12
-11.87
-11.88
-11.19
-9.95
-8.34
-6.53
-4.67
-2.88
-1.29
0.02
0.96
1.52
1.72
1.64
1.33
0.84
0.17
-0.65
-1.56
-2.40
-3.01
-3.26
-3.10
-2.61
-1.92
-1.18
-0.48
0.18
0.82
1.52
2.29
3.08
3.78
4.27
4.43
4.26
3.83
3.25
2.56
1.79
0.94
0.01
-0.84
-1.44
-1.59
-1.21
-0.43
0.51
1.33
1.83
1.96
1.81
1.52
1.24
1.05
0.97
0.99
1.09
1.28
1.56
1.91
2.29
2.57
2.62
2.32
1.62
0.58
-0.67
-1.93
-3.05
-3.90
-4.40
-4.48
-4.09
-3.25
-2.07
-0.73
0.51
1.46
2.00
2.14
1.93
1.43
0.70
-0.21
-1.23
-2.18
-2.93
-3.39
-3.60
-3.68
-3.75
-3.86
-3.94
-3.90
-3.66
-3.26
-2.85
-2.58
-2.52
-2.57
-2.53
-2.20
-1.51
-0.55
0.47
1.30
1.81
2.00
1.99
1.96
2.10
2.47
3.09
3.80
4.44
4.81
4.79
4.37
3.63
2.73
1.76
0.79
-0.21
-1.23
-2.22
-3.05
-3.54
-3.57
-3.13
-2.35
-1.44
-0.63
-0.05
0.24
0.30
0.18
-0.08
-0.47
-0.97
-1.54
-2.07
-2.45
-2.61
-2.52
-2.23
-1.81
-1.33
-0.84
-0.37
0.04
0.32
0.43
0.39
0.30
0.32
0.55
1.01
1.57
2.03
2.22
2.09
1.69
1.14
0.54
-0.08
-0.67
-1.20
-1.55
-1.62
-1.35
-0.80
-0.11
0.49
0.84
0.87
0.58
0.04
-0.65
-1.34
-1.90
-2.16
-2.03
-1.51
-0.70
0.23
1.13
1.87
2.38
2.64
2.67
2.54
2.37
2.32
2.57
3.23
4.33
5.71
7.13
8.25
8.78
8.57
7.61
6.07
4.23
2.39
0.78
-0.46
-1.33
-1.85
-2.08
-2.06
-1.84
-1.52
-1.26
-1.19
-1.35
-1.65
-1.95
-2.05
-1.85
-1.40
-0.79
-0.15
0.41
0.78
0.90
0.73
0.22
-0.59
-1.60
-2.70
-3.78
-4.77
-5.63
-6.32
-6.76
-6.90
-6.72
-6.24
-5.53
-4.66
-3.71
-2.71
-1.71
-0.78
0.02
0.62
0.97
1.07
0.95
0.65
0.24
-0.22
-0.67
-1.06
-1.39
-1.70
-2.01
-2.30
-2.52
-2.56
-2.35
-1.87
-1.21
-0.47
0.18
0.65
0.87
0.82
0.51
-0.04
-0.74
-1.47
-2.05
-2.30
-2.08
-1.33
-0.15
1.27
2.64
3.69
4.20
4.12
3.52
2.59
1.53
0.49
-0.43
-1.20
-1.78
-2.13
-2.21
-1.96
-1.41
-0.66
0.18
1.00
1.73
2.33
2.80
3.11
3.23
3.09
2.69
2.04
1.22
0.33
-0.52
-1.25
-1.80
-2.13
-2.22
-2.01
-1.46
-0.56
0.66
2.10
3.59
4.92
5.88
6.33
6.20
5.53
4.45
3.14
1.78
0.54
-0.53
-1.38
-2.02
-2.47
-2.72
-2.77
-2.66
-2.51
-2.46
-2.65
-3.11
-3.71
-4.28
-4.63
-4.71
-4.59
-4.41
-4.25
-4.12
-3.89
-3.45
-2.75
-1.88
-0.98
-0.15
0.56
1.21
1.81
2.34
2.68
2.72
2.43
1.89
1.30
0.83
0.56
0.48
0.48
0.43
0.25
-0.04
-0.37
-0.61
-0.63
-0.36
0.18
0.87
1.55
2.06
2.32
2.35
2.17
1.83
1.32
0.65
-0.13
-0.91
-1.52
-1.84
-1.81
-1.50
-1.03
-0.51
-0.00
0.51
1.08
1.76
2.53
3.29
3.88
4.11
3.87
3.17
2.16
1.07
0.16
-0.39
-0.55
-0.36
0.05
0.58
1.13
1.62
1.99
2.14
2.05
1.75
1.36
1.04
0.93
1.10
1.50
2.02
2.49
2.76
2.71
2.30
1.60
0.76
0.03
-0.36
-0.27
0.31
1.29
2.49
3.71
4.84
5.75
6.33
6.46
6.06
5.15
3.89
2.48
1.15
0.01
-0.94
-1.73
-2.42
-2.97
-3.30
-3.35
-3.15
-2.81
-2.52
-2.41
-2.55
-2.94
-3.52
-4.22
-4.98
-5.72
-6.34
-6.79
-7.05
-7.15
-7.13
-7.02
-6.79
-6.38
-5.72
-4.74
-3.42
-1.80
0.05
1.99
3.81
5.31
6.28
6.60
6.23
5.30
4.08
2.89
2.04
1.70
1.83
2.23
2.67
2.97
3.09
3.10
3.07
3.02
2.88
2.56
2.01
1.26
0.41
-0.48
-1.32
-2.08
-2.74
-3.25
-3.55
-3.65
-3.58
-3.42
-3.26
-3.20
-3.27
-3.47
-3.73
-3.96
-4.07
-3.97
-3.60
-2.96
-2.11
-1.13
-0.18
0.59
1.03
1.07
0.70
0.05
-0.70
-1.32
-1.64
-1.58
-1.15
-0.50
0.22
0.83
1.20
1.29
1.13
0.82
0.49
0.25
0.16
0.20
0.30
0.40
0.46
0.48
0.50
0.49
0.40
0.18
-0.17
-0.55
-0.74
-0.51
0.27
1.57
3.19
4.84
6.29
7.38
8.03
8.22
7.91
7.07
5.76
4.13
2.44
0.98
-0.06
-0.64
-0.86
-0.92
-0.99
-1.12
-1.33
-1.60
-1.91
-2.29
-2.73
-3.20
-3.64
-3.99
-4.25
-4.47
-4.71
-4.97
-5.21
-5.33
-5.27
-5.04
-4.75
-4.46
-4.25
-4.08
-3.88
-3.60
-3.17
-2.58
-1.81
-0.85
0.27
1.41
2.38
2.99
3.15
2.92
2.47
1.98
1.56
1.26
1.07
1.03
1.20
1.62
2.26
2.95
3.41
3.43
2.91
1.93
0.72
-0.46
-1.42
-2.08
-2.48
-2.72
-2.88
-3.01
-3.11
-3.12
-2.98
-2.66
-2.16
-1.51
-0.81
-0.15
0.36
0.62
0.63
0.41
0.06
-0.26
-0.44
-0.41
-0.17
0.20
0.62
1.01
1.30
1.45
1.47
1.43
1.43
1.59
1.97
2.54
3.18
3.71
3.98
3.91
3.55
3.00
2.35
1.65
0.93
0.26
-0.28
-0.60
-0.69
-0.56
-0.33
-0.13
-0.03
-0.04
-0.13
-0.22
-0.25
-0.22
-0.21
-0.33
-0.68
-1.28
-2.03
-2.76
-3.27
-3.44
-3.24
-2.77
-2.14
-1.46
-0.81
-0.22
0.24
0.49
0.49
0.21
-0.30
-0.92
-1.50
-1.92
-2.06
-1.91
-1.50
-0.96
-0.47
-0.20
-0.22
-0.50
-0.90
-1.28
-1.53
-1.67
-1.76
-1.88
-2.03
-2.17
-2.23
-2.17
-2.00
-1.75
-1.46
-1.17
-0.90
-0.71
-0.64
-0.73
-0.92
-1.09
-1.08
-0.73
0.05
1.21
2.61
4.04
5.23
5.94
6.03
5.45
4.33
2.89
1.44
0.21
-0.62
-1.04
-1.09
-0.90
-0.63
-0.43
-0.38
-0.50
-0.73
-0.94
-1.03
-0.97
-0.80
-0.61
-0.49
-0.48
-0.58
-0.74
-0.94
-1.16
-1.38
-1.56
-1.61
-1.47
-1.11
-0.62
-0.17
0.08
0.05
-0.26
-0.68
-1.03
-1.14
-0.89
-0.25
0.68
1.78
2.87
3.78
4.39
4.60
4.39
3.79
2.88
1.85
0.90
0.25
-0.01
0.08
0.37
0.64
0.75
0.67
0.51
0.44
0.56
0.86
1.23
1.55
1.72
1.73
1.59
1.29
0.80
0.08
-0.86
-1.91
-2.87
-3.51
-3.67
-3.37
-2.77
-2.12
-1.67
-1.51
-1.55
-1.61
-1.47
-1.03
-0.31
0.57
1.45
2.22
2.84
3.34
3.72
4.01
4.16
4.12
3.87
3.37
2.67
1.86
1.06
0.41
0.02
-0.03
0.22
0.66
1.13
1.46
1.54
1.38
1.09
0.84
0.79
0.97
1.31
1.59
1.61
1.20
0.35
-0.83
-2.13
-3.38
-4.46
-5.30
-5.86
-6.14
-6.12
-5.82
-5.30
-4.63
-3.86
-3.02
-2.04
-0.90
0.41
1.78
2.99
3.83
4.16
3.97
3.40
2.69
2.03
1.51
1.13
0.81
0.52
0.28
0.18
0.34
0.75
1.30
1.79
2.01
1.84
1.27
0.44
-0.51
-1.42
-2.16
-2.65
-2.78
-2.51
-1.87
-1.00
-0.13
0.51
0.81
0.83
0.71
0.65
0.73
0.88
0.91
0.64
-0.03
-1.00
-2.03
-2.84
-3.17
-2.91
-2.09
-0.84
0.64
2.14
3.48
4.50
5.05
5.07
4.58
3.68
2.55
1.40
0.42
-0.28
-0.66
-0.74
-0.62
-0.39
-0.16
0.02
0.13
0.17
0.19
0.20
0.20
0.16
0.07
-0.08
-0.27
-0.48
-0.66
-0.80
-0.88
-0.91
-0.90
-0.89
-0.91
-0.99
-1.15
-1.35
-1.52
-1.58
-1.44
-1.09
-0.54
0.17
0.97
1.80
2.57
3.20
3.59
3.68
3.45
2.93
2.25
1.52
0.89
0.41
0.07
-0.20
-0.48
-0.79
-1.11
-1.35
-1.46
-1.44
-1.34
-1.23
-1.17
-1.17
-1.23
-1.33
-1.51
-1.74
-1.99
-2.14
-2.05
-1.68
-1.08
-0.45
-0.05
-0.05
-0.55
-1.45
-2.57
-3.69
-4.61
-5.17
-5.27
-4.87
-4.02
-2.86
-1.60
-0.48
0.31
0.70
0.70
0.44
0.05
-0.38
-0.80
-1.21
-1.60
-1.97
-2.29
-2.55
-2.73
-2.82
-2.78
-2.56
-2.12
-1.48
-0.69
0.14
0.93
1.57
2.03
2.28
2.32
2.16
1.82
1.34
0.78
0.18
-0.42
-1.00
-1.47
-1.69
-1.51
-0.85
0.23
1.53
2.77
3.63
3.97
3.77
3.20
2.45
1.72
1.12
0.67
0.34
0.09
-0.10
-0.21
-0.24
-0.21
-0.17
-0.21
-0.39
-0.75
-1.25
-1.76
-2.19
-2.43
-2.44
-2.30
-2.14
-2.09
-2.22
-2.50
-2.80
-2.97
-2.86
-2.42
-1.68
-0.71
0.40
1.56
2.65
3.55
4.10
4.24
4.04
3.68
3.36
3.19
3.09
2.87
2.36
1.50
0.41
-0.65
-1.42
-1.76
-1.72
-1.45
-1.16
-1.03
-1.15
-1.52
-2.02
-2.50
-2.77
-2.73
-2.38
-1.84
-1.25
-0.73
-0.33
-0.03
0.21
0.40
0.47
0.42
0.27
0.17
0.30
0.79
1.60
2.53
3.33
3.73
3.65
3.13
2.31
1.38
0.49
-0.27
-0.80
-1.02
-0.89
-0.41
0.31
1.06
1.64
1.90
1.80
1.40
0.84
0.24
-0.33
-0.85
-1.29
-1.65
-1.89
-2.01
-2.01
-1.93
-1.78
-1.62
-1.43
-1.24
-1.02
-0.78
-0.48
-0.08
0.48
1.24
2.25
3.43
4.67
5.76
6.49
6.69
6.27
5.30
3.95
2.44
1.00
-0.27
-1.29
-2.02
-2.39
-2.31
-1.75
-0.81
0.26
1.16
1.62
1.60
1.22
0.76
0.50
0.61
1.12
1.92
2.86
3.75
4.43
4.76
4.66
4.12
3.23
2.16
1.09
0.16
-0.58
-1.19
-1.74
-2.28
-2.75
-3.04
-2.98
-2.45
-1.45
-0.07
1.52
3.12
4.49
5.45
5.83
5.58
4.76
3.55
2.21
0.99
0.04
-0.63
-1.12
-1.53
-1.94
-2.28
-2.46
-2.38
-2.03
-1.51
-0.96
-0.53
-0.30
-0.32
-0.60
-1.16
-1.97
-2.99
-4.09
-5.12
-5.94
-6.48
-6.71
-6.65
-6.34
-5.79
-4.99
-3.96
-2.73
-1.44
-0.22
0.83
1.65
2.23
2.63
2.91
3.07
3.09
2.91
2.53
2.00
1.44
0.91
0.47
0.08
-0.31
-0.70
-1.04
-1.22
-1.15
-0.86
-0.46
-0.14
-0.02
-0.13
-0.37
-0.58
-0.65
-0.54
-0.30
-0.05
0.09
0.06
-0.13
-0.42
-0.72
-0.95
-1.10
-1.14
-1.11
-1.04
-0.95
-0.87
-0.79
-0.72
-0.62
-0.45
-0.18
0.23
0.78
1.44
2.13
2.77
3.26
3.49
3.40
2.96
2.25
1.39
0.57
-0.02
-0.26
-0.16
0.19
0.62
0.97
1.18
1.24
1.20
1.12
1.01
0.85
0.61
0.25
-0.22
-0.76
-1.34
-1.89
-2.34
-2.62
-2.69
-2.50
-2.05
-1.41
-0.70
-0.08
0.35
0.57
0.67
0.83
1.23
1.95
2.91
3.93
4.75
5.21
5.26
4.95
4.41
3.76
3.03
2.23
1.34
0.38
-0.55
-1.32
-1.78
-1.84
-1.57
-1.12
-0.70
-0.46
-0.45
-0.59
-0.75
-0.84
-0.80
-0.65
-0.46
-0.28
-0.16
-0.12
-0.18
-0.26
-0.31
-0.27
-0.15
-0.06
-0.11
-0.41
-0.91
-1.50
-2.00
-2.25
-2.23
-1.96
-1.53
-0.98
-0.33
0.38
1.09
1.69
2.06
2.14
1.93
1.47
0.83
0.06
-0.78
-1.58
-2.22
-2.59
-2.62
-2.35
-1.93
-1.55
-1.38
-1.47
-1.77
-2.13
-2.41
-2.53
-2.52
-2.47
-2.47
-2.55
-2.66
-2.71
-2.62
-2.36
-1.98
-1.57
-1.26
-1.12
-1.16
-1.26
-1.27
-1.02
-0.39
0.59
1.79
2.99
3.95
4.48
4.50
4.04
3.23
2.23
1.22
0.32
-0.37
-0.82
-1.02
-0.99
-0.77
-0.44
-0.11
0.08
0.02
-0.33
-0.91
-1.61
-2.27
-2.80
-3.15
-3.36
-3.45
-3.42
-3.27
-2.96
-2.54
-2.13
-1.87
-1.90
-2.23
-2.76
-3.32
-3.68
-3.68
-3.26
-2.46
-1.39
-0.26
0.74
1.44
1.78
1.80
1.64
1.39
1.13
0.84
0.55
0.36
0.46
1.00
2.01
3.28
4.45
5.16
5.24
4.72
3.80
2.68
1.44
0.13
-1.22
-2.41
-3.13
-3.05
-2.07
-0.33
1.72
3.50
4.55
4.66
3.93
2.68
1.33
0.19
-0.57
-0.97
-1.12
-1.15
-1.13
-1.07
-0.94
-0.75
-0.57
-0.51
-0.63
-0.85
-1.01
-0.92
-0.46
0.28
1.07
1.58
1.61
1.14
0.35
-0.48
-1.15
-1.61
-1.92
-2.18
-2.44
-2.60
-2.52
-2.09
-1.33
-0.40
0.47
1.05
1.20
0.92
0.34
-0.34
-0.95
-1.35
-1.50
-1.36
-0.94
-0.26
0.64
1.66
2.64
3.39
3.70
3.47
2.74
1.67
0.52
-0.44
-1.06
-1.30
-1.24
-0.98
-0.64
-0.29
-0.01
0.16
0.15
-0.09
-0.51
-1.00
-1.34
-1.36
-0.97
-0.28
0.51
1.16
1.50
1.52
1.26
0.84
0.34
-0.20
-0.74
-1.20
-1.49
-1.52
-1.32
-0.96
-0.57
-0.22
0.16
0.65
1.32
2.12
2.86
3.33
3.40
3.08
2.49
1.83
1.22
0.75
0.44
0.27
0.25
0.36
0.58
0.84
1.10
1.27
1.33
1.23
1.01
0.69
0.41
0.25
0.29
0.49
0.72
0.84
0.76
0.51
0.21
0.00
-0.04
0.05
0.18
0.25
0.22
0.13
0.07
0.10
0.23
0.37
0.46
0.46
0.44
0.56
0.96
1.66
2.55
3.38
3.91
4.04
3.79
3.35
2.88
2.48
2.14
1.77
1.29
0.70
0.05
-0.55
-1.03
-1.34
-1.50
-1.56
-1.60
-1.68
-1.87
-2.18
-2.55
-2.88
-3.09
-3.18
-3.18
-3.17
-3.23
-3.38
-3.61
-3.83
-3.96
-3.97
-3.85
-3.64
-3.42
-3.22
-3.04
-2.88
-2.70
-2.48
-2.19
-1.80
-1.32
-0.74
-0.06
0.69
1.41
2.01
2.41
2.58
2.51
2.25
1.86
1.38
0.86
0.36
-0.07
-0.38
-0.53
-0.52
-0.36
-0.14
0.01
-0.02
-0.27
-0.68
-1.10
-1.35
-1.32
-1.02
-0.59
-0.24
-0.15
-0.33
-0.66
-0.96
-1.09
-1.03
-0.91
-0.90
-1.10
-1.46
-1.80
-1.94
-1.72
-1.16
-0.35
0.53
1.35
2.02
2.49
2.73
2.68
2.33
1.71
0.95
0.24
-0.26
-0.44
-0.33
-0.05
0.23
0.38
0.33
0.11
-0.22
-0.55
-0.82
-0.98
-1.01
-0.90
-0.67
-0.39
-0.13
0.02
0.02
-0.12
-0.36
-0.66
-0.98
-1.30
-1.61
-1.89
-2.14
-2.33
-2.41
-2.33
-2.01
-1.42
-0.54
0.56
1.73
2.79
3.55
3.86
3.70
3.13
2.29
1.36
0.48
-0.22
-0.68
-0.84
-0.67
-0.14
0.69
1.67
2.59
3.21
3.40
3.13
2.52
1.77
1.02
0.36
-0.20
-0.69
-1.12
-1.45
-1.61
-1.55
-1.27
-0.85
-0.38
0.02
0.23
0.21
-0.04
-0.41
-0.78
-0.98
-0.94
-0.62
-0.07
0.63
1.42
2.23
2.98
3.53
3.76
3.56
2.97
2.10
1.18
0.40
-0.11
-0.32
-0.26
-0.00
0.37
0.82
1.27
1.65
1.92
2.04
2.01
1.86
1.64
1.37
1.10
0.88
0.70
0.58
0.47
0.38
0.31
0.31
0.40
0.58
0.77
0.89
0.83
0.58
0.18
-0.25
-0.55
-0.57
-0.24
0.47
1.46
2.58
3.60
4.32
4.56
4.28
3.56
2.57
1.53
0.61
-0.11
-0.64
-1.03
-1.35
-1.59
-1.71
-1.67
-1.50
-1.30
-1.17
-1.22
-1.42
-1.64
-1.74
-1.58
-1.18
-0.64
-0.16
0.10
0.09
-0.15
-0.52
-0.88
-1.17
-1.36
-1.49
-1.62
-1.79
-2.03
-2.29
-2.50
-2.53
-2.31
-1.79
-1.02
-0.14
0.66
1.20
1.38
1.20
0.75
0.16
-0.48
-1.11
-1.69
-2.19
-2.57
-2.76
-2.74
-2.55
-2.25
-1.88
-1.49
-1.08
-0.64
-0.24
0.03
0.10
-0.06
-0.37
-0.69
-0.89
-0.94
-0.88
-0.81
-0.81
-0.89
-1.03
-1.22
-1.44
-1.69
-1.92
-2.07
-2.01
-1.65
-0.96
-0.05
0.90
1.66
2.11
2.20
2.02
1.72
1.45
1.30
1.30
1.40
1.52
1.60
1.57
1.40
1.10
0.71
0.27
-0.18
-0.59
-0.93
-1.15
-1.21
-1.13
-0.95
-0.73
-0.55
-0.41
-0.33
-0.25
-0.16
-0.07
-0.03
-0.09
-0.28
-0.56
-0.83
-0.99
-0.98
-0.77
-0.37
0.17
0.82
1.51
2.15
2.63
2.84
2.74
2.33
1.74
1.11
0.60
0.28
0.15
0.12
0.07
-0.04
-0.21
-0.35
-0.35
-0.18
0.13
0.45
0.63
0.54
0.17
-0.42
-1.08
-1.63
-1.95
-1.99
-1.81
-1.50
-1.20
-1.01
-0.99
-1.13
-1.37
-1.64
-1.89
-2.08
-2.18
-2.13
-1.90
-1.46
-0.84
-0.11
0.61
1.27
1.83
2.31
2.73
3.03
3.15
2.99
2.53
1.84
1.10
0.55
0.37
0.63
1.26
2.08
2.85
3.40
3.62
3.51
3.14
2.58
1.88
1.08
0.24
-0.57
-1.24
-1.74
-2.10
-2.45
-2.92
-3.57
-4.36
-5.12
-5.69
-5.96
-5.90
-5.57
-4.98
-4.14
-3.03
-1.67
-0.18
1.24
2.38
3.12
3.43
3.39
3.10
2.61
1.95
1.16
0.33
-0.36
-0.75
-0.77
-0.50
-0.17
-0.03
-0.26
-0.83
-1.59
-2.32
-2.87
-3.20
-3.35
-3.35
-3.20
-2.85
-2.28
-1.59
-0.93
-0.44
-0.22
-0.20
-0.25
-0.23
-0.08
0.12
0.26
0.23
0.02
-0.27
-0.44
-0.32
0.19
1.07
2.16
3.21
4.01
4.43
4.47
4.26
3.93
3.58
3.22
2.77
2.16
1.37
0.44
-0.53
-1.41
-2.14
-2.71
-3.16
-3.56
-3.93
-4.22
-4.32
-4.13
-3.59
-2.77
-1.81
-0.87
-0.10
0.50
0.98
1.45
1.98
2.56
3.06
3.33
3.27
2.85
2.16
1.40
0.79
0.51
0.61
1.07
1.71
2.31
2.67
2.67
2.29
1.64
0.87
0.12
-0.49
-0.87
-0.94
-0.66
0.01
1.03
2.27
3.47
4.38
4.76
4.56
3.87
2.88
1.85
0.93
0.22
-0.27
-0.62
-0.88
-1.14
-1.41
-1.66
-1.85
-1.92
-1.82
-1.59
-1.31
-1.08
-1.02
-1.16
-1.50
-1.97
-2.51
-3.06
-3.53
-3.82
-3.81
-3.43
-2.66
-1.60
-0.44
0.60
1.34
1.71
1.73
1.50
1.19
0.92
0.82
0.94
1.29
1.80
2.40
2.96
3.40
3.64
3.69
3.58
3.40
3.30
3.39
3.75
4.32
4.97
5.43
5.50
5.06
4.17
3.00
1.75
0.55
-0.59
-1.69
-2.76
-3.76
-4.56
-5.04
-5.16
-4.98
-4.61
-4.12
-3.49
-2.64
-1.47
0.03
1.75
3.47
4.92
5.89
6.27
6.09
5.45
4.51
3.39
2.17
0.91
-0.32
-1.41
-2.25
-2.75
-2.95
-2.96
-2.99
-3.19
-3.65
-4.27
-4.89
-5.32
-5.45
-5.27
-4.85
-4.26
-3.56
-2.74
-1.81
-0.80
0.20
1.06
1.64
1.84
1.64
1.07
0.23
-0.72
-1.61
-2.25
-2.47
-2.19
-1.41
-0.24
1.13
2.49
3.64
4.45
4.80
4.67
4.09
3.15
2.00
0.81
-0.22
-0.94
-1.28
-1.27
-1.02
-0.71
-0.50
-0.44
-0.50
-0.61
-0.71
-0.84
-1.06
-1.46
-2.01
-2.64
-3.19
-3.58
-3.80
-3.91
-3.99
-4.10
-4.19
-4.19
-4.00
-3.56
-2.82
-1.79
-0.53
0.83
2.11
3.09
3.61
3.56
2.99
2.03
0.90
-0.15
-0.94
-1.35
-1.38
-1.14
-0.80
-0.46
-0.20
0.04
0.32
0.68
1.09
1.43
1.54
1.33
0.82
0.13
-0.55
-1.07
-1.44
-1.74
-2.11
-2.62
-3.21
-3.72
-3.99
-3.94
-3.59
-3.01
-2.31
-1.48
-0.51
0.60
1.73
2.66
3.12
2.91
2.03
0.68
-0.82
-2.18
-3.19
