1529456061.00
64.000000
-0.00
-0.00
-0.00
-0.00
-0.00
-0.00
-0.00
-0.00
-0.00
-0.00
0.00
0.01
0.01
-0.00
-0.03
-0.05
-0.05
0.00
0.13
0.36
0.66
1.01
1.37
1.72
2.06
2.40
2.79
3.24
3.80
4.42
5.06
5.66
6.20
6.68
7.15
7.68
8.31
9.14
10.09
11.04
11.88
12.56
13.14
13.76
14.65
15.96
17.91
20.32
22.90
25.38
27.58
29.57
31.68
34.32
37.81
42.54
48.15
54.11
59.83
64.97
69.58
74.14
79.35
85.73
93.80
103.05
112.65
121.70
129.63
136.47
142.89
150.22
157.18
166.03
177.34
191.17
206.30
219.79
227.34
224.32
207.39
175.70
131.61
78.93
21.93
-36.20
-93.94
-151.00
-207.40
-262.77
-316.22
-366.30
-412.20
-453.35
-489.32
-519.25
-541.65
-554.55
-555.96
-544.64
-520.43
-484.77
-440.11
-389.40
-335.34
-279.98
-224.62
-170.05
-117.03
-66.47
-19.78
21.55
56.37
84.24
105.59
121.55
133.52
142.64
149.51
154.13
156.13
155.11
150.79
143.12
132.54
120.18
108.10
99.02
95.54
99.12
109.19
123.07
136.90
147.12
151.74
150.76
145.65
138.26
129.97
121.36
112.50
103.45
94.50
86.12
78.64
72.16
66.21
60.29
54.11
47.81
41.89
36.91
33.27
31.01
29.83
29.13
28.26
26.68
24.12
20.61
16.43
12.12
8.23
5.18
3.03
1.53
0.20
-1.44
-3.65
-6.34
-9.14
-11.59
-13.35
-14.31
-14.60
-14.41
-13.89
-13.04
-11.72
-9.88
-7.59
-5.23
-3.28
-2.21
-2.25
-3.29
-4.94
-6.68
-8.06
-8.80
-8.86
-8.32
-7.31
-5.99
-4.49
-2.99
-1.71
-0.91
-0.73
-1.18
-2.06
-3.00
-3.62
-3.73
-3.36
-2.77
-2.26
-1.99
-1.92
-1.81
-1.43
-0.70
0.26
1.19
1.83
2.06
1.92
1.59
1.27
1.09
1.13
1.33
1.66
2.04
2.48
2.98
3.58
4.27
5.00
5.70
6.24
6.56
6.62
6.40
5.94
5.28
4.46
3.52
2.49
1.29
-0.18
-1.95
-4.00
-6.17
-8.15
-9.64
-10.39
-10.34
-9.70
-8.80
-8.08
-7.86
-8.23
-9.03
-9.89
-10.38
-10.09
-8.72
-6.13
-2.43
2.01
6.47
10.07
12.03
11.96
10.07
7.02
3.73
0.98
-0.92
-2.04
-2.72
-3.27
-3.85
-4.45
-4.99
-5.43
-5.82
-6.26
-6.78
-7.40
-7.99
-8.41
-8.49
-8.17
-7.45
-6.45
-5.39
-4.46
-3.81
-3.43
-3.24
-3.05
-2.73
-2.18
-1.38
-0.39
0.73
1.98
3.35
4.87
6.56
8.23
9.66
10.64
11.02
10.74
9.87
8.53
6.89
5.14
3.42
1.89
0.62
-0.43
-1.33
-2.18
-3.08
-4.06
-5.08
-6.03
-6.74
-7.08
-6.97
-6.47
-5.80
-5.19
-4.85
-4.83
-5.03
-5.26
-5.37
-5.29
-5.09
-4.86
-4.67
-4.50
-4.30
-4.06
-3.86
-3.82
-4.04
-4.53
-5.14
-5.66
-5.88
-5.69
-5.10
-4.18
-3.00
-1.61
-0.03
1.69
3.42
4.98
6.15
6.80
6.92
6.63
6.08
5.45
4.87
4.39
4.05
3.87
3.90
4.14
4.58
5.13
5.68
6.14
6.42
6.45
6.18
5.61
4.80
3.85
2.92
2.13
1.49
0.88
0.11
-0.95
-2.33
-3.90
-5.43
-6.77
-7.84
-8.72
-9.53
-10.34
-11.15
-11.87
-12.38
-12.60
-12.52
-12.20
-11.72
-11.19
-10.68
-10.20
-9.76
-9.28
-8.71
-8.03
-7.27
-6.53
-5.90
-5.44
-5.14
-4.95
-4.76
-4.51
-4.20
-3.88
-3.64
-3.55
-3.61
-3.82
-4.11
-4.45
-4.79
-5.12
-5.47
-5.85
-6.29
-6.76
-7.16
-7.39
-7.36
-7.08
-6.67
-6.33
-6.24
-6.48
-6.99
-7.63
-8.27
-8.91
-9.63
-10.56
-11.75
-13.17
-14.71
-16.26
-17.81
-19.39
-21.03
-22.66
-24.19
-25.51
-26.62
-27.64
-28.76
-30.16
-31.89
-33.89
-36.05
-38.25
-40.45
-42.68
-45.00
-47.47
-50.11
-52.86
-55.60
-58.11
-60.13
-61.30
-61.32
-59.96
-57.13
-52.98
-47.80
-42.03
-36.11
-30.43
-25.21
-20.59
-16.59
-13.20
-10.37
-8.05
-6.17
-4.60
-3.23
-1.94
-0.70
0.48
1.48
2.16
2.41
2.28
2.03
2.11
3.07
5.41
9.34
14.69
21.02
27.67
34.02
39.55
43.98
47.18
49.15
49.95
49.76
48.89
47.72
46.67
46.07
46.05
46.53
47.30
48.08
48.66
48.89
48.72
48.13
47.10
45.65
43.78
41.56
39.07
36.47
33.91
31.56
29.52
27.82
26.39
25.13
23.90
22.63
21.26
19.81
18.27
16.60
14.72
12.54
10.00
7.11
3.94
0.68
-2.38
-4.87
-6.37
-6.51
-5.09
-2.11
2.12
7.07
12.05
16.44
19.79
21.91
22.87
22.89
22.21
21.09
19.73
18.30
17.02
16.05
15.49
15.34
15.48
15.70
15.82
15.71
15.36
14.80
14.15
13.52
13.04
12.76
12.73
12.88
13.13
13.37
13.48
13.37
13.04
12.52
11.92
11.30
10.70
10.03
9.18
7.99
6.34
4.24
1.80
-0.76
-3.11
-4.92
-5.88
-5.78
-4.58
-2.41
0.43
3.54
6.52
9.07
11.03
12.37
13.15
13.48
13.49
13.31
13.05
12.84
12.79
12.94
13.27
13.66
13.93
13.89
13.46
12.61
11.44
10.08
8.68
7.35
6.14
5.02
3.93
2.77
1.45
-0.05
-1.69
-3.35
-4.86
-6.10
-7.04
-7.72
-8.28
-8.88
-9.63
-10.58
-11.65
-12.64
-13.25
-13.13
-11.94
-9.52
-5.96
-1.64
2.87
6.96
10.17
12.28
13.34
13.52
13.00
11.94
10.48
8.81
7.19
5.90
5.10
4.77
4.69
4.58
4.24
3.62
2.83
2.05
1.42
0.91
0.40
-0.28
-1.17
-2.19
-3.11
-3.65
-3.65
-3.11
-2.19
-1.09
-0.04
0.87
1.56
2.00
2.11
1.83
1.12
0.05
-1.24
-2.62
-3.99
-5.28
-6.39
-7.16
-7.36
-6.77
-5.33
-3.18
-0.63
1.89
4.01
5.54
6.42
6.70
6.47
5.79
4.76
3.51
2.25
1.20
0.56
0.39
0.59
0.97
1.34
1.53
1.48
1.19
0.70
0.07
-0.59
-1.15
-1.44
-1.32
-0.74
0.21
1.32
2.38
3.19
3.70
3.96
4.04
3.99
3.79
3.37
2.67
1.64
0.33
-1.22
-2.88
-4.50
-5.90
-6.87
-7.21
-6.83
-5.77
-4.19
-2.39
-0.65
0.78
1.76
2.19
2.04
1.29
0.03
-1.58
-3.23
-4.59
-5.43
-5.66
-5.37
-4.73
-3.93
-3.04
-2.08
-1.04
0.06
1.17
2.24
3.23
4.10
4.82
5.35
5.62
5.60
5.31
4.82
4.24
3.61
2.94
2.20
1.38
0.50
-0.38
-1.21
-1.99
-2.77
-3.60
-4.54
-5.58
-6.65
-7.69
-8.59
-9.20
-9.34
-8.81
-7.46
-5.34
-2.63
0.26
2.91
4.97
6.28
6.87
6.93
6.64
6.13
5.50
4.77
4.03
3.39
2.99
2.89
3.05
3.33
3.56
3.59
3.36
2.97
2.55
2.23
2.05
1.95
1.77
1.39
0.77
-0.02
-0.84
-1.55
-2.09
-2.47
-2.78
-3.15
-3.64
-4.29
-5.07
-5.88
-6.61
-7.19
-7.60
-7.89
-8.20
-8.67
-9.38
-10.38
-11.59
-12.89
-14.11
-15.05
-15.45
-15.10
-13.86
-11.77
-9.06
-6.12
-3.39
-1.23
0.20
0.97
1.24
1.22
1.07
0.86
0.67
0.60
0.83
1.51
2.69
4.26
5.95
7.46
8.51
9.00
8.97
8.57
7.97
7.31
6.67
6.08
5.56
5.09
4.64
4.15
3.55
2.81
1.98
1.15
0.44
-0.06
-0.36
-0.51
-0.63
-0.81
-1.11
-1.54
-2.03
-2.53
-2.98
-3.36
-3.69
-4.05
-4.55
-5.26
-6.20
-7.27
-8.27
-8.95
-9.07
-8.48
-7.16
-5.19
-2.81
-0.28
2.10
4.04
5.34
5.90
5.74
5.01
3.93
2.75
1.73
1.06
0.83
1.05
1.63
2.42
3.24
3.93
4.35
4.43
4.12
3.44
2.48
1.36
0.24
-0.76
-1.56
-2.15
-2.58
-2.96
-3.36
-3.83
-4.38
-4.96
-5.49
-5.90
-6.15
-6.25
-6.25
-6.23
-6.27
-6.44
-6.76
-7.24
-7.87
-8.60
-9.33
-9.88
-10.01
-9.47
-8.10
-5.93
-3.18
-0.26
2.40
4.46
5.75
6.30
6.25
5.78
5.07
4.25
3.43
2.73
2.23
1.98
1.98
2.16
2.42
2.66
2.76
2.68
2.41
2.03
1.62
1.32
1.20
1.22
1.29
1.24
0.96
0.43
-0.22
-0.85
-1.28
-1.45
-1.38
-1.18
-1.01
-0.96
-1.10
-1.41
-1.84
-2.26
-2.59
-2.72
-2.66
-2.44
-2.20
-2.08
-2.21
-2.59
-3.08
-3.33
-2.94
-1.54
1.04
4.71
9.17
14.00
18.78
23.15
26.81
29.52
31.10
31.51
30.86
29.47
27.75
26.09
24.68
23.53
22.53
21.56
20.56
19.57
18.58
17.60
16.60
15.53
14.43
13.38
12.46
11.71
11.11
10.59
10.05
9.41
8.56
7.43
6.01
4.40
2.79
1.42
0.46
-0.09
-0.40
-0.72
-1.30
-2.30
-3.74
-5.56
-7.68
-10.00
-12.35
-14.53
-16.31
-17.50
-18.06
-18.04
-17.62
-16.92
-16.02
-14.86
-13.30
-11.17
-8.45
-5.23
-1.88
1.15
3.34
4.37
4.14
2.83
0.80
-1.52
-3.77
-5.66
-7.03
-7.82
-8.07
-7.86
-7.34
-6.71
-6.16
-5.85
-5.85
-6.15
-6.65
-7.22
-7.71
-8.03
-8.16
-8.15
-8.08
-7.98
-7.85
-7.61
-7.22
-6.67
-6.07
-5.61
-5.46
-5.72
-6.32
-7.08
-7.77
-8.26
-8.64
-9.28
-10.71
-13.45
-17.78
-23.65
-30.61
-38.00
-45.05
-51.08
-55.56
-58.08
-58.35
-56.28
-52.02
-46.03
-39.04
-31.84
-25.13
-19.35
-14.66
-11.04
-8.33
-6.26
-4.45
-2.40
0.37
4.13
8.75
13.69
18.18
21.48
23.25
23.55
22.78
21.43
19.84
18.10
16.13
13.86
11.37
8.91
6.80
5.25
4.21
3.38
2.36
0.87
-1.05
-2.97
-4.15
-3.76
-1.12
4.08
11.53
20.31
28.95
35.72
39.14
38.42
33.73
26.13
17.14
8.10
-0.19
-7.58
-14.25
-20.25
-25.23
-28.52
-29.56
-28.32
-25.51
-22.30
-19.78
-18.46
-18.09
-17.91
-17.14
-15.29
-12.20
-7.97
-2.76
3.07
8.75
13.04
14.50
12.17
6.13
-2.37
-11.30
-18.75
-23.64
-25.96
-26.43
-25.81
-24.33
-21.63
-16.98
-9.99
-1.01
8.64
17.06
22.40
23.54
20.58
14.73
7.87
1.65
-3.07
-6.44
-9.25
-12.35
-16.07
-20.19
-24.22
-27.81
-30.98
-34.02
-37.14
-40.17
-42.51
-43.42
-42.38
-39.40
-35.03
-30.22
-25.85
-22.53
-20.44
-19.36
-18.89
-18.56
-18.00
-17.03
-15.64
-13.96
-12.16
-10.38
-8.66
-6.97
-5.25
-3.50
-1.81
-0.32
0.80
1.46
1.68
1.57
1.33
1.14
1.16
1.47
2.07
2.87
3.73
4.51
5.12
5.51
5.67
5.60
5.31
4.81
4.13
3.30
2.38
1.34
0.13
-1.32
-2.98
-4.64
-5.92
-6.34
-5.52
-3.34
0.00
4.06
8.29
12.23
15.60
18.28
20.28
21.61
22.30
22.38
21.93
21.17
20.40
19.93
20.00
20.66
21.77
22.99
23.92
24.29
23.98
23.08
21.85
20.56
19.40
18.43
17.60
16.80
15.94
14.99
13.96
12.92
11.96
11.11
10.39
9.74
9.08
8.34
7.45
6.43
5.30
4.11
2.92
1.75
0.61
-0.51
-1.66
-2.91
-4.33
-5.92
-7.58
-9.04
-9.92
-9.83
-8.52
-5.95
-2.36
1.81
6.01
9.77
12.72
14.68
15.60
15.57
14.72
13.29
11.58
9.95
8.75
8.19
8.34
8.99
9.83
10.51
10.80
10.65
10.19
9.61
9.04
8.55
8.10
7.65
7.21
6.83
6.59
6.49
6.52
6.61
6.74
6.90
7.07
7.21
7.22
7.01
6.51
5.79
4.96
4.16
3.43
2.72
1.88
0.78
-0.68
-2.49
-4.56
-6.77
-8.93
-10.81
-12.16
-12.72
-12.29
-10.80
-8.37
-5.36
-2.24
0.54
2.66
4.00
4.63
4.72
4.40
3.78
2.93
1.94
0.96
0.23
-0.07
0.17
0.91
1.98
3.15
4.21
5.09
5.76
6.27
6.61
6.76
6.66
6.28
5.70
5.05
4.48
4.07
3.84
3.67
3.44
3.07
2.50
1.75
0.90
0.02
-0.86
-1.72
-2.62
-3.65
-4.89
-6.35
-7.96
-9.50
-10.69
-11.25
-10.95
-9.75
-7.75
-5.26
-2.65
-0.31
1.45
2.49
2.80
2.51
1.82
0.95
0.11
-0.53
-0.84
-0.80
-0.42
0.18
0.88
1.53
2.08
2.51
2.89
3.31
3.79
4.30
4.69
4.79
4.43
3.59
2.36
0.97
-0.36
-1.47
-2.39
-3.22
-4.12
-5.20
-6.42
-7.67
-8.74
-9.51
-9.93
-10.09
-10.17
-10.34
-10.71
-11.25
-11.72
-11.80
-11.15
-9.55
-7.00
-3.77
-0.29
3.00
5.73
7.71
8.89
9.34
9.13
8.41
7.32
6.11
5.02
4.23
3.83
3.73
3.79
3.84
3.75
3.47
3.03
2.49
1.93
1.41
0.98
0.59
0.14
-0.48
-1.32
-2.38
-3.58
-4.78
-5.88
-6.76
-7.35
-7.62
-7.55
-7.19
-6.60
-5.89
-5.15
-4.46
-3.86
-3.40
-3.12
-3.11
-3.44
-4.06
-4.77
-5.25
-5.13
-4.15
-2.25
0.39
3.40
6.35
8.89
10.84
12.15
12.86
13.01
12.66
11.87
10.77
9.59
8.58
7.97
7.85
8.18
8.79
9.51
10.20
10.80
11.26
11.57
11.73
11.76
11.73
11.71
11.74
11.82
11.91
11.92
11.88
11.89
12.11
12.69
13.64
14.86
16.17
17.41
18.46
19.28
19.73
19.57
18.39
15.81
11.63
6.13
0.03
-5.60
-9.69
-11.48
-10.75
-7.84
-3.46
1.45
5.96
9.21
10.57
9.65
6.45
1.41
-4.65
-10.67
-15.69
-19.05
-20.53
-20.33
-18.82
-16.44
-13.55
-10.43
-7.34
-4.54
-2.26
-0.59
0.49
1.14
1.61
2.07
2.69
3.52
4.58
5.81
7.07
8.11
8.64
8.39
7.23
5.20
2.50
-0.62
-3.89
-7.10
-10.05
-12.50
-14.22
-15.04
-14.96
-14.17
-13.00
-11.82
-10.89
-10.29
-10.00
-9.95
-10.10
-10.44
-10.95
-11.54
-12.05
-12.25
-11.91
-10.95
-9.37
-7.33
-5.02
-2.62
-0.25
2.06
4.36
6.78
9.46
12.50
15.90
19.54
23.20
26.59
29.40
31.33
32.07
31.37
28.97
24.75
18.81
11.53
3.57
-4.30
-11.41
-17.45
-22.48
-26.88
-31.04
-35.16
-39.08
-42.36
-44.46
-44.91
-43.56
-40.51
-36.14
-30.94
-25.45
-20.16
-15.45
-11.50
-8.29
-5.57
-2.89
0.33
4.66
10.50
17.91
26.49
35.36
43.38
49.45
52.86
53.47
51.74
48.56
44.87
41.49
38.97
37.59
37.48
38.61
40.73
43.37
45.94
47.86
48.79
48.58
47.14
44.18
39.05
30.99
19.59
5.20
-10.89
-26.80
-40.72
-51.52
-59.04
-63.93
-67.17
-69.62
-71.74
-73.60
-75.02
-75.66
-75.12
-73.02
-69.16
-63.56
-56.60
-48.91
-41.19
-34.04
-27.80
-22.56
-18.24
-14.64
-11.57
-8.86
-6.40
-4.11
-1.98
0.01
1.85
3.52
4.97
6.12
6.90
7.29
7.30
6.89
5.99
4.45
2.15
-0.89
-4.35
-7.71
-10.37
-11.83
-11.95
-10.91
-9.15
-7.16
-5.34
-3.88
-2.84
-2.16
-1.78
-1.68
-1.85
-2.34
-3.17
-4.31
-5.65
-7.03
-8.22
-9.02
-9.33
-9.16
-8.65
-8.09
-7.83
-8.20
-9.42
-11.58
-14.61
-18.22
-21.99
-25.30
-27.47
-27.92
-26.37
-22.93
-18.17
-12.88
-7.79
-3.36
0.31
3.41
6.17
8.76
11.20
13.43
15.37
16.98
18.26
19.19
19.74
19.87
19.56
18.86
17.88
16.84
15.97
15.51
15.60
16.23
17.22
18.27
19.09
19.45
19.27
18.54
17.24
15.37
12.87
9.74
6.05
1.96
-2.30
-6.47
-10.25
-13.37
-15.55
-16.55
-16.32
-14.95
-12.72
-10.07
-7.40
-5.07
-3.25
-2.02
-1.30
-1.00
-0.98
-1.09
-1.21
-1.30
-1.36
-1.50
-1.81
-2.38
-3.14
-3.98
-4.73
-5.33
-5.84
-6.46
-7.46
-9.08
-11.49
-14.68
-18.43
-22.23
-25.35
-26.96
-26.37
-23.28
-17.95
-11.12
-3.73
3.39
9.79
15.40
20.39
24.94
29.04
32.53
35.17
36.80
37.42
37.22
36.43
35.32
34.10
32.98
32.13
31.76
32.03
33.05
34.85
37.37
40.54
44.26
48.49
53.07
57.71
61.85
64.71
65.45
63.35
58.03
49.56
38.35
25.11
10.69
-3.95
-17.85
-30.13
-40.09
-47.37
-51.89
-53.87
-53.56
-51.24
-47.25
-42.08
-36.46
-31.34
-27.58
-25.67
-25.51
-26.47
-27.67
-28.35
-28.17
-27.32
-26.39
-26.10
-27.04
-29.53
-33.54
-38.73
-44.54
-50.30
-55.32
-59.00
-60.91
-60.90
-59.12
-56.04
-52.27
-48.51
-45.24
-42.68
-40.75
-39.22
-37.81
-36.42
-35.10
-34.04
-33.37
-33.11
-33.13
-33.14
-32.77
-31.63
-29.36
-25.79
-20.99
-15.31
-9.28
-3.43
1.87
6.51
10.55
14.09
17.18
19.81
22.07
24.27
26.85
30.27
34.65
39.65
44.54
48.40
50.53
50.68
49.08
46.30
43.02
39.84
37.12
34.98
33.38
32.16
31.12
30.09
28.94
27.56
25.86
23.69
20.89
17.33
13.09
8.46
3.99
0.32
-2.03
-2.80
-2.10
-0.31
2.14
4.86
7.59
10.20
12.55
14.52
15.99
16.92
17.35
17.44
17.33
17.15
16.92
16.67
16.39
16.10
15.83
15.59
15.38
15.17
14.92
14.59
14.14
13.54
12.78
11.92
11.03
10.20
9.47
8.85
8.23
7.51
6.61
5.52
4.32
3.13
2.05
1.15
0.39
-0.28
-0.96
-1.72
-2.63
-3.68
-4.82
-5.98
-7.09
-8.09
-8.97
-9.83
-10.77
-11.93
-13.32
-14.77
-15.92
-16.31
-15.54
-13.41
-10.04
-5.76
-1.06
3.60
7.86
11.48
14.34
16.37
17.58
18.04
17.87
17.26
16.45
15.66
15.03
14.62
14.39
14.18
13.90
13.48
13.00
12.57
12.31
12.23
12.25
12.19
11.94
11.47
10.84
10.16
9.50
8.83
8.11
7.25
6.20
4.93
3.49
1.90
0.27
-1.27
-2.56
-3.49
-4.10
-4.56
-5.10
-5.91
-7.03
-8.32
-9.56
-10.63
-11.55
-12.48
-13.62
-15.07
-16.80
-18.61
-20.23
-21.30
-21.49
-20.54
-18.32
-14.93
-10.68
-6.03
-1.45
2.70
6.23
9.08
11.24
12.69
13.42
13.48
13.04
12.36
11.72
11.28
11.07
10.96
10.76
10.38
9.81
9.17
8.57
8.07
7.65
7.23
6.77
6.27
5.79
5.37
5.04
4.72
4.32
3.71
2.79
1.56
0.07
-1.54
-3.07
-4.35
-5.28
-5.87
-6.25
-6.61
-7.13
-7.89
-8.84
-9.86
-10.81
-11.55
-12.06
-12.38
-12.68
-13.16
-14.00
-15.28
-16.88
-18.45
-19.50
-19.46
-17.98
-14.98
-10.78
-5.92
-1.07
3.23
6.70
9.29
11.16
12.47
13.32
13.77
13.83
13.56
13.03
12.30
11.39
10.27
8.98
7.66
6.56
5.91
5.81
6.14
6.60
6.84
6.64
5.98
4.99
3.89
2.82
1.86
0.99
0.16
-0.65
-1.42
-2.09
-2.62
-3.02
-3.35
-3.76
-4.43
-5.45
-6.84
-8.47
-10.14
-11.60
-12.73
-13.50
-14.06
-14.60
-15.30
-16.29
-17.57
-19.07
-20.59
-21.89
-22.65
-22.55
-21.30
-18.76
-14.97
-10.20
-4.93
0.32
5.06
8.92
11.74
13.57
14.57
14.94
14.87
14.47
13.76
12.76
11.59
10.41
9.46
8.89
8.68
8.67
8.63
8.34
7.76
6.98
6.13
5.32
4.56
3.75
2.79
1.63
0.35
-0.95
-2.15
-3.23
-4.21
-5.16
-6.11
-7.05
-7.94
-8.79
-9.62
-10.47
-11.34
-12.17
-12.87
-13.38
-13.71
-13.95
-14.21
-14.63
-15.28
-16.18
-17.32
-18.56
-19.63
-20.16
-19.78
-18.21
-15.41
-11.62
-7.21
-2.59
1.92
6.07
9.67
12.52
14.46
15.41
15.45
14.78
13.70
12.48
11.29
10.22
9.33
8.65
8.23
8.02
7.94
7.84
7.61
7.24
6.80
6.41
6.13
5.91
5.59
5.07
4.34
3.54
2.83
2.33
1.97
1.57
0.92
-0.08
-1.41
-2.90
-4.41
-5.85
-7.23
-8.57
-9.85
-11.04
-12.09
-13.07
-14.11
-15.40
-16.98
-18.68
-20.09
-20.67
-19.97
-17.74
-14.11
-9.44
-4.28
0.81
5.39
9.19
12.09
14.09
15.23
15.58
15.28
14.52
13.51
12.52
11.72
11.19
10.84
10.52
10.09
9.48
8.79
8.16
7.76
7.65
7.80
8.05
8.21
8.11
7.66
6.85
5.76
4.48
3.15
1.87
0.70
-0.35
-1.30
-2.25
-3.24
-4.33
-5.47
-6.60
-7.62
-8.53
-9.39
-10.36
-11.57
-13.06
-14.72
-16.28
-17.41
-17.77
-17.13
-15.35
-12.49
-8.75
-4.49
-0.14
3.87
7.25
9.83
11.61
12.68
13.13
13.00
12.36
11.28
9.93
8.56
7.38
6.55
6.07
5.81
5.65
5.47
5.25
5.04
4.87
4.73
4.57
4.32
3.96
3.51
3.01
2.45
1.84
1.14
0.37
-0.45
-1.27
-2.06
-2.85
-3.68
-4.58
-5.54
-6.51
-7.50
-8.54
-9.69
-10.96
-12.22
-13.22
-13.68
-13.32
-12.03
-9.83
-6.83
-3.27
0.56
4.31
7.62
10.19
11.84
12.57
12.52
11.91
10.91
9.66
8.25
6.80
5.47
4.44
3.80
3.58
3.73
4.14
4.73
5.38
5.95
6.28
6.21
5.68
4.76
3.66
2.58
1.66
0.92
0.28
-0.40
-1.18
-2.08
-3.09
-4.14
-5.19
-6.16
-7.08
-7.98
-9.00
-10.25
-11.75
-13.30
-14.51
-14.87
-14.02
-11.88
-8.71
-5.02
-1.32
2.02
4.81
7.05
8.73
9.85
10.34
10.17
9.39
8.19
6.83
5.59
4.70
4.27
4.26
4.49
4.73
4.79
4.57
4.16
3.72
3.43
3.32
3.26
3.10
2.69
2.04
1.25
0.45
-0.30
-1.05
-1.92
-2.92
-3.97
-4.88
-5.50
-5.81
-5.98
-6.27
-6.89
-7.89
-9.09
-10.16
-10.76
-10.63
-9.66
-7.89
-5.50
-2.73
0.12
2.79
5.02
6.64
7.60
7.92
7.71
7.10
6.25
5.26
4.27
3.37
2.67
2.22
2.04
2.06
2.18
2.32
2.45
2.57
2.70
2.82
2.80
2.53
1.91
0.95
-0.26
-1.54
-2.75
-3.78
-4.59
-5.16
-5.50
-5.64
-5.72
-5.93
-6.46
-7.38
-8.55
-9.63
-10.17
-9.81
-8.46
-6.29
-3.69
-1.08
1.25
3.17
4.73
6.00
7.02
7.71
7.89
7.42
6.31
4.72
3.03
1.58
0.64
0.30
0.44
0.88
1.44
2.03
2.60
3.10
3.42
3.41
2.98
2.13
1.05
-0.04
-0.91
-1.49
-1.86
-2.21
-2.75
-3.60
-4.75
-6.08
-7.44
-8.69
-9.71
-10.42
-10.69
-10.39
-9.40
-7.70
-5.42
-2.84
-0.29
1.94
3.72
5.05
5.99
6.60
6.83
6.62
5.90
4.75
3.39
2.11
1.19
0.79
0.89
1.30
1.84
2.31
2.67
2.93
3.13
3.28
3.30
3.09
2.60
1.85
0.95
0.03
-0.85
-1.71
-2.65
-3.72
-4.94
-6.22
-7.45
-8.56
-9.50
-10.22
-10.55
-10.26
-9.15
-7.15
-4.47
-1.52
1.21
3.40
4.95
5.94
6.53
6.80
6.69
6.14
5.16
3.94
2.83
2.14
2.01
2.35
2.88
3.28
3.36
3.11
2.69
2.27
1.98
1.81
1.64
1.34
0.81
0.06
-0.85
-1.83
-2.80
-3.75
-4.71
-5.72
-6.79
-7.87
-8.82
-9.46
-9.60
-9.07
-7.79
-5.83
-3.33
-0.57
2.13
4.45
6.16
7.12
7.37
7.04
6.35
5.52
4.72
4.03
3.48
3.02
2.66
2.41
2.33
2.44
2.74
3.16
3.58
3.86
3.88
3.58
2.93
2.02
0.96
-0.07
-0.95
-1.60
-2.06
-2.47
-2.98
-3.68
-4.57
-5.54
-6.40
-6.94
-6.97
-6.38
-5.13
-3.33
-1.20
0.99
2.96
4.51
5.57
6.16
6.28
5.98
5.26
4.21
3.01
1.90
1.11
0.75
0.79
1.04
1.32
1.51
1.59
1.61
1.60
1.52
1.30
0.85
0.20
-0.56
-1.26
-1.81
-2.18
-2.46
-2.79
-3.23
-3.82
-4.49
-5.17
-5.77
-6.19
-6.31
-5.96
-5.02
-3.46
-1.43
0.78
2.83
4.45
5.52
6.09
6.25
6.08
5.66
5.05
4.36
3.71
3.20
2.88
2.71
2.66
2.66
2.68
2.70
2.67
2.52
2.19
1.67
0.98
0.18
-0.69
-1.60
-2.51
-3.34
-4.00
-4.42
-4.62
-4.74
-4.99
-5.54
-6.45
-7.58
-8.67
-9.46
-9.68
-9.18
-7.92
-5.96
-3.49
-0.82
1.69
3.76
5.21
6.05
6.38
6.35
6.05
5.52
4.77
3.89
3.06
2.51
2.44
2.88
3.68
4.53
5.11
5.22
4.86
4.18
3.41
2.73
2.18
1.68
1.13
0.44
-0.35
-1.16
-1.88
-2.44
-2.85
-3.20
-3.57
-4.03
-4.65
-5.42
-6.36
-7.38
-8.37
-9.15
-9.51
-9.24
-8.22
-6.44
-4.06
-1.37
1.27
3.52
5.15
6.10
6.47
6.42
6.10
5.63
5.07
4.50
4.03
3.82
3.96
4.43
5.06
5.66
6.03
6.08
5.83
5.37
4.80
4.19
3.60
3.08
2.63
2.26
1.91
1.52
1.04
0.46
-0.19
-0.91
-1.66
-2.45
-3.25
-4.03
-4.74
-5.38
-6.00
-6.73
-7.64
-8.72
-9.77
-10.48
-10.48
-9.52
-7.60
-4.95
-1.98
0.89
3.30
5.10
6.26
6.83
6.91
6.58
5.93
5.13
4.36
3.82
3.62
3.77
4.16
4.61
4.93
5.00
4.79
4.34
3.78
3.23
2.79
2.49
2.32
2.21
2.07
1.84
1.47
0.91
0.18
-0.69
-1.62
-2.49
-3.18
-3.60
-3.80
-3.90
-4.11
-4.60
-5.47
-6.62
-7.82
-8.75
-9.13
-8.76
-7.63
-5.87
-3.70
-1.38
0.86
2.89
4.57
5.83
6.56
6.71
6.29
5.44
4.39
3.42
2.80
2.64
2.95
3.60
4.39
5.14
5.72
6.04
6.06
5.80
5.33
4.71
4.03
3.32
2.58
1.79
0.98
0.19
-0.50
-1.02
-1.38
-1.65
-1.96
-2.41
-3.03
-3.75
-4.44
-5.00
-5.40
-5.75
-6.16
-6.75
-7.57
-8.59
-9.69
-10.75
-11.59
-12.02
-11.81
-10.81
-8.95
-6.38
-3.42
-0.49
2.00
3.83
4.94
5.47
5.63
5.59
5.46
5.29
5.12
4.98
4.91
4.92
5.00
5.14
5.28
5.41
5.51
5.58
5.59
5.54
5.41
5.18
4.86
4.45
3.95
3.39
2.78
2.18
1.61
1.08
0.57
0.05
-0.54
-1.20
-1.91
-2.60
-3.24
-3.76
-4.17
-4.47
-4.73
-5.04
-5.53
-6.32
-7.45
-8.87
-10.37
-11.64
-12.32
-12.12
-10.91
-8.77
-6.01
-3.03
-0.22
2.13
3.90
5.07
5.69
5.86
5.66
5.22
4.71
4.30
4.10
4.15
4.40
4.72
4.97
5.09
5.07
4.99
4.90
4.87
4.87
4.82
4.63
4.21
3.54
2.70
1.83
1.10
0.60
0.36
0.30
0.27
0.15
-0.15
-0.67
-1.36
-2.14
-2.91
-3.58
-4.11
-4.52
-4.90
-5.43
-6.25
-7.40
-8.79
-10.14
-11.11
-11.38
-10.77
-9.27
-7.06
-4.39
-1.55
1.19
3.59
5.45
6.62
7.06
6.85
6.16
5.26
4.38
3.70
3.32
3.27
3.50
3.91
4.36
4.70
4.83
4.73
4.50
4.26
4.10
4.04
3.97
3.77
3.34
2.70
1.97
1.28
0.76
0.43
0.25
0.14
0.02
-0.21
-0.61
-1.22
-2.03
-2.94
-3.81
-4.53
-5.04
-5.37
-5.67
-6.08
-6.74
-7.66
-8.80
-10.01
-11.08
-11.79
-11.93
-11.32
-9.89
-7.73
-5.04
-2.11
0.74
3.21
5.12
6.37
6.93
6.87
6.30
5.44
4.53
3.82
3.50
3.66
4.24
5.09
6.00
6.76
7.21
7.32
7.14
6.77
6.35
5.99
5.68
5.37
4.94
4.31
3.51
2.68
1.99
1.53
1.28
1.05
0.70
0.14
-0.54
-1.18
-1.66
-1.97
-2.20
-2.52
-3.03
-3.74
-4.56
-5.40
-6.20
-6.97
-7.74
-8.56
-9.42
-10.25
-10.92
-11.25
-11.01
-10.01
-8.22
-5.76
-2.96
-0.22
2.09
3.77
4.82
5.35
5.50
5.36
4.93
4.24
3.42
2.69
2.30
2.41
3.00
3.83
4.60
5.06
5.13
4.91
4.58
4.27
4.00
3.70
3.29
2.78
2.25
1.84
1.59
1.52
1.52
1.50
1.37
1.08
0.63
0.00
-0.76
-1.60
-2.42
-3.16
-3.83
-4.47
-5.18
-5.99
-6.86
-7.71
-8.48
-9.12
-9.60
-9.80
-9.53
-8.56
-6.78
-4.30
-1.51
1.16
3.32
4.83
5.75
6.25
6.44
6.31
5.83
4.99
3.99
3.10
2.66
2.81
3.49
4.45
5.37
5.99
6.24
6.18
5.95
5.67
5.37
5.02
4.52
3.80
2.87
1.80
0.75
-0.17
-0.85
-1.27
-1.46
-1.50
-1.46
-1.46
-1.57
-1.82
-2.23
-2.78
-3.41
-4.05
-4.65
-5.17
-5.65
-6.18
-6.85
-7.78
-8.96
-10.24
-11.29
-11.71
-11.21
-9.69
-7.35
-4.58
-1.78
0.73
2.84
4.56
5.91
6.87
7.42
7.49
7.13
6.47
5.70
5.03
4.60
4.49
4.66
5.00
5.35
5.57
5.60
5.45
5.21
4.94
4.68
4.38
3.97
3.44
2.81
2.18
1.62
1.15
0.79
0.51
0.30
0.16
0.05
-0.09
-0.39
-0.92
-1.67
-2.51
-3.26
-3.79
-4.10
-4.30
-4.54
-4.96
-5.62
-6.48
-7.47
-8.46
-9.34
-9.89
-9.93
-9.28
-7.83
-5.70
-3.11
-0.42
2.04
4.02
5.40
6.14
6.26
5.82
4.97
3.95
3.03
2.47
2.39
2.76
3.38
4.02
4.48
4.74
4.81
4.78
4.67
4.45
4.07
3.51
2.84
2.17
1.61
1.24
1.03
0.92
0.81
0.57
0.16
-0.45
-1.16
-1.86
-2.40
-2.73
-2.85
-2.89
-3.00
-3.32
-3.93
-4.86
-6.04
-7.34
-8.56
-9.42
-9.62
-8.92
-7.26
-4.77
-1.84
1.06
3.45
5.06
5.86
6.02
5.81
5.45
5.06
4.62
4.11
3.58
3.16
3.03
3.26
3.79
4.41
4.89
5.10
5.05
4.85
4.62
4.41
4.20
3.89
3.45
2.88
2.27
1.70
1.24
0.85
0.47
0.00
-0.63
-1.42
-2.29
-3.09
-3.70
-4.07
-4.23
-4.30
-4.44
-4.76
-5.35
-6.27
-7.47
-8.82
-10.08
-10.94
-11.09
-10.31
-8.60
-6.15
-3.30
-0.44
2.14
4.24
5.79
6.78
7.22
7.16
6.69
5.95
5.14
4.45
4.00
3.83
3.89
4.12
4.45
4.81
5.10
5.25
5.19
4.92
4.51
4.02
3.52
2.99
2.40
1.69
0.90
0.15
-0.44
-0.76
-0.83
-0.78
-0.78
-0.95
-1.30
-1.74
-2.20
-2.66
-3.15
-3.75
-4.48
-5.33
-6.20
-7.04
-7.79
-8.42
-8.88
-9.03
-8.73
-7.82
-6.25
-4.14
-1.71
0.73
2.92
4.63
5.77
6.28
6.21
5.69
4.91
4.10
3.47
3.17
3.21
3.54
3.96
4.28
4.36
4.19
3.85
3.51
3.28
3.20
3.17
3.02
2.62
1.94
1.10
0.28
-0.37
-0.80
-1.09
-1.35
-1.70
-2.13
-2.54
-2.83
-2.96
-2.99
-3.09
-3.40
-4.00
-4.86
-5.86
-6.79
-7.49
-7.76
-7.45
-6.50
-4.93
-2.91
-0.70
1.42
3.23
4.60
5.51
5.95
5.91
5.37
4.39
3.14
1.88
0.91
0.44
0.51
1.03
1.77
2.55
3.23
3.74
4.04
4.09
3.85
3.30
2.48
1.50
0.50
-0.37
-1.00
-1.38
-1.54
-1.58
-1.64
-1.85
-2.27
-2.88
-3.58
-4.25
-4.83
-5.33
-5.87
-6.56
-7.42
-8.35
-9.11
-9.46
-9.22
-8.36
-6.96
-5.18
-3.16
-1.04
1.02
2.85
4.26
5.15
5.49
5.42
5.11
4.72
4.35
3.99
3.65
3.39
3.32
3.56
4.12
4.87
5.58
6.01
6.03
5.66
5.03
4.25
3.43
2.59
1.77
1.04
0.48
0.11
-0.09
-0.23
-0.44
-0.80
-1.32
-1.95
-2.62
-3.31
-4.02
-4.74
-5.45
-6.13
-6.76
-7.37
-7.98
-8.56
-8.95
-8.97
-8.39
-7.15
-5.33
-3.13
-0.83
1.35
3.26
4.85
6.04
6.78
7.03
6.81
6.21
5.43
4.68
4.15
3.97
4.12
4.52
5.03
5.46
5.68
5.63
5.30
4.77
4.12
3.46
2.84
2.29
1.83
1.45
1.13
0.86
0.61
0.34
0.02
-0.34
-0.77
-1.26
-1.82
-2.44
-3.07
-3.61
-3.97
-4.13
-4.19
-4.33
-4.80
-5.71
-6.97
-8.29
-9.32
-9.74
-9.39
-8.29
-6.58
-4.43
-2.02
0.44
2.72
4.53
5.65
5.99
5.65
4.87
3.98
3.24
2.79
2.66
2.77
3.03
3.39
3.77
4.13
4.40
4.53
4.48
4.27
3.92
3.47
2.96
2.40
1.81
1.25
0.75
0.33
-0.03
-0.40
-0.85
-1.39
-1.99
-2.57
-3.03
-3.36
-3.64
-3.95
-4.43
-5.15
-6.14
-7.35
-8.62
-9.69
-10.28
-10.09
-9.01
-7.10
-4.62
-1.92
0.68
2.93
4.65
5.78
6.24
6.07
5.33
4.25
3.15
2.34
2.04
2.27
2.90
3.66
4.33
4.75
4.88
4.79
4.56
4.29
4.05
3.84
3.64
3.34
2.86
2.19
1.38
0.55
-0.16
-0.68
-1.02
-1.26
-1.52
-1.83
-2.14
-2.41
-2.60
-2.79
-3.07
-3.56
-4.25
-5.07
-5.90
-6.67
-7.40
-8.12
-8.85
-9.48
-9.78
-9.43
-8.23
-6.13
-3.37
-0.35
2.44
4.63
6.02
6.64
6.63
6.23
5.64
5.01
4.44
4.00
3.72
3.63
3.70
3.90
4.16
4.39
4.52
4.51
4.36
4.13
3.86
3.59
3.31
2.98
2.55
2.01
1.36
0.68
0.06
-0.42
-0.74
-0.91
-0.98
-1.02
-1.10
-1.28
-1.66
-2.26
-3.02
-3.82
-4.51
-4.99
-5.26
-5.48
-5.84
-6.48
-7.41
-8.38
-9.07
-9.15
-8.39
-6.82
-4.63
-2.13
0.34
2.52
4.24
5.37
5.87
5.74
5.09
4.11
3.09
2.28
1.82
1.74
1.93
2.29
2.72
3.21
3.72
4.20
4.51
4.54
4.24
3.71
3.13
2.67
2.38
2.19
1.91
1.40
0.63
-0.30
-1.17
-1.77
-1.98
-1.86
-1.60
-1.48
-1.73
-2.43
-3.48
-4.67
-5.77
-6.66
-7.35
-7.90
-8.34
-8.59
-8.46
-7.74
-6.34
-4.35
-2.00
0.36
2.43
3.99
4.97
5.40
5.39
5.08
4.61
4.09
3.61
3.25
3.07
3.12
3.41
3.88
4.40
4.84
5.12
5.19
5.10
4.88
4.55
4.08
3.43
2.62
1.73
0.91
0.25
-0.25
-0.69
-1.21
-1.89
-2.70
-3.54
-4.25
-4.77
-5.09
-5.29
-5.51
-5.84
-6.35
-7.07
-8.01
-9.08
-10.16
-11.02
-11.39
-11.07
-9.91
-7.97
-5.40
-2.48
0.48
3.15
5.26
6.67
7.31
7.27
6.73
5.90
4.99
4.13
3.42
2.92
2.70
2.83
3.31
4.04
4.81
5.38
5.57
5.34
4.78
4.07
3.35
2.75
2.28
1.92
1.63
1.36
1.07
0.71
0.25
-0.31
-0.95
-1.60
-2.20
-2.71
-3.12
-3.42
-3.62
-3.75
-3.91
-4.23
-4.87
-5.91
-7.22
-8.50
-9.32
-9.26
-8.14
-6.05
-3.38
-0.63
1.78
3.62
4.85
5.59
5.90
5.85
5.45
4.76
3.95
3.24
2.81
2.75
3.01
3.43
3.87
4.23
4.49
4.67
4.81
4.90
4.89
4.74
4.37
3.78
3.00
2.13
1.27
0.49
-0.19
-0.81
-1.40
-2.01
-2.60
-3.10
-3.47
-3.70
-3.86
-4.05
-4.35
-4.78
-5.32
-5.91
-6.49
-6.93
-7.06
-6.64
-5.52
-3.68
-1.33
1.19
3.49
5.29
6.44
6.96
6.89
6.29
5.26
3.97
2.71
1.77
1.39
1.58
2.20
2.96
3.62
4.00
4.10
3.97
3.70
3.36
2.97
2.54
2.02
1.41
0.69
-0.11
-0.91
-1.62
-2.16
-2.51
-2.72
-2.90
-3.18
-3.63
-4.26
-5.03
-5.90
-6.81
-7.74
-8.62
-9.32
-9.60
-9.19
-7.93
-5.84
-3.18
-0.34
2.24
4.20
5.41
5.90
5.83
5.42
4.90
4.41
4.01
3.74
3.57
3.50
3.55
3.71
3.98
4.29
4.56
4.67
4.56
4.23
3.76
3.25
2.77
2.33
1.87
1.32
0.66
-0.11
-0.88
-1.55
-2.00
-2.18
-2.10
-1.89
-1.71
-1.75
-2.15
-2.97
-4.19
-5.68
-7.26
-8.65
-9.56
-9.69
-8.85
-7.03
-4.44
-1.46
1.41
3.77
5.38
6.23
6.44
6.20
5.68
5.03
4.34
3.72
3.24
2.96
2.92
3.09
3.41
3.82
4.22
4.56
4.77
4.79
4.59
4.18
3.59
2.89
2.14
1.43
0.81
0.30
-0.15
-0.61
-1.13
-1.71
-2.30
-2.82
-3.24
-3.62
-4.08
-4.76
-5.72
-6.88
-8.07
-9.03
-9.51
-9.32
-8.36
-6.64
-4.33
-1.70
0.86
2.96
4.35
4.93
4.83
4.27
3.47
2.64
1.92
1.44
1.31
1.61
2.32
3.28
4.27
5.05
5.48
5.53
5.25
4.73
4.02
3.16
2.24
1.34
0.55
-0.12
-0.67
-1.19
-1.71
-2.20
-2.60
-2.85
-2.96
-3.02
-3.15
-3.45
-3.97
-4.70
-5.59
-6.52
-7.34
-7.85
-7.80
-7.01
-5.46
-3.33
-0.97
1.24
3.04
4.29
5.02
5.32
5.27
4.91
4.31
3.59
2.93
2.51
2.42
2.63
2.97
3.29
3.47
3.50
3.42
3.29
3.11
2.87
2.56
2.17
1.71
1.21
0.68
0.12
-0.46
-1.03
-1.59
-2.10
-2.58
-3.02
-3.40
-3.73
-4.01
-4.30
-4.73
-5.41
-6.35
-7.44
-8.39
-8.82
-8.44
-7.14
-5.06
-2.54
0.03
2.32
4.18
5.55
6.41
6.75
6.56
5.90
4.98
4.09
3.52
3.41
3.73
4.29
4.87
5.32
5.61
5.76
5.82
5.78
5.58
5.16
4.49
3.58
2.54
1.48
0.55
-0.14
-0.53
-0.66
-0.66
-0.68
-0.87
-1.31
-1.96
-2.75
-3.55
-4.29
-4.96
-5.59
-6.22
-6.85
-7.44
-7.84
-7.84
-7.26
-5.98
-4.06
-1.75
0.60
2.64
4.16
5.13
5.64
5.80
5.68
5.29
4.65
3.89
3.22
2.85
2.89
3.29
3.84
4.33
4.59
4.61
4.42
4.07
3.57
2.89
2.02
1.04
0.06
-0.77
-1.35
-1.67
-1.83
-1.94
-2.12
-2.42
-2.85
-3.35
-3.86
-4.30
-4.66
-4.98
-5.34
-5.79
-6.32
-6.77
-6.90
-6.47
-5.37
-3.69
-1.68
0.34
2.10
3.48
4.45
5.06
5.33
5.26
4.85
4.16
3.33
2.57
2.08
1.94
2.12
2.48
2.89
3.23
3.45
3.55
3.54
3.41
3.13
2.71
2.20
1.65
1.09
0.50
-0.15
-0.87
-1.60
-2.25
-2.73
-3.06
-3.30
-3.56
-3.89
-4.30
-4.76
-5.28
-5.95
-6.85
-7.97
-9.16
-10.05
-10.23
-9.43
-7.62
-5.04
-2.14
0.64
2.96
4.66
5.74
6.31
6.44
6.23
5.74
5.05
4.30
3.65
3.24
3.16
3.41
3.88
4.43
4.91
5.16
5.11
4.76
4.20
3.50
2.79
2.14
1.57
1.10
0.74
0.52
0.40
0.32
0.16
-0.21
-0.84
-1.71
-2.68
-3.55
-4.17
-4.54
-4.76
-4.99
-5.38
-5.97
-6.74
-7.54
-8.19
-8.50
-8.27
-7.41
-5.92
-3.92
-1.59
0.81
3.01
4.80
6.01
6.59
6.58
6.12
5.37
4.52
3.76
3.20
2.92
2.94
3.19
3.56
3.87
3.98
3.79
3.32
2.71
2.13
1.71
1.47
1.34
1.22
1.03
0.74
0.40
0.06
-0.25
-0.56
-0.91
-1.35
-1.85
-2.35
-2.78
-3.11
-3.34
-3.55
-3.83
-4.27
-4.90
-5.69
-6.52
-7.20
-7.51
-7.24
-6.31
-4.76
-2.76
-0.60
1.44
3.15
4.41
5.24
5.65
5.70
5.45
4.95
4.29
3.61
3.05
2.73
2.66
2.75
2.89
3.01
3.08
3.14
3.18
3.17
2.99
2.57
1.92
1.16
0.46
-0.07
-0.41
-0.68
-1.00
-1.45
-2.00
-2.57
-3.03
-3.38
-3.64
-3.86
-4.10
-4.36
-4.65
-4.98
-5.41
-5.98
-6.69
-7.42
-7.99
-8.16
-7.78
-6.75
-5.17
-3.20
-1.06
1.03
2.87
4.32
5.27
5.69
5.61
5.11
4.36
3.54
2.83
2.35
2.17
2.28
2.63
3.11
3.61
4.01
4.23
4.27
4.14
3.90
3.58
3.15
2.55
1.77
0.84
-0.06
-0.79
-1.21
-1.35
-1.35
-1.36
-1.49
-1.74
-2.06
-2.36
-2.64
-2.99
-3.50
-4.24
-5.15
-6.15
-7.12
-7.96
-8.58
-8.90
-8.79
-8.15
-6.90
-5.12
-2.99
-0.75
1.32
3.05
4.30
5.06
5.34
5.20
4.72
4.03
3.28
2.60
2.10
1.84
1.85
2.12
2.55
2.99
3.27
3.28
3.00
2.56
2.12
1.80
1.62
1.51
1.34
1.05
0.63
0.14
-0.39
-0.91
-1.43
-1.92
-2.32
-2.54
-2.55
-2.37
-2.14
-2.05
-2.27
-2.88
-3.84
-4.98
-6.06
-6.82
-7.06
-6.71
-5.81
-4.47
-2.82
-0.98
0.95
2.86
4.60
5.95
6.74
6.84
6.30
5.30
4.14
3.12
2.44
2.15
2.18
2.39
2.66
2.91
3.10
3.23
3.24
3.06
2.66
2.04
1.29
0.58
0.00
-0.37
-0.58
-0.71
-0.86
-1.10
-1.42
-1.78
-2.14
-2.48
-2.77
-3.03
-3.30
-3.59
-3.96
-4.47
-5.19
-6.16
-7.33
-8.51
-9.40
-9.66
-9.02
-7.39
-4.94
-2.06
0.81
3.24
5.02
6.13
6.69
6.85
6.71
6.29
5.61
4.74
3.83
3.13
2.82
3.00
3.55
4.26
4.89
5.26
5.31
5.09
4.67
4.13
3.52
2.90
2.30
1.77
1.33
0.97
0.63
0.25
-0.23
-0.82
-1.49
-2.16
-2.74
-3.16
-3.40
-3.49
-3.56
-3.75
-4.17
-4.89
-5.81
-6.78
-7.58
-7.99
-7.89
-7.19
-5.88
-4.02
-1.73
0.73
3.02
4.79
5.81
6.05
5.72
5.12
4.52
4.00
3.53
3.05
2.61
2.39
2.58
3.26
4.24
5.21
5.82
5.90
5.52
4.87
4.16
3.47
2.76
1.98
1.13
0.29
-0.42
-0.92
-1.22
-1.37
-1.47
-1.57
-1.71
-1.90
-2.15
-2.48
-2.86
-3.31
-3.81
-4.39
-5.08
-5.91
-6.78
-7.51
-7.86
-7.60
-6.63
-4.99
-2.88
-0.58
1.63
3.53
5.01
6.01
6.51
6.53
6.11
5.32
4.29
3.22
2.31
1.74
1.62
1.91
2.50
3.20
3.80
4.13
4.11
3.73
3.07
2.26
1.42
0.67
0.10
-0.28
-0.49
-0.60
-0.73
-0.99
-1.44
-2.08
-2.82
-3.52
-4.03
-4.30
-4.39
-4.42
-4.57
-4.97
-5.68
-6.63
-7.64
-8.45
-8.75
-8.31
-7.02
-4.95
-2.38
0.29
2.70
4.57
5.81
6.43
6.53
6.17
5.44
4.47
3.47
2.70
2.33
2.43
2.87
3.43
3.92
4.25
4.47
4.64
4.80
4.83
4.58
3.93
2.89
1.66
0.53
-0.24
-0.58
-0.59
-0.50
-0.55
-0.85
-1.37
-1.96
-2.47
-2.85
-3.19
-3.61
-4.23
-5.03
-5.92
-6.77
-7.46
-7.89
-8.01
-7.72
-6.91
-5.51
-3.57
-1.26
1.07
3.08
4.53
5.34
5.63
5.57
5.33
4.98
4.56
4.05
3.50
3.01
2.70
2.64
2.81
3.11
3.43
3.67
3.76
3.72
3.56
3.31
2.99
2.62
2.22
1.81
1.41
1.00
0.56
0.07
-0.46
-1.01
-1.56
-2.09
-2.61
-3.10
-3.52
-3.81
-3.97
-4.08
-4.29
-4.76
-5.53
-6.48
-7.35
-7.80
-7.61
-6.72
-5.27
-3.46
-1.52
0.43
2.27
3.90
5.17
5.93
6.08
5.66
4.84
3.87
3.01
2.44
2.21
2.31
2.65
3.09
3.51
3.78
3.83
3.64
3.28
2.86
2.44
2.05
1.63
1.14
0.56
-0.06
-0.67
-1.24
-1.79
-2.33
-2.84
-3.26
-3.54
-3.69
-3.78
-3.96
-4.34
-4.99
-5.87
-6.90
-7.89
-8.67
-9.00
-8.66
-7.50
-5.54
-3.00
-0.29
2.18
4.08
5.29
5.87
6.01
5.86
5.52
5.03
4.39
3.67
3.02
2.60
2.51
2.71
3.06
3.40
3.63
3.71
3.71
3.63
3.44
3.06
2.46
1.68
0.87
0.17
-0.30
-0.58
-0.80
-1.11
-1.58
-2.18
-2.80
-3.33
-3.75
-4.07
-4.36
-4.70
-5.15
-5.73
-6.43
-7.18
-7.85
-8.23
-8.08
-7.21
-5.55
-3.25
-0.57
2.09
4.40
6.12
7.14
7.48
7.22
6.53
5.60
4.62
3.79
3.25
3.05
3.16
3.48
3.88
4.23
4.46
4.53
4.47
4.29
4.01
3.61
3.08
2.41
1.70
1.06
0.58
0.27
-0.01
-0.46
-1.23
-2.27
-3.38
-4.27
-4.72
-4.71
-4.40
-4.07
-3.94
-4.11
-4.58
-5.25
-5.97
-6.58
-6.88
-6.66
-5.81
-4.30
-2.30
-0.10
1.98
3.69
4.91
5.63
5.93
5.86
5.50
4.91
4.19
3.48
2.90
2.53
2.39
2.43
2.59
2.80
3.00
3.14
3.14
2.98
2.62
2.11
1.55
1.04
0.65
0.38
0.14
-0.17
-0.63
-1.23
-1.89
-2.48
-2.90
-3.14
-3.28
-3.42
-3.62
-3.91
-4.29
-4.73
-5.19
-5.63
-5.93
-5.93
-5.47
-4.43
-2.85
-0.91
1.09
2.86
4.17
4.92
5.13
4.91
4.44
3.86
3.33
2.94
2.71
2.60
2.54
2.51
2.56
2.75
3.08
3.47
3.76
3.75
3.35
2.61
1.69
0.80
0.08
-0.42
-0.77
-1.07
-1.42
-1.84
-2.32
-2.80
-3.24
-3.65
-4.05
-4.52
-5.04
-5.56
-6.00
-6.30
-6.50
-6.73
-7.09
-7.52
-7.77
-7.51
-6.45
-4.52
-1.98
0.76
3.25
5.19
6.50
7.23
7.45
7.26
6.73
5.96
5.09
4.28
3.68
3.39
3.42
3.71
4.14
4.55
4.82
4.85
4.66
4.32
3.87
3.34
2.72
2.00
1.16
0.25
-0.66
-1.50
-2.21
-2.79
-3.20
-3.45
-3.55
-3.53
-3.48
-3.45
-3.49
-3.63
-3.92
-4.40
-5.11
-6.03
-7.02
-7.84
-8.19
-7.83
-6.68
-4.87
-2.68
-0.42
1.64
3.33
4.59
5.39
5.75
5.70
5.30
4.67
3.97
3.37
2.99
2.85
2.93
3.13
3.39
3.68
3.98
4.26
4.45
4.45
4.15
3.54
2.66
1.70
0.85
0.29
0.07
0.08
0.14
0.03
-0.36
-1.00
-1.77
-2.50
-3.07
-3.46
-3.71
-3.91
-4.18
-4.56
-5.10
-5.75
-6.43
-6.96
-7.15
-6.78
-5.80
-4.24
-2.29
-0.23
1.72
3.39
4.64
5.39
5.59
5.22
4.40
3.34
2.33
1.63
1.38
1.53
1.93
2.40
2.80
3.09
3.25
3.25
3.03
2.60
1.99
1.31
0.69
0.20
-0.17
-0.50
-0.85
-1.24
-1.64
-2.01
-2.31
-2.56
-2.79
-3.02
-3.27
-3.57
-3.96
-4.50
-5.21
-6.10
-7.05
-7.90
-8.45
-8.50
-7.90
-6.63
-4.75
-2.49
-0.10
2.11
3.94
5.22
5.94
6.13
5.92
5.42
4.79
4.13
3.53
3.06
2.73
2.55
2.48
2.50
2.60
2.77
3.01
3.25
3.37
3.26
2.80
2.03
1.06
0.11
-0.65
-1.14
-1.42
-1.63
-1.88
-2.20
-2.49
-2.66
-2.65
-2.55
-2.50
-2.64
-3.00
-3.55
-4.21
-4.92
-5.64
-6.32
-6.82
-6.92
-6.37
-5.07
-3.13
-0.88
1.28
3.01
4.15
4.77
4.99
4.93
4.63
4.10
3.43
2.79
2.40
2.45
2.92
3.64
4.30
4.63
4.54
4.14
3.64
3.23
2.97
2.77
2.46
1.93
1.17
0.31
-0.45
-0.98
-1.27
-1.42
-1.59
-1.89
-2.34
-2.84
-3.31
-3.70
-4.04
-4.42
-4.92
-5.55
-6.23
-6.80
-7.08
-6.94
-6.27
-5.08
-3.44
-1.48
0.57
2.48
4.01
5.00
5.38
5.19
4.59
3.80
3.05
2.54
2.35
2.46
2.77
3.15
3.45
3.55
3.42
3.04
2.51
1.93
1.38
0.89
0.47
0.06
-0.38
-0.89
-1.45
-2.03
-2.60
-3.13
-3.59
-3.93
-4.16
-4.26
-4.31
-4.38
-4.58
-4.97
-5.53
-6.17
-6.75
-7.07
-6.95
-6.26
-5.01
-3.27
-1.27
0.78
2.67
4.22
5.33
5.93
5.97
5.45
4.47
3.23
2.04
1.21
0.97
1.40
2.39
3.70
5.00
6.01
6.49
6.40
5.81
4.92
3.95
3.06
2.30
1.62
0.95
0.25
-0.48
-1.15
-1.72
-2.17
-2.54
-2.91
-3.34
-3.85
-4.39
-4.93
-5.43
-5.94
-6.54
-7.23
-7.93
-8.37
-8.21
-7.20
-5.31
-2.80
-0.12
2.26
4.04
5.19
5.82
6.12
6.17
5.99
5.53
4.85
4.11
3.55
3.35
3.57
4.09
4.67
5.08
5.21
5.09
4.82
4.53
4.27
3.96
3.50
2.81
1.89
0.86
-0.11
-0.88
-1.40
-1.75
-2.04
-2.37
-2.78
-3.20
-3.56
-3.75
-3.82
-3.86
-4.07
-4.60
-5.47
-6.50
-7.35
-7.67
-7.20
-5.88
-3.90
-1.59
0.69
2.65
4.10
5.01
5.36
5.23
4.75
4.07
3.39
2.88
2.65
2.71
3.01
3.45
3.92
4.28
4.44
4.36
4.09
3.75
3.43
3.19
2.94
2.54
1.88
0.94
-0.12
-1.11
-1.84
-2.29
-2.57
-2.85
-3.25
-3.77
-4.30
-4.72
-5.02
-5.26
-5.55
-5.92
-6.28
-6.39
-5.97
-4.88
-3.19
-1.16
0.85
2.51
3.68
4.35
4.61
4.60
4.37
3.95
3.34
2.60
1.87
1.32
1.14
1.41
2.06
2.89
3.63
4.00
3.91
3.38
2.61
1.84
1.23
0.81
0.50
0.18
-0.24
-0.71
-1.15
-1.50
-1.76
-2.05
-2.43
-2.95
-3.54
-4.13
-4.68
-5.25
-5.91
-6.64
-7.28
-7.59
-7.33
-6.41
-4.91
-3.07
-1.15
0.69
2.35
3.74
4.76
5.29
5.23
4.63
3.66
2.63
1.86
1.55
1.73
2.25
2.88
3.40
3.67
3.71
3.59
3.41
3.20
2.97
2.68
2.32
1.91
1.46
0.99
0.48
-0.11
-0.80
-1.53
-2.23
-2.80
-3.18
-3.39
-3.48
-3.54
-3.69
-4.06
-4.71
-5.61
-6.62
-7.45
-7.80
-7.45
-6.32
-4.55
-2.39
-0.17
1.82
3.40
4.48
5.08
5.29
5.20
4.90
4.48
3.99
3.50
3.06
2.73
2.56
2.54
2.62
2.71
2.78
2.84
2.89
2.92
2.85
2.60
2.10
1.43
0.73
0.17
-0.16
-0.30
-0.39
-0.58
-0.96
-1.50
-2.11
-2.68
-3.15
-3.52
-3.87
-4.26
-4.75
-5.35
-5.97
-6.41
-6.44
-5.89
-4.72
-3.08
-1.25
0.50
1.97
3.08
3.84
4.25
4.33
4.05
3.45
2.65
1.85
1.22
0.88
0.85
1.05
1.39
1.76
2.09
2.34
2.48
2.48
2.33
2.01
1.53
0.94
0.30
-0.31
-0.79
-1.10
-1.23
-1.24
-1.26
-1.40
-1.76
-2.38
-3.18
-4.06
-4.87
-5.54
-6.05
-6.46
-6.82
-7.08
-7.10
-6.70
-5.75
-4.24
-2.36
-0.37
1.47
2.97
4.09
4.83
5.25
5.33
5.07
4.49
3.70
2.90
2.31
2.11
2.33
2.84
3.45
3.97
4.27
4.34
4.19
3.85
3.33
2.66
1.89
1.13
0.50
0.06
-0.23
-0.48
-0.80
-1.26
-1.82
-2.39
-2.91
-3.38
-3.81
-4.26
-4.69
-5.07
-5.40
-5.72
-6.11
-6.60
-7.11
-7.43
-7.23
-6.29
-4.55
-2.24
0.25
2.53
4.30
5.46
6.06
6.20
5.96
5.40
4.58
3.67
2.88
2.40
2.34
2.61
3.04
3.42
3.63
3.70
3.72
3.77
3.84
3.84
3.63
3.17
2.49
1.71
0.98
0.40
-0.01
-0.25
-0.33
-0.30
-0.23
-0.21
-0.39
-0.86
-1.60
-2.52
-3.44
-4.21
-4.75
-5.10
-5.36
-5.62
-5.93
-6.27
-6.53
-6.58
-6.28
-5.53
-4.28
-2.59
-0.63
1.37
3.11
4.36
4.98
4.96
4.42
3.57
2.61
1.73
1.09
0.80
0.91
1.40
2.15
2.98
3.68
4.12
4.26
4.13
3.78
3.27
2.63
1.91
1.18
0.55
0.06
-0.30
-0.63
-1.06
-1.61
-2.21
-2.71
-2.99
-3.06
-3.06
-3.20
-3.60
-4.26
-5.07
-5.86
-6.52
-7.02
-7.35
-7.46
-7.22
-6.51
-5.23
-3.47
-1.48
0.43
1.98
3.06
3.73
4.13
4.36
4.47
4.41
4.13
3.65
3.10
2.66
2.50
2.69
3.11
3.56
3.80
3.71
3.33
2.84
2.47
2.29
2.24
2.10
1.68
0.92
-0.07
-1.05
-1.78
-2.17
-2.25
-2.15
-2.02
-1.96
-2.03
-2.25
-2.60
-3.08
-3.63
-4.21
-4.76
-5.27
-5.77
-6.27
-6.78
-7.24
-7.54
-7.59
-7.26
-6.50
-5.28
-3.65
-1.71
0.37
2.40
4.15
5.42
6.08
6.14
5.70
4.98
4.25
3.70
3.46
3.53
3.86
4.35
4.93
5.49
5.90
6.06
5.90
5.45
4.81
4.14
3.54
3.06
2.63
2.19
1.66
1.09
0.54
0.09
-0.22
-0.45
-0.66
-0.93
-1.30
-1.77
-2.32
-2.90
-3.47
-3.98
-4.42
-4.84
-5.31
-5.87
-6.49
-7.10
-7.57
-7.79
-7.66
-7.14
-6.20
-4.87
-3.20
-1.27
0.74
2.65
4.25
5.40
6.05
6.25
6.13
5.82
5.41
4.97
4.54
4.17
3.92
3.86
4.01
4.32
4.64
4.84
4.79
4.50
4.02
3.45
2.86
2.27
1.72
1.22
0.81
0.54
0.35
0.20
0.00
-0.31
-0.75
-1.29
-1.90
-2.51
-3.06
-3.53
-3.90
-4.23
-4.60
-5.10
-5.74
-6.42
-6.93
-7.04
-6.60
-5.61
-4.15
-2.40
-0.49
1.44
3.26
4.81
5.89
6.36
6.17
5.47
4.51
3.59
2.94
2.63
2.58
2.65
2.72
2.78
2.88
3.08
3.38
3.64
3.72
3.47
2.88
2.05
1.15
0.33
-0.33
-0.81
-1.12
-1.31
-1.42
-1.52
-1.70
-2.00
-2.44
-2.93
-3.34
-3.59
-3.70
-3.82
-4.16
-4.86
-5.92
-7.14
-8.18
-8.66
-8.37
-7.24
-5.44
-3.25
-0.96
1.22
3.14
4.72
5.87
6.48
6.53
6.07
5.29
4.47
3.86
3.56
3.57
3.73
3.90
3.99
4.01
4.00
4.00
4.01
3.99
3.94
3.82
3.62
3.30
2.82
2.17
1.40
0.60
-0.14
-0.75
-1.24
-1.63
-1.98
-2.30
-2.60
-2.88
-3.16
-3.49
-3.90
-4.40
-4.97
-5.58
-6.21
-6.82
-7.39
-7.80
-7.89
-7.45
-6.33
-4.52
-2.18
0.35
2.66
4.44
5.55
6.05
6.13
5.95
5.60
5.05
4.28
3.38
2.54
2.04
2.08
2.66
3.56
4.42
4.93
4.97
4.61
4.05
3.47
2.96
2.46
1.91
1.26
0.57
-0.06
-0.52
-0.78
-0.89
-0.97
-1.11
-1.35
-1.69
-2.05
-2.38
-2.66
-2.90
-3.20
-3.62
-4.22
-4.95
-5.72
-6.35
-6.70
-6.63
-6.04
-4.91
-3.30
-1.35
0.68
2.54
3.98
4.89
5.28
5.27
4.96
4.45
3.78
3.03
2.32
1.81
1.61
1.75
2.11
2.50
2.76
2.82
2.74
2.61
2.48
2.31
1.97
1.37
0.50
-0.50
-1.43
-2.14
-2.60
-2.88
-3.13
-3.39
-3.64
-3.76
-3.68
-3.49
-3.35
-3.48
-3.97
-4.76
-5.68
-6.52
-7.11
-7.36
-7.19
-6.53
-5.34
-3.67
-1.68
0.35
2.14
3.48
4.36
4.85
5.09
5.10
4.87
4.34
3.57
2.72
2.04
1.75
1.94
2.48
3.16
3.74
4.05
4.05
3.77
3.32
2.80
2.30
1.89
1.61
1.41
1.19
0.85
0.31
-0.41
-1.19
-1.88
-2.39
-2.71
-2.92
-3.16
-3.50
-3.97
-4.52
-5.13
-5.79
-6.55
-7.39
-8.18
-8.68
-8.58
-7.65
-5.87
-3.46
-0.84
1.53
3.33
4.47
5.04
5.26
5.26
5.12
4.81
4.31
3.68
3.06
2.61
2.46
2.58
2.84
3.12
3.29
3.33
3.26
3.09
2.80
2.35
1.71
0.94
0.12
-0.61
-1.22
-1.68
-2.03
-2.32
-2.57
-2.82
-3.10
-3.51
-4.10
-4.88
-5.76
-6.61
-7.32
-7.86
-8.34
-8.88
-9.58
-10.40
-11.18
-11.66
-11.61
-10.91
-9.53
-7.58
-5.21
-2.62
-0.00
2.48
4.67
6.42
7.63
8.29
8.48
8.37
8.18
8.10
8.20
8.41
8.60
8.66
8.54
8.30
8.02
7.73
7.37
6.86
6.13
5.23
4.28
3.43
2.77
2.30
1.92
1.52
1.02
0.41
-0.27
-0.92
-1.46
-1.88
-2.21
-2.56
-2.99
-3.57
-4.25
-4.94
-5.57
-6.04
-6.27
-6.15
-5.55
-4.40
-2.71
-0.68
1.39
3.20
4.50
5.23
5.42
5.16
4.59
3.80
2.93
2.15
1.63
1.47
1.68
2.14
2.67
3.13
3.43
3.58
3.61
3.54
3.33
2.94
2.33
1.55
0.72
-0.04
-0.62
-1.04
-1.37
-1.71
-2.15
-2.70
-3.30
-3.89
-4.40
-4.82
-5.19
-5.55
-5.98
-6.50
-7.09
-7.66
-8.06
-8.15
-7.80
-6.95
-5.63
-3.95
-2.02
0.02
2.00
3.75
5.08
5.88
6.11
5.85
5.26
4.52
3.80
3.20
2.82
2.71
2.91
3.43
4.17
4.93
5.49
5.68
5.47
4.93
4.19
3.36
2.50
1.65
0.85
0.15
-0.37
-0.68
-0.83
-0.94
-1.16
-1.58
-2.22
-2.97
-3.71
-4.33
-4.81
-5.17
-5.50
-5.88
-6.37
-6.99
-7.69
-8.33
-8.69
-8.49
-7.53
-5.77
-3.38
-0.73
1.75
3.73
5.06
5.79
6.09
6.11
5.96
5.66
5.24
4.75
4.29
3.93
3.74
3.74
3.90
4.16
4.42
4.60
4.61
4.44
4.12
3.75
3.40
3.09
2.75
2.31
1.76
1.16
0.65
0.34
0.19
0.07
-0.19
-0.71
-1.46
-2.27
-2.98
-3.47
-3.75
-3.91
-4.07
-4.33
-4.77
-5.42
-6.24
-7.05
-7.56
-7.43
-6.44
-4.58
-2.14
0.41
2.64
4.28
5.31
5.82
5.91
5.66
5.07
4.23
3.29
2.50
2.05
2.04
2.38
2.88
3.32
3.56
3.55
3.33
3.01
2.69
2.42
2.19
1.93
1.56
1.03
0.38
-0.31
-0.92
-1.40
-1.75
-2.02
-2.26
-2.51
-2.76
-3.04
-3.35
-3.72
-4.17
-4.70
-5.31
-5.95
-6.63
-7.32
-7.95
-8.38
-8.38
-7.73
-6.26
-4.02
-1.24
1.65
4.23
6.15
7.28
7.69
7.56
7.08
6.43
5.71
4.99
4.36
3.88
3.57
3.41
3.32
3.23
3.14
3.07
3.05
3.10
3.16
3.14
2.94
2.50
1.84
1.05
0.27
-0.40
-0.85
-1.09
-1.16
-1.19
-1.30
-1.63
-2.20
-2.95
-3.73
-4.38
-4.81
-5.02
-5.15
-5.32
-5.66
-6.19
-6.81
-7.39
-7.73
-7.65
-7.03
-5.82
-4.09
-2.03
0.09
2.00
3.51
4.56
5.22
5.58
5.77
5.81
5.68
5.36
4.89
4.37
3.95
3.71
3.68
3.81
4.01
4.18
4.27
4.24
4.07
3.75
3.27
2.68
2.08
1.56
1.22
1.06
0.97
0.87
0.66
0.34
-0.03
-0.36
-0.65
-0.93
-1.29
-1.80
-2.49
-3.31
-4.16
-4.92
-5.52
-5.95
-6.28
-6.58
-6.90
-7.18
-7.26
-6.93
-6.04
-4.56
-2.66
-0.59
1.34
2.92
4.06
4.80
5.19
5.29
5.09
4.59
3.86
3.02
2.29
1.85
1.79
2.07
2.54
3.07
3.53
3.88
4.05
4.00
3.67
3.04
2.22
1.36
0.64
0.12
-0.26
-0.65
-1.15
-1.77
-2.39
-2.87
-3.14
-3.24
-3.31
-3.51
-3.89
-4.40
-4.92
-5.34
-5.66
-5.95
-6.33
-6.81
-7.25
-7.40
-6.96
-5.77
-3.90
-1.67
0.55
2.44
3.89
4.95
5.71
6.24
6.47
6.30
5.65
4.65
3.53
2.58
2.02
1.90
2.09
2.40
2.65
2.77
2.78
2.70
2.58
2.36
1.99
1.40
0.63
-0.24
-1.06
-1.69
-2.06
-2.19
-2.16
-2.11
-2.18
-2.43
-2.83
-3.29
-3.67
-3.91
-3.99
-4.01
-4.08
-4.30
-4.72
-5.29
-5.89
-6.34
-6.44
-6.05
-5.09
-3.62
-1.82
0.08
1.86
3.36
4.49
5.23
5.56
5.50
5.08
4.43
3.74
3.20
2.94
3.00
3.27
3.55
3.70
3.67
3.50
3.31
3.17
3.07
2.95
2.73
2.37
1.89
1.34
0.78
0.20
-0.43
-1.09
-1.70
-2.16
-2.40
-2.46
-2.44
-2.50
-2.71
-3.03
-3.36
-3.58
-3.66
-3.68
-3.78
-4.12
-4.75
-5.60
-6.43
-6.98
-6.95
-6.18
-4.68
-2.68
-0.51
1.43
2.86
3.70
4.02
3.99
3.77
3.49
3.22
3.00
2.87
2.89
3.09
3.49
4.05
4.66
5.20
5.51
5.48
5.07
4.38
3.56
2.78
2.16
1.70
1.37
1.10
0.89
0.74
0.62
0.47
0.15
-0.41
-1.20
-2.11
-2.99
-3.69
-4.16
-4.43
-4.57
-4.63
-4.67
-4.78
-5.00
-5.37
-5.87
-6.35
-6.62
-6.47
-5.76
-4.48
-2.74
-0.75
1.22
2.94
4.27
5.15
5.59
5.66
5.41
4.88
4.15
3.27
2.38
1.60
1.08
0.88
1.00
1.36
1.82
2.25
2.56
2.72
2.78
2.76
2.68
2.46
2.04
1.36
0.47
-0.48
-1.32
-1.87
-2.11
-2.08
-1.95
-1.83
-1.82
-1.94
-2.16
-2.50
-2.98
-3.65
-4.49
-5.42
-6.25
-6.75
-6.71
-6.02
-4.71
-2.99
-1.14
0.57
1.99
3.09
3.94
4.60
5.08
5.29
5.17
4.71
4.03
3.36
2.90
2.72
2.77
2.87
2.89
2.79
2.63
2.49
2.42
2.35
2.18
1.84
1.34
0.80
0.35
0.04
-0.14
-0.28
-0.47
-0.76
-1.16
-1.64
-2.17
-2.69
-3.18
-3.61
-4.00
-4.36
-4.76
-5.21
-5.76
-6.38
-6.99
-7.48
-7.67
-7.36
-6.44
-4.88
-2.80
-0.44
1.86
3.79
5.18
5.96
6.20
6.01
5.53
4.87
4.19
3.62
3.31
3.34
3.69
4.20
4.65
4.84
4.66
4.17
3.55
2.98
2.55
2.23
1.90
1.42
0.75
-0.05
-0.87
-1.58
-2.09
-2.42
-2.61
-2.74
-2.91
-3.15
-3.48
-3.84
-4.19
-4.53
-4.91
-5.38
-5.93
-6.39
-6.49
-5.95
-4.64
-2.68
-0.42
1.72
3.45
4.66
5.44
5.91
6.11
5.97
5.41
4.48
3.36
2.36
1.75
1.67
2.04
2.62
3.16
3.44
3.38
2.98
2.37
1.69
1.08
0.61
0.28
0.05
-0.18
-0.44
-0.76
-1.10
-1.45
-1.79
-2.16
-2.56
-2.97
-3.36
-3.74
-4.17
-4.72
-5.41
-6.14
-6.69
-6.79
-6.26
-5.12
-3.54
-1.77
-0.00
1.62
3.06
4.29
5.25
5.84
5.92
5.48
4.60
3.52
2.53
1.91
1.77
2.06
2.57
3.04
3.27
3.19
2.86
2.41
1.94
1.50
1.10
0.77
0.51
0.35
0.23
0.08
-0.18
-0.57
-1.04
-1.51
-1.96
-2.39
-2.88
-3.44
-4.05
-4.62
-5.08
-5.41
-5.60
-5.65
-5.49
-5.05
-4.27
-3.16
-1.80
-0.28
1.27
2.78
4.12
5.16
5.71
5.66
5.04
4.03
2.90
1.93
1.28
0.98
0.99
1.20
1.51
1.84
2.11
2.27
2.27
2.12
1.83
1.47
1.06
0.61
0.09
-0.52
-1.20
-1.88
-2.49
-2.94
-3.20
-3.29
-3.25
-3.17
-3.14
-3.22
-3.42
-3.75
-4.16
-4.59
-4.91
-4.99
-4.68
-3.91
-2.67
-1.06
0.72
2.42
3.78
4.63
4.91
4.69
4.13
3.43
2.76
2.21
1.82
1.55
1.40
1.34
1.37
1.46
1.56
1.63
1.63
1.55
1.42
1.24
1.02
0.73
0.34
-0.14
-0.68
-1.20
-1.64
-1.96
-2.17
-2.35
-2.58
-2.91
-3.36
-3.90
-4.49
-5.07
-5.62
-6.16
-6.68
-7.11
-7.34
-7.17
-6.44
-5.09
-3.22
-1.11
0.88
2.42
3.34
3.67
3.62
3.42
3.26
3.15
3.03
2.82
2.55
2.34
2.33
2.54
2.85
3.07
3.02
2.68
2.16
1.63
1.17
0.76
0.34
-0.17
-0.77
-1.37
-1.92
-2.44
-3.00
-3.73
-4.66
-5.73
-6.79
-7.68
-8.31
-8.69
-8.92
-9.15
-9.50
-10.00
-10.56
-10.99
-10.97
-10.25
-8.66
-6.24
-3.23
-0.00
3.07
5.70
7.79
9.35
10.46
11.19
11.53
11.44
10.96
10.17
9.28
8.50
7.99
7.76
7.71
7.71
7.62
7.37
6.96
6.40
5.73
4.94
4.08
3.21
2.44
1.89
1.55
1.36
1.14
0.77
0.18
-0.55
-1.28
-1.84
-2.20
-2.40
-2.54
-2.71
-2.92
-3.16
-3.44
-3.82
-4.41
-5.19
-6.00
-6.53
-6.42
-5.50
-3.81
-1.66
0.57
2.49
3.92
4.80
5.18
5.13
4.72
4.03
3.21
2.45
1.97
1.90
2.25
2.85
3.47
3.90
4.01
3.82
3.46
3.07
2.72
2.39
1.99
1.44
0.73
-0.05
-0.78
-1.35
-1.72
-1.95
-2.10
-2.27
-2.49
-2.76
-3.11
-3.54
-4.07
-4.70
-5.37
-5.98
-6.43
-6.58
-6.37
-5.73
-4.68
-3.28
-1.70
-0.11
1.32
2.50
3.42
4.11
4.58
4.80
4.73
4.38
3.82
3.21
2.70
2.40
2.34
2.41
2.54
2.65
2.72
2.77
2.79
2.75
2.58
2.25
1.75
1.13
0.48
-0.12
-0.61
-1.02
-1.38
-1.73
-2.10
-2.49
-2.88
-3.26
-3.61
-3.92
-4.16
-4.33
-4.45
-4.61
-4.86
-5.24
-5.64
-5.87
-5.70
-4.95
-3.60
-1.81
0.15
1.94
3.32
4.20
4.64
4.80
4.85
4.88
4.86
4.69
4.31
3.75
3.15
2.73
2.64
2.91
3.41
3.92
4.22
4.20
3.84
3.24
2.52
1.81
1.16
0.59
0.08
-0.37
-0.76
-1.07
-1.27
-1.40
-1.53
-1.74
-2.09
-2.52
-2.93
-3.20
-3.27
-3.22
-3.23
-3.46
-3.98
-4.73
-5.48
-6.02
-6.13
-5.73
-4.80
-3.43
-1.73
0.14
2.01
3.65
4.86
5.49
5.49
4.98
4.16
3.33
2.70
2.39
2.37
2.52
2.69
2.79
2.81
2.79
2.73
2.59
2.32
1.88
1.33
0.78
0.35
0.11
0.03
-0.01
-0.13
-0.42
-0.89
-1.49
-2.11
-2.68
-3.13
-3.46
-3.69
-3.88
-4.08
-4.36
-4.77
-5.30
-5.92
-6.53
-7.01
-7.16
-6.84
-5.99
-4.65
-2.95
-1.12
0.58
1.97
2.93
3.44
3.56
3.40
3.11
2.82
2.60
2.48
2.45
2.48
2.58
2.73
2.94
3.16
3.34
3.44
3.41
3.28
3.05
2.73
2.29
1.71
1.01
0.24
-0.45
-0.94
-1.20
-1.27
-1.30
-1.44
-1.82
-2.42
-3.15
-3.87
-4.45
-4.87
-5.13
-5.29
-5.41
-5.59
-5.87
-6.27
-6.70
-6.96
-6.82
-6.06
-4.63
-2.64
-0.39
1.78
3.61
4.97
5.83
6.24
6.23
5.84
5.17
4.38
3.65
3.18
3.07
3.30
3.76
4.27
4.67
4.84
4.77
4.48
4.04
3.52
2.96
2.36
1.73
1.08
0.44
-0.13
-0.56
-0.82
-0.93
-0.98
-1.08
-1.28
-1.59
-1.98
-2.38
-2.72
-3.00
-3.23
-3.42
-3.60
-3.83
-4.15
-4.62
-5.20
-5.76
-6.05
-5.81
-4.91
-3.36
-1.43
0.54
2.24
3.48
4.27
4.70
4.86
4.77
4.45
3.90
3.23
2.57
2.06
1.77
1.66
1.69
1.80
1.99
2.26
2.59
2.93
3.18
3.27
3.14
2.81
2.34
1.76
1.15
0.54
0.02
-0.33
-0.47
-0.41
-0.23
-0.07
-0.05
-0.26
-0.70
-1.32
-2.05
-2.79
-3.48
-4.05
-4.50
-4.84
-5.11
-5.35
-5.53
-5.57
-5.32
-4.62
-3.43
-1.82
-0.00
1.78
3.30
4.40
5.01
5.12
4.79
4.17
3.45
2.85
2.53
2.54
2.81
3.18
3.50
3.71
3.77
3.71
3.57
3.34
3.01
2.57
2.04
1.46
0.90
0.40
-0.00
-0.30
-0.54
-0.77
-1.02
-1.31
-1.62
-1.90
-2.13
-2.35
-2.64
-3.05
-3.65
-4.36
-5.09
-5.73
-6.23
-6.61
-6.94
-7.23
-7.41
-7.34
-6.83
-5.77
-4.22
-2.33
-0.35
1.49
3.08
4.37
5.36
6.03
6.33
6.24
5.77
5.06
4.30
3.72
3.48
3.62
4.02
4.49
4.82
4.86
4.58
4.04
3.35
2.63
1.93
1.31
0.78
0.38
0.15
0.11
0.22
0.40
0.49
0.40
0.08
-0.44
-1.03
-1.61
-2.12
-2.56
-2.95
-3.28
-3.53
-3.65
-3.70
-3.78
-4.04
-4.62
-5.51
-6.52
-7.34
-7.67
-7.29
-6.21
-4.62
-2.79
-0.98
0.67
2.14
3.42
4.50
5.29
5.68
5.58
5.05
4.26
3.48
2.94
2.75
2.87
3.15
3.39
3.50
3.45
3.32
3.19
3.09
2.96
2.75
2.40
1.93
1.44
1.01
0.68
0.46
0.30
0.16
0.01
-0.16
-0.36
-0.63
-0.99
-1.49
-2.11
-2.82
-3.50
-4.07
-4.42
-4.50
-4.38
-4.18
-4.04
-4.06
-4.21
-4.32
-4.17
-3.55
-2.41
-0.90
0.73
2.18
3.23
3.80
3.95
3.84
3.63
3.43
3.23
2.98
2.67
2.32
2.05
1.96
2.08
2.34
2.59
2.69
2.61
2.39
2.12
1.88
1.63
1.32
0.91
0.43
-0.03
-0.39
-0.62
-0.82
-1.10
-1.58
-2.24
-2.97
-3.64
-4.12
-4.41
-4.55
-4.63
-4.73
-4.87
-5.09
-5.39
-5.81
-6.32
-6.81
-7.09
-6.94
-6.18
-4.83
-3.03
-1.00
0.99
2.78
4.22
5.22
5.71
5.68
5.23
4.54
3.86
3.34
3.05
2.93
2.90
2.93
3.03
3.23
3.49
3.71
3.79
3.68
3.42
3.11
2.78
2.39
1.88
1.21
0.46
-0.24
-0.77
-1.14
-1.41
-1.71
-2.07
-2.44
-2.67
-2.71
-2.60
-2.48
-2.48
-2.66
-2.98
-3.37
-3.83
-4.39
-5.10
-5.91
-6.64
-7.01
-6.79
-5.88
-4.39
-2.53
-0.59
1.21
2.75
3.97
4.84
5.34
5.46
5.24
4.74
4.06
3.34
2.71
2.27
2.09
2.19
2.55
3.03
3.49
3.79
3.86
3.71
3.40
2.98
2.47
1.82
1.01
0.08
-0.84
-1.57
-1.97
-1.98
-1.67
-1.19
-0.74
-0.46
-0.44
-0.69
-1.21
-1.95
-2.85
-3.81
-4.71
-5.43
-5.87
-6.01
-5.87
-5.53
-5.05
-4.47
-3.77
-2.85
-1.62
-0.03
1.81
3.68
5.22
6.13
6.26
5.67
4.62
3.41
2.30
1.46
0.96
0.83
1.09
1.72
2.60
3.49
4.12
4.27
3.87
3.03
1.94
0.83
-0.14
-0.87
-1.32
-1.49
-1.44
-1.29
-1.17
-1.20
-1.45
-1.88
-2.40
-2.91
-3.35
-3.69
-3.99
-4.29
-4.66
-5.14
-5.76
-6.49
-7.25
-7.86
-8.07
-7.67
-6.53
-4.71
-2.45
-0.08
2.07
3.73
4.81
5.31
5.32
4.97
4.39
3.72
3.10
2.69
2.58
2.75
3.10
3.48
3.75
3.86
3.86
3.82
3.77
3.67
3.44
3.01
2.39
1.72
1.18
0.85
0.71
0.61
0.41
0.01
-0.55
-1.15
-1.68
-2.10
-2.45
-2.79
-3.20
-3.68
-4.22
-4.82
-5.44
-6.05
-6.60
-6.97
-7.03
-6.67
-5.82
-4.54
-2.93
-1.14
0.69
2.43
4.00
5.27
6.11
6.39
6.09
5.32
4.30
3.36
2.73
2.52
2.69
3.09
3.58
4.04
4.42
4.66
4.69
4.51
4.10
3.54
2.90
2.23
1.54
0.86
0.19
-0.38
-0.77
-0.95
-0.95
-0.89
-0.91
-1.12
-1.54
-2.06
-2.51
-2.72
-2.63
-2.33
-2.04
-2.02
-2.45
-3.30
-4.36
-5.31
-5.82
-5.71
-4.93
-3.59
-1.88
0.00
1.84
3.42
4.54
5.06
4.94
4.26
3.24
2.15
1.26
0.73
0.62
0.89
1.43
2.07
2.65
3.01
3.04
2.73
2.17
1.54
1.01
0.68
0.49
0.33
0.02
-0.50
-1.18
-1.92
-2.56
-3.05
-3.38
-3.61
-3.79
-3.99
-4.24
-4.59
-5.07
-5.61
-6.09
-6.29
-6.05
-5.30
-4.12
-2.67
-1.11
0.43
1.90
3.22
4.33
5.09
5.42
5.31
4.87
4.24
3.59
3.06
2.68
2.52
2.58
2.85
3.25
3.66
3.93
3.96
3.71
3.20
2.50
1.66
0.77
-0.09
-0.83
-1.38
-1.74
-1.96
-2.17
-2.42
-2.73
-3.04
-3.29
-3.46
-3.59
-3.75
-3.99
-4.32
-4.68
-4.99
-5.20
-5.23
-5.01
-4.49
-3.62
-2.39
-0.87
0.80
2.47
4.00
5.26
6.14
6.53
6.36
5.63
4.49
3.22
2.17
1.61
1.64
2.15
2.88
3.51
3.84
3.82
3.53
3.10
2.62
2.12
1.54
0.88
0.13
-0.60
-1.23
-1.68
-1.91
-1.99
-1.98
-1.97
-2.00
-2.09
-2.23
-2.43
-2.71
-3.09
-3.60
-4.20
-4.79
-5.24
-5.38
-5.10
-4.37
-3.23
-1.79
-0.20
1.38
2.81
3.96
4.74
5.13
5.15
4.82
4.25
3.52
2.76
2.13
1.79
1.82
2.18
2.70
3.14
3.31
3.14
2.73
2.21
1.74
1.38
1.08
0.77
0.38
-0.10
-0.64
-1.17
-1.63
-2.02
-2.35
-2.67
-3.03
-3.45
-3.90
-4.33
-4.70
-5.01
-5.25
-5.35
-5.16
-4.51
-3.32
-1.66
0.16
1.81
3.00
3.65
3.87
3.83
3.64
3.33
2.87
2.32
1.79
1.48
1.49
1.77
2.17
2.48
2.61
2.53
2.31
2.00
1.61
1.13
0.57
0.01
-0.45
-0.76
-0.96
-1.16
-1.47
-1.89
-2.34
-2.71
-2.95
-3.12
-3.35
-3.73
-4.23
-4.68
-4.87
-4.60
-3.85
-2.71
-1.40
-0.10
1.04
1.96
2.63
3.07
3.29
3.33
3.26
3.11
2.91
2.71
2.53
2.41
2.38
2.39
2.37
2.21
1.88
1.40
0.89
0.44
0.12
-0.14
-0.42
-0.81
-1.29
-1.79
-2.20
-2.46
-2.63
-2.76
-2.94
-3.21
-3.58
-4.05
-4.62
-5.26
-5.88
-6.34
-6.45
-6.06
-5.10
-3.64
-1.84
0.12
2.00
3.62
4.78
5.34
5.27
4.66
3.71
2.74
1.99
1.64
1.67
1.94
2.31
2.62
2.82
2.90
2.87
2.74
2.51
2.19
1.82
1.39
0.93
0.42
-0.11
-0.64
-1.14
-1.57
-1.92
-2.23
-2.51
-2.79
-3.08
-3.40
-3.80
-4.31
-4.95
-5.63
-6.20
-6.46
-6.30
-5.65
-4.60
-3.24
-1.68
-0.02
1.61
3.08
4.23
4.93
5.14
4.93
4.46
3.88
3.36
2.98
2.78
2.73
2.80
2.91
2.99
3.00
2.94
2.85
2.76
2.67
2.56
2.37
2.10
1.71
1.22
0.64
-0.00
-0.70
-1.40
-2.05
-2.61
-3.05
-3.39
-3.67
-3.92
-4.17
-4.45
-4.77
-5.15
-5.55
-5.85
-5.87
-5.42
-4.39
-2.85
-0.99
0.90
2.57
3.84
4.64
5.01
5.01
4.71
4.19
3.55
2.91
2.40
2.11
2.10
2.32
2.71
3.11
3.36
3.34
3.00
2.39
1.64
0.93
0.38
0.02
-0.23
-0.49
-0.84
-1.27
-1.75
-2.19
-2.55
-2.84
-3.11
-3.37
-3.64
-3.94
-4.30
-4.79
-5.44
-6.19
-6.87
-7.27
-7.13
-6.33
-4.90
-3.06
-1.09
0.75
2.31
3.57
4.58
5.39
5.95
6.18
5.97
5.33
4.39
3.41
2.67
2.33
2.41
2.76
3.18
3.48
3.62
3.59
3.47
3.28
3.02
2.63
2.09
1.47
0.87
0.38
0.02
-0.26
-0.55
-0.92
-1.37
-1.84
-2.25
-2.59
-2.89
-3.21
-3.60
-4.07
-4.57
-5.07
-5.53
-5.89
-6.05
-5.89
-5.26
-4.14
-2.59
-0.84
0.87
2.32
3.43
4.22
4.74
5.04
5.10
4.91
4.50
3.95
3.43
3.07
2.98
3.16
3.52
3.94
4.27
4.39
4.24
3.83
3.24
2.59
1.99
1.49
1.09
0.77
0.44
0.05
-0.40
-0.91
-1.39
-1.74
-1.91
-1.88
-1.72
-1.55
-1.51
-1.67
-2.04
-2.58
-3.20
-3.87
-4.54
-5.19
-5.74
-6.07
-6.00
-5.36
-4.11
-2.34
-0.34
1.60
3.21
4.35
5.03
5.33
5.33
5.06
4.51
3.73
2.83
2.04
1.54
1.43
1.65
2.03
2.38
2.59
2.64
2.55
2.38
2.14
1.83
1.45
1.08
0.74
0.47
0.20
-0.17
-0.70
-1.35
-2.02
-2.55
-2.85
-2.94
-2.94
-3.00
-3.22
-3.64
-4.22
-4.89
-5.55
-6.05
-6.22
-5.85
-4.84
-3.23
-1.22
0.82
2.54
3.67
4.13
4.01
3.51
2.85
2.21
1.71
1.36
1.19
1.17
1.28
1.53
1.87
2.23
2.54
2.71
2.68
2.50
2.21
1.91
1.62
1.29
0.84
0.22
-0.56
-1.40
-2.15
-2.71
-3.06
-3.25
-3.37
-3.49
-3.65
-3.85
-4.09
-4.37
-4.75
-5.29
-5.95
-6.60
-6.99
-6.86
-6.08
-4.69
-2.90
-1.00
0.75
2.23
3.41
4.31
4.94
5.23
5.13
4.64
3.85
2.95
2.18
1.69
1.56
1.77
2.23
2.76
3.19
3.39
3.30
2.98
2.57
2.17
1.80
1.40
0.85
0.13
-0.70
-1.47
-2.04
-2.34
-2.47
-2.59
-2.83
-3.21
-3.65
-4.04
-4.33
-4.56
-4.85
-5.25
-5.76
-6.26
-6.59
-6.63
-6.27
-5.46
-4.16
-2.41
-0.33
1.82
3.74
5.13
5.83
5.88
5.46
4.81
4.10
3.40
2.72
2.09
1.58
1.33
1.44
1.92
2.61
3.29
3.74
3.86
3.64
3.20
2.63
2.02
1.40
0.81
0.30
-0.09
-0.35
-0.52
-0.70
-0.97
-1.41
-1.97
-2.57
-3.09
-3.45
-3.66
-3.83
-4.09
-4.56
-5.26
-6.06
-6.68
-6.82
-6.24
-4.91
-3.00
-0.84
1.21
2.90
4.12
4.87
5.19
5.13
4.73
4.08
3.29
2.53
1.91
1.53
1.42
1.56
1.94
2.48
3.05
3.49
3.62
3.38
2.86
2.21
1.62
1.13
0.65
0.07
-0.69
-1.55
-2.33
-2.84
-3.02
-2.96
-2.87
-3.00
-3.46
-4.21
-5.10
-5.96
-6.63
-7.04
-7.10
-6.80
-6.07
-4.89
-3.29
-1.38
0.61
2.45
3.94
4.98
5.59
5.85
5.82
5.50
4.87
3.99
2.97
2.06
1.47
1.32
1.59
2.11
2.66
3.07
3.26
3.23
3.02
2.66
2.21
1.70
1.17
0.67
0.23
-0.18
-0.58
-1.00
-1.43
-1.83
-2.20
-2.50
-2.78
-3.08
-3.46
-3.97
-4.62
-5.38
-6.16
-6.81
-7.14
-6.98
-6.22
-4.84
-2.94
-0.69
1.63
3.76
5.48
6.67
7.29
7.37
7.01
6.32
5.44
4.57
3.88
3.52
3.50
3.75
4.10
4.34
4.34
4.09
3.65
3.13
2.61
2.13
1.70
1.27
0.86
0.48
0.14
-0.17
-0.48
-0.81
-1.20
-1.66
-2.17
-2.70
-3.18
-3.62
-4.01
-4.40
-4.84
-5.33
-5.85
-6.31
-6.60
-6.59
-6.19
-5.35
-4.10
-2.53
-0.78
1.01
2.69
4.17
5.33
6.09
6.38
6.15
5.49
4.55
3.57
2.80
2.38
2.35
2.64
3.12
3.64
4.10
4.45
4.68
4.77
4.69
4.40
3.84
3.04
2.06
1.02
0.07
-0.70
-1.22
-1.57
-1.81
-2.05
-2.29
-2.51
-2.65
-2.68
-2.66
-2.68
-2.86
-3.26
-3.89
-4.65
-5.39
-5.90
-6.01
-5.61
-4.70
-3.36
-1.74
-0.02
1.63
3.03
4.08
4.71
4.95
4.87
4.55
4.08
3.54
2.96
2.42
2.01
1.84
1.95
2.29
2.71
3.02
3.06
2.83
2.41
1.93
1.49
1.08
0.66
0.16
-0.42
-1.02
-1.55
-1.94
-2.20
-2.39
-2.59
-2.88
-3.29
-3.78
-4.31
-4.82
-5.27
-5.66
-6.01
-6.34
-6.63
-6.80
-6.72
-6.24
-5.26
-3.76
-1.83
0.32
2.40
4.14
5.33
5.88
5.83
5.34
4.61
3.84
3.19
2.73
2.50
2.44
2.50
2.64
2.83
3.06
3.31
3.51
3.54
3.30
2.75
1.99
1.20
0.59
0.25
0.11
-0.00
-0.28
-0.80
-1.48
-2.14
-2.60
-2.80
-2.78
-2.69
-2.64
-2.73
-3.01
-3.52
-4.26
-5.18
-6.16
-6.98
-7.38
-7.14
-6.15
-4.48
-2.36
-0.12
1.95
3.59
4.69
5.25
5.35
5.10
4.62
4.03
3.42
2.91
2.59
2.52
2.70
3.02
3.35
3.55
3.55
3.37
3.05
2.65
2.20
1.72
1.21
0.73
0.31
0.00
-0.19
-0.32
-0.45
-0.66
-0.97
-1.39
-1.87
-2.37
-2.84
-3.21
-3.47
-3.62
-3.72
-3.85
-4.09
-4.49
-5.00
-5.51
-5.86
-5.88
-5.44
-4.52
-3.16
-1.53
0.18
1.77
3.10
4.06
4.64
4.81
4.63
4.14
3.47
2.76
2.16
1.79
1.73
1.96
2.39
2.91
3.33
3.52
3.39
2.95
2.31
1.68
1.19
0.87
0.65
0.39
-0.01
-0.52
-1.04
-1.42
-1.62
-1.65
-1.64
-1.70
-1.89
-2.22
-2.63
-3.11
-3.68
-4.40
-5.31
-6.32
-7.26
-7.83
-7.79
-7.01
-5.59
-3.77
-1.87
-0.13
1.34
2.57
3.62
4.46
5.00
5.11
4.75
4.00
3.10
2.31
1.85
1.77
2.00
2.38
2.76
3.06
3.26
3.39
3.45
3.38
3.11
2.60
1.87
1.07
0.36
-0.15
-0.43
-0.58
-0.72
-0.97
-1.37
-1.88
-2.44
-3.01
-3.55
-4.05
-4.50
-4.89
-5.28
-5.75
-6.35
-7.07
-7.78
-8.24
-8.21
-7.52
-6.13
-4.19
-1.91
0.43
2.56
4.25
5.35
5.83
5.76
5.31
4.68
4.06
3.54
3.18
2.97
2.92
3.03
3.30
3.68
4.05
4.28
4.29
4.03
3.54
2.91
2.28
1.73
1.33
1.10
1.02
1.04
1.11
1.14
1.03
0.71
0.15
-0.58
-1.35
-2.02
-2.48
-2.71
-2.78
-2.84
-3.02
-3.45
-4.19
-5.21
-6.36
-7.40
-7.98
-7.78
-6.66
-4.70
-2.24
0.23
2.26
3.65
4.43
4.80
4.97
5.04
4.96
4.63
4.01
3.21
2.46
2.01
1.98
2.37
3.00
3.67
4.22
4.53
4.59
4.41
4.01
3.44
2.78
2.09
1.44
0.85
0.31
-0.17
-0.57
-0.88
-1.07
-1.16
-1.23
-1.36
-1.61
-1.98
-2.41
-2.81
-3.13
-3.41
-3.70
-4.11
-4.68
-5.37
-6.02
-6.38
-6.21
-5.36
-3.82
-1.82
0.33
2.27
3.74
4.64
5.03
5.05
4.86
4.58
4.21
3.75
3.18
2.55
1.99
1.64
1.58
1.81
2.17
2.51
2.66
2.56
2.24
1.76
1.20
0.58
-0.07
-0.73
-1.37
-1.91
-2.29
-2.49
-2.56
-2.56
-2.61
-2.76
-3.05
-3.42
-3.80
-4.10
-4.29
-4.41
-4.55
-4.82
-5.26
-5.76
-6.10
-6.03
-5.38
-4.12
-2.40
-0.45
1.47
3.15
4.43
5.26
5.64
5.61
5.25
4.66
3.96
3.27
2.67
2.28
2.18
2.42
2.96
3.64
4.24
4.56
4.49
4.08
3.41
2.64
1.86
1.13
0.50
0.01
-0.31
-0.50
-0.62
-0.79
-1.07
-1.45
-1.84
-2.14
-2.31
-2.39
-2.49
-2.74
-3.17
-3.74
-4.40
-5.06
-5.72
-6.38
-6.98
-7.39
-7.41
-6.83
-5.57
-3.71
-1.50
0.72
2.66
4.12
5.03
5.43
5.40
5.03
4.44
3.75
3.09
2.57
2.25
2.16
2.25
2.48
2.74
2.96
3.05
2.96
2.70
2.35
2.00
1.73
1.55
1.41
1.21
0.90
0.46
-0.05
-0.59
-1.07
-1.46
-1.73
-1.89
-1.96
-2.02
-2.17
-2.49
-2.99
-3.61
-4.25
-4.81
-5.25
-5.59
-5.81
-5.80
-5.45
-4.67
-3.46
-1.97
-0.40
1.06
2.31
3.35
4.18
4.77
5.02
4.85
4.30
3.51
2.73
2.17
1.96
2.04
2.29
2.54
2.71
2.79
2.80
2.74
2.58
2.29
1.86
1.35
0.89
0.56
0.33
0.10
-0.26
-0.85
-1.60
-2.36
-2.93
-3.24
-3.32
-3.35
-3.49
-3.87
-4.50
-5.33
-6.22
-7.04
-7.64
-7.88
-7.63
-6.82
-5.44
-3.64
-1.60
0.43
2.27
3.78
4.88
5.56
5.81
5.66
5.16
4.40
3.55
2.79
2.27
2.06
2.12
2.32
2.52
2.62
2.59
2.52
2.48
2.51
2.52
2.41
2.05
1.42
0.59
-0.29
-1.06
-1.61
-1.91
-2.03
-2.06
-2.09
-2.20
-2.44
-2.83
-3.30
-3.81
-4.29
-4.73
-5.17
-5.70
-6.37
-7.08
-7.60
-7.63
-6.90
-5.33
-3.12
-0.64
1.70
3.59
4.94
5.80
6.29
6.49
6.34
5.81
4.94
3.93
3.09
2.68
2.78
3.24
3.79
4.17
4.26
4.11
3.86
3.63
3.39
3.05
2.53
1.84
1.08
0.42
-0.05
-0.32
-0.49
-0.63
-0.81
-1.03
-1.29
-1.57
-1.86
-2.16
-2.46
-2.74
-3.05
-3.42
-3.92
-4.54
-5.25
-5.90
-6.32
-6.37
-5.93
-4.97
-3.55
-1.84
-0.00
1.75
3.30
4.59
5.60
6.28
6.58
6.43
5.81
4.85
3.78
2.86
2.28
2.08
2.16
2.35
2.53
2.64
2.70
2.71
2.64
2.45
2.08
1.55
0.94
0.35
-0.12
-0.43
-0.65
-0.87
-1.15
-1.50
-1.85
-2.14
-2.34
-2.53
-2.78
-3.17
-3.67
-4.19
-4.62
-4.92
-5.11
-5.25
-5.34
-5.29
-4.91
-4.08
-2.75
-1.04
0.81
2.53
3.87
4.67
4.92
4.70
4.18
3.54
2.94
2.50
2.23
2.12
2.12
2.21
2.34
2.51
2.68
2.76
2.71
2.48
2.10
1.64
1.19
0.77
0.40
0.03
-0.37
-0.78
-1.18
-1.51
-1.77
-1.96
-2.14
-2.34
-2.59
-2.91
-3.28
-3.70
-4.18
-4.71
-5.27
-5.87
-6.48
-7.03
-7.36
-7.22
-6.40
-4.79
-2.54
-0.02
2.31
4.11
5.23
5.75
5.88
5.79
5.54
5.13
4.55
3.90
3.35
3.07
3.10
3.38
3.74
4.01
4.09
3.99
3.75
3.41
2.99
2.48
1.89
1.25
0.64
0.09
-0.36
-0.77
-1.18
-1.65
-2.19
-2.77
-3.33
-3.79
-4.13
-4.35
-4.48
-4.61
-4.80
-5.09
-5.47
-5.87
-6.19
-6.31
-6.10
-5.45
-4.31
-2.72
-0.82
1.17
2.97
4.37
5.26
5.62
5.52
5.07
4.37
3.54
2.68
1.96
1.53
1.50
1.82
2.36
2.88
3.19
3.23
3.07
2.88
2.79
2.83
2.87
2.75
2.38
1.78
1.09
0.48
0.03
-0.29
-0.61
-1.02
-1.52
-2.01
-2.38
-2.56
-2.62
-2.67
-2.85
-3.22
-3.79
-4.45
-5.09
-5.61
-5.86
-5.73
-5.11
-3.96
-2.38
-0.54
1.28
2.88
4.07
4.78
4.99
4.78
4.25
3.58
2.94
2.50
2.32
2.35
2.49
2.62
2.72
2.81
2.92
3.05
3.12
2.98
2.56
1.89
1.06
0.21
-0.56
-1.25
-1.91
-2.59
-3.27
-3.86
-4.28
-4.49
-4.51
-4.45
-4.42
-4.49
-4.70
-5.04
-5.46
-5.89
-6.22
-6.31
-5.99
-5.13
-3.74
-1.94
0.06
1.99
3.64
4.84
5.54
5.75
5.54
5.04
4.39
3.73
3.17
2.78
2.57
2.51
2.53
2.58
2.58
2.49
2.30
2.01
1.66
1.24
0.81
0.37
0.00
-0.24
-0.33
-0.30
-0.26
-0.36
-0.72
-1.35
-2.13
-2.88
-3.44
-3.73
-3.80
-3.79
-3.88
-4.20
-4.77
-5.46
-6.05
-6.25
-5.85
-4.80
-3.18
-1.20
0.86
2.77
4.34
5.46
6.11
6.26
5.99
5.40
4.64
3.92
3.41
3.21
3.32
3.66
4.06
4.38
4.52
4.44
4.17
3.74
3.18
2.53
1.85
1.24
0.79
0.51
0.33
0.08
-0.37
-1.06
-1.90
-2.72
-3.35
-3.72
-3.87
-3.90
-3.93
-4.01
-4.18
-4.43
-4.78
-5.19
-5.59
-5.82
-5.72
-5.11
-3.96
-2.34
-0.46
1.44
3.12
4.44
5.28
5.65
5.59
5.23
4.70
4.12
3.61
3.22
2.97
2.86
2.87
2.99
3.17
3.35
3.42
3.28
2.89
2.24
1.43
0.61
-0.10
-0.62
-0.95
-1.19
-1.45
-1.82
-2.29
-2.80
-3.23
-3.49
-3.55
-3.49
-3.40
-3.39
-3.56
-3.91
-4.42
-4.95
-5.32
-5.30
-4.75
-3.62
-2.02
-0.16
1.69
3.31
4.54
5.31
5.60
5.44
4.91
4.13
3.28
2.53
2.01
1.74
1.65
1.63
1.62
1.58
1.57
1.61
1.66
1.64
1.43
0.95
0.27
-0.46
-1.04
-1.34
-1.38
-1.27
-1.26
-1.51
-2.08
-2.90
-3.75
-4.44
-4.84
-4.94
-4.89
-4.89
-5.15
-5.68
-6.36
-6.90
-6.98
-6.38
-5.11
-3.35
-1.37
0.58
2.35
3.85
4.99
5.68
5.85
5.51
4.79
3.94
3.20
2.75
2.62
2.75
3.03
3.33
3.56
3.66
3.60
3.41
3.18
2.98
2.86
2.76
2.57
2.20
1.61
0.90
0.20
-0.35
-0.72
-0.96
-1.22
-1.59
-2.12
-2.73
-3.29
-3.73
-4.02
-4.24
-4.49
-4.88
-5.42
-6.09
-6.76
-7.28
-7.43
-7.03
-5.94
-4.18
-1.90
0.57
2.89
4.75
5.93
6.41
6.26
5.65
4.83
4.00
3.38
3.05
3.03
3.22
3.47
3.67
3.74
3.66
3.47
3.20
2.89
2.57
2.26
1.96
1.65
1.30
0.89
0.42
-0.09
-0.57
-1.01
-1.35
-1.60
-1.80
-2.03
-2.35
-2.79
-3.29
-3.75
-4.07
-4.23
-4.34
-4.54
-4.94
-5.52
-6.11
-6.44
-6.29
-5.57
-4.34
-2.79
-1.15
0.45
1.91
3.21
4.30
5.07
5.42
5.28
4.72
3.91
3.11
2.54
2.34
2.49
2.88
3.35
3.79
4.14
4.36
4.45
4.32
3.88
3.09
1.98
0.73
-0.41
-1.25
-1.70
-1.84
-1.85
-1.95
-2.23
-2.70
-3.24
-3.73
-4.11
-4.40
-4.63
-4.84
-5.07
-5.31
-5.60
-5.98
-6.43
-6.84
-7.00
-6.66
-5.63
-3.90
-1.62
0.89
3.27
5.18
6.44
6.98
6.85
6.19
5.20
4.08
3.07
2.35
2.06
2.22
2.74
3.41
4.00
4.31
4.27
3.91
3.39
2.86
2.39
1.96
1.45
0.82
0.09
-0.61
-1.12
-1.35
-1.32
-1.19
-1.13
-1.30
-1.73
-2.35
-3.03
-3.67
-4.20
-4.64
-5.04
-5.44
-5.87
-6.34
-6.78
-7.12
-7.23
-6.92
-6.08
-4.63
-2.64
-0.32
2.03
4.11
5.66
6.57
6.84
6.55
5.88
4.97
4.03
3.22
2.67
2.46
2.61
3.01
3.51
3.93
4.13
4.03
3.67
3.16
2.61
2.16
1.84
1.61
1.40
1.14
0.79
0.37
-0.06
-0.46
-0.84
-1.23
-1.68
-2.18
-2.67
-3.08
-3.36
-3.53
-3.69
-4.00
-4.51
-5.22
-5.98
-6.58
-6.82
-6.57
-5.80
-4.55
-2.98
-1.24
0.50
2.12
3.50
4.57
5.25
5.47
5.25
4.64
3.83
3.01
2.39
2.07
2.04
2.21
2.44
2.66
2.85
3.03
3.19
3.27
3.16
2.77
2.14
1.41
0.76
0.32
0.07
-0.13
-0.47
-1.02
-1.74
-2.48
-3.09
-3.49
-3.74
-3.94
-4.16
-4.47
-4.86
-5.32
-5.86
-6.42
-6.88
-7.04
-6.66
-5.60
-3.86
-1.64
0.73
2.91
4.63
5.79
6.40
6.56
6.34
5.79
4.97
3.99
3.02
2.29
1.97
2.10
2.57
3.13
3.56
3.71
3.60
3.33
3.02
2.72
2.40
1.99
1.46
0.83
0.19
-0.33
-0.66
-0.81
-0.86
-0.95
-1.20
-1.67
-2.38
-3.25
-4.18
-5.07
-5.82
-6.37
-6.70
-6.86
-6.96
-7.13
-7.45
-7.91
-8.35
-8.50
-8.04
-6.83
-4.88
-2.43
0.15
2.52
4.41
5.76
6.57
6.94
6.90
6.51
5.83
4.96
4.07
3.35
2.94
2.92
3.25
3.78
4.31
4.67
4.72
4.45
3.96
3.41
2.92
2.55
2.28
2.02
1.71
1.34
1.00
0.74
0.59
0.46
0.24
-0.14
-0.68
-1.28
-1.86
-2.36
-2.83
-3.36
-3.97
-4.65
-5.32
-5.92
-6.45
-6.96
-7.47
-7.91
-8.09
-7.75
-6.71
-4.96
-2.68
-0.19
2.17
4.13
5.59
6.50
6.92
6.88
6.44
5.67
4.71
3.77
3.07
2.80
3.01
3.59
4.33
4.93
5.20
5.09
4.69
4.17
3.70
3.31
2.98
2.59
2.09
1.49
0.86
0.32
-0.06
-0.26
-0.31
-0.31
-0.39
-0.65
-1.17
-1.95
-2.89
-3.81
-4.55
-4.99
-5.11
-5.00
-4.83
-4.77
-4.95
-5.39
-6.00
-6.58
-6.84
-6.52
-5.44
-3.66
-1.42
0.89
2.90
4.37
5.25
5.63
5.63
5.34
4.82
4.14
3.43
2.86
2.55
2.54
2.75
3.01
3.17
3.13
2.95
2.72
2.57
2.53
2.58
2.60
2.44
1.99
1.25
0.35
-0.49
-1.08
-1.31
-1.22
-1.02
-0.93
-1.12
-1.62
-2.30
-3.00
-3.54
-3.88
-4.08
-4.20
-4.32
-4.45
-4.58
-4.67
-4.71
-4.65
-4.43
-3.95
-3.10
-1.85
-0.28
1.38
2.86
3.93
4.46
4.47
4.06
3.41
2.66
1.93
1.33
0.94
0.81
0.95
1.33
1.85
2.38
2.82
3.08
3.11
2.90
2.48
1.92
1.29
0.70
0.20
-0.20
-0.57
-0.99
-1.50
-2.04
-2.50
-2.76
-2.81
-2.72
-2.65
-2.71
-2.93
-3.23
-3.56
-3.89
-4.31
-4.91
-5.71
-6.60
-7.32
-7.55
-7.04
-5.75
-3.82
-1.57
0.66
2.59
4.04
4.98
5.45
5.52
5.25
4.72
4.04
3.34
2.77
2.40
2.25
2.27
2.35
2.44
2.48
2.47
2.38
2.24
2.03
1.76
1.46
1.17
0.89
0.64
0.37
0.06
-0.30
-0.72
-1.16
-1.61
-2.05
-2.47
-2.83
-3.09
-3.23
-3.28
-3.30
-3.42
-3.72
-4.24
-4.91
-5.61
-6.18
-6.46
-6.33
-5.72
-4.62
-3.06
-1.15
0.93
2.90
4.49
5.46
5.75
5.42
4.69
3.81
2.96
2.23
1.65
1.24
1.03
1.10
1.49
2.15
2.93
3.62
4.01
4.00
3.59
2.87
1.98
1.11
0.39
-0.07
-0.23
-0.17
0.02
0.15
0.12
-0.15
-0.61
-1.20
-1.86
-2.55
-3.26
-3.93
-4.50
-4.90
-5.12
-5.22
-5.34
-5.57
-5.89
-6.14
-6.06
-5.44
-4.24
-2.57
-0.71
1.08
2.57
3.68
4.37
4.70
4.71
4.46
4.03
3.52
3.03
2.64
2.42
2.34
2.38
2.46
2.53
2.58
2.61
2.63
2.61
2.50
2.23
1.77
1.10
0.28
-0.62
-1.48
-2.20
-2.69
-2.94
-3.02
-3.05
-3.16
-3.39
-3.71
-4.00
-4.19
-4.29
-4.45
-4.81
-5.43
-6.18
-6.73
-6.72
-5.92
-4.31
-2.11
0.29
2.53
4.30
5.45
5.95
5.88
5.40
4.71
3.99
3.38
2.93
2.66
2.57
2.66
2.89
3.19
3.41
3.38
3.03
2.39
1.65
0.99
0.50
0.16
-0.12
-0.43
-0.76
-1.07
-1.31
-1.47
-1.65
-1.92
-2.32
-2.81
-3.33
-3.78
-4.14
-4.45
-4.78
-5.20
-5.75
-6.35
-6.86
-7.01
-6.55
-5.31
-3.32
-0.82
1.80
4.12
5.80
6.71
6.85
6.37
5.52
4.53
3.64
3.00
2.69
2.68
2.88
3.21
3.55
3.83
4.02
4.11
4.05
3.82
3.41
2.84
2.19
1.59
1.11
0.77
0.50
0.17
-0.30
-0.90
-1.52
-2.03
-2.35
-2.53
-2.69
-2.94
-3.37
-3.97
-4.73
-5.59
-6.42
-7.06
-7.26
-6.80
-5.59
-3.73
-1.50
0.73
2.63
4.05
4.97
5.49
5.69
5.65
5.39
4.96
4.46
3.97
3.56
3.28
3.12
3.09
3.21
3.51
3.92
4.30
4.45
4.20
3.56
2.69
1.83
1.19
0.81
0.57
0.31
-0.11
-0.68
-1.32
-1.93
-2.44
-2.84
-3.14
-3.33
-3.37
-3.32
-3.28
-3.42
-3.83
-4.47
-5.11
-5.45
-5.21
-4.28
-2.77
-0.94
0.88
2.45
3.64
4.41
4.80
4.85
4.61
4.14
3.50
2.84
2.25
1.88
1.77
1.95
2.36
2.89
3.39
3.70
3.68
3.26
2.49
1.49
0.44
-0.48
-1.17
-1.62
-1.92
-2.17
-2.45
-2.79
-3.17
-3.51
-3.79
-3.97
-4.08
-4.18
-4.35
-4.63
-5.06
-5.55
-5.95
-6.05
-5.68
-4.75
-3.32
-1.55
0.31
2.07
3.53
4.57
5.13
5.19
4.82
4.16
3.42
2.80
2.41
2.24
2.24
2.36
2.55
2.82
3.13
3.38
3.43
3.18
2.61
1.84
1.08
0.49
0.13
-0.05
-0.17
-0.35
-0.64
-1.06
-1.62
-2.30
-3.08
-3.90
-4.69
-5.36
-5.89
-6.31
-6.66
-6.96
-7.12
-7.03
-6.55
-5.65
-4.39
-2.92
-1.38
0.14
1.59
2.98
4.26
5.31
5.98
6.14
5.77
4.98
4.00
3.12
2.55
2.43
2.72
3.30
3.96
4.49
4.73
4.59
4.09
3.34
2.46
1.61
0.85
0.21
-0.35
-0.83
-1.23
-1.52
-1.70
-1.81
-1.94
-2.17
-2.55
-3.04
-3.54
-3.99
-4.34
-4.62
-4.92
-5.30
-5.71
-6.05
-6.12
-5.73
-4.80
-3.33
-1.50
0.44
2.23
3.68
4.72
5.36
5.66
5.64
5.32
4.72
3.91
3.07
2.40
2.07
2.12
2.42
2.73
2.87
2.74
2.40
2.02
1.72
1.57
1.53
1.45
1.22
0.77
0.13
-0.61
-1.31
-1.87
-2.25
-2.46
-2.56
-2.61
-2.65
-2.72
-2.86
-3.13
-3.58
-4.22
-4.93
-5.50
-5.67
-5.24
-4.15
-2.54
-0.68
1.13
2.60
3.62
4.16
4.31
4.20
3.93
3.58
3.22
2.90
2.70
2.64
2.71
2.85
2.98
3.03
3.02
2.97
2.92
2.86
2.73
2.45
1.98
1.33
0.57
-0.19
-0.85
-1.36
-1.73
-1.98
-2.18
-2.35
-2.52
-2.75
-3.09
-3.57
-4.21
-4.95
-5.68
-6.28
-6.68
-6.87
-6.89
-6.73
-6.35
-5.62
-4.43
-2.77
-0.79
1.26
3.09
4.54
5.53
6.11
6.34
6.28
5.95
5.40
4.74
4.13
3.72
3.60
3.74
3.99
4.17
4.15
3.90
3.50
3.06
2.66
2.32
2.00
1.66
1.32
0.99
0.71
0.47
0.21
-0.15
-0.63
-1.18
-1.73
-2.19
-2.52
-2.73
-2.88
-3.01
-3.17
-3.39
-3.73
-4.19
-4.75
-5.36
-5.90
-6.25
-6.27
-5.88
-5.03
-3.75
-2.11
-0.28
1.55
3.15
4.36
5.13
5.51
5.63
5.59
5.43
5.15
4.72
4.16
3.58
3.08
2.78
2.68
2.73
2.84
2.92
2.94
2.92
2.88
2.80
2.62
2.28
1.79
1.21
0.70
0.37
0.24
0.22
0.16
-0.06
-0.45
-0.93
-1.39
-1.76
-2.10
-2.51
-3.06
-3.75
-4.43
-4.98
-5.33
-5.54
-5.70
-5.86
-5.94
-5.75
-5.11
-3.92
-2.30
-0.49
1.24
2.67
3.73
4.45
4.87
5.03
4.89
4.45
3.73
2.87
2.05
1.50
1.35
1.62
2.20
2.88
3.42
3.68
3.57
3.17
2.59
1.97
1.40
0.92
0.50
0.11
-0.28
-0.65
-1.00
-1.34
-1.68
-2.07
-2.53
-3.03
-3.51
-3.91
-4.18
-4.31
-4.37
-4.46
-4.65
-4.99
-5.46
-5.98
-6.40
-6.56
-6.33
-5.65
-4.55
-3.12
-1.49
0.19
1.78
3.18
4.30
5.07
5.46
5.46
5.13
4.54
3.82
3.07
2.42
1.97
1.79
1.90
2.25
2.71
3.16
3.47
3.60
3.55
3.35
3.01
2.52
1.88
1.15
0.42
-0.18
-0.59
-0.84
-1.04
-1.31
-1.71
-2.19
-2.64
-2.94
-3.10
-3.20
-3.35
-3.63
-4.03
-4.48
-4.92
-5.36
-5.85
-6.42
-7.03
-7.48
-7.50
-6.84
-5.40
-3.27
-0.79
1.64
3.64
4.98
5.64
5.74
5.52
5.16
4.77
4.35
3.90
3.42
3.02
2.81
2.89
3.23
3.71
4.13
4.31
4.16
3.72
3.11
2.43
1.78
1.18
0.62
0.08
-0.45
-0.94
-1.35
-1.64
-1.82
-1.97
-2.13
-2.34
-2.59
-2.83
-3.01
-3.13
-3.23
-3.40
-3.71
-4.17
-4.73
-5.33
-5.90
-6.38
-6.70
-6.75
-6.41
-5.59
-4.31
-2.69
-0.94
0.75
2.26
3.55
4.56
5.21
5.40
5.04
4.17
2.97
1.76
0.86
0.50
0.68
1.27
2.04
2.75
3.28
3.58
3.69
3.66
3.50
3.21
2.78
2.23
1.64
1.10
0.66
0.33
0.07
-0.20
-0.49
-0.82
-1.20
-1.65
-2.17
-2.73
-3.25
-3.67
-3.94
-4.11
-4.35
-4.76
-5.38
-6.04
-6.48
-6.43
-5.79
-4.62
-3.12
-1.54
-0.01
1.42
2.75
3.92
4.79
5.18
5.00
4.30
3.35
2.48
1.97
1.91
2.20
2.61
2.93
3.07
3.04
2.89
2.68
2.39
2.01
1.55
1.04
0.56
0.16
-0.18
-0.54
-0.95
-1.41
-1.87
-2.30
-2.70
-3.11
-3.56
-3.97
-4.26
-4.31
-4.14
-3.87
-3.76
-4.04
-4.75
-5.75
-6.76
-7.44
-7.52
-6.90
-5.59
-3.68
-1.37
1.07
3.34
5.13
6.20
6.48
6.08
5.25
4.30
3.48
2.95
2.79
2.96
3.39
3.99
4.62
5.14
5.42
5.40
5.07
4.49
3.74
2.91
2.10
1.37
0.78
0.34
0.04
-0.18
-0.42
-0.72
-1.11
-1.55
-2.01
-2.45
-2.87
-3.27
-3.68
-4.12
-4.58
-5.06
-5.54
-5.97
-6.29
-6.39
-6.15
-5.45
-4.25
-2.63
-0.78
1.08
2.76
4.13
5.12
5.71
5.88
5.58
4.85
3.82
2.74
1.88
1.50
1.65
2.23
2.99
3.67
4.08
4.16
3.97
3.61
3.19
2.76
2.38
2.04
1.76
1.53
1.33
1.08
0.74
0.27
-0.28
-0.84
-1.30
-1.59
-1.74
-1.86
-2.07
-2.48
-3.10
-3.85
-4.61
-5.27
-5.74
-5.96
-5.86
-5.39
-4.49
-3.17
-1.51
0.32
2.07
3.51
4.44
4.79
4.62
4.07
3.30
2.51
1.82
1.35
1.17
1.30
1.68
2.22
2.76
3.16
3.33
3.27
3.01
2.64
2.21
1.75
1.25
0.71
0.10
-0.58
-1.35
-2.16
-2.96
-3.63
-4.11
-4.35
-4.40
-4.38
-4.40
-4.58
-4.94
-5.43
-5.92
-6.22
-6.16
-5.60
-4.53
-3.05
-1.37
0.28
1.71
2.80
3.52
3.90
4.00
3.86
3.54
3.06
2.46
1.76
1.04
0.42
0.01
-0.07
0.18
0.64
1.09
1.30
1.14
0.64
-0.11
-0.98
-1.88
-2.79
-3.72
-4.66
-5.57
-6.38
-7.01
-7.44
-7.72
-7.90
-8.09
-8.30
-8.48
-8.52
-8.30
-7.72
-6.80
-5.64
-4.34
-2.99
-1.56
0.04
1.89
4.03
6.34
8.57
10.44
11.67
12.12
11.77
10.80
9.48
8.11
6.95
6.16
5.74
5.59
5.60
5.66
5.70
5.67
5.54
5.26
4.80
4.20
3.53
2.88
2.31
1.82
1.38
0.90
0.35
-0.28
-0.95
-1.59
-2.15
-2.56
-2.84
-3.02
-3.18
-3.45
-3.87
-4.46
-5.15
-5.78
-6.18
-6.16
-5.60
-4.47
-2.84
-0.90
1.10
2.89
4.27
5.09
5.37
5.22
4.78
4.17
3.48
2.73
2.00
1.39
1.05
1.06
1.40
1.94
2.43
2.65
2.49
1.99
1.34
0.74
0.36
0.19
0.10
-0.08
-0.47
-1.06
-1.70
-2.18
-2.36
-2.25
-2.02
-1.91
-2.12
-2.66
-3.44
-4.22
-4.82
-5.09
-4.99
-4.50
-3.65
-2.49
-1.12
0.32
1.71
2.92
3.86
4.45
4.67
4.50
3.99
3.27
2.52
1.89
1.51
1.41
1.53
1.78
2.03
2.22
2.28
2.19
1.96
1.57
1.07
0.47
-0.14
-0.72
-1.21
-1.60
-1.93
-2.24
-2.58
-2.96
-3.36
-3.73
-4.06
-4.36
-4.67
-5.03
-5.44
-5.85
-6.20
-6.40
-6.36
-5.99
-5.24
-4.12
-2.70
-1.12
0.48
2.00
3.37
4.53
5.41
5.87
5.84
5.34
4.51
3.64
2.98
2.72
2.82
3.12
3.41
3.54
3.45
3.19
2.83
2.42
1.97
1.45
0.88
0.29
-0.29
-0.84
-1.34
-1.78
-2.16
-2.42
-2.57
-2.68
-2.85
-3.21
-3.79
-4.50
-5.16
-5.61
-5.78
-5.77
-5.69
-5.63
-5.45
-4.92
-3.79
-1.97
0.36
2.80
4.88
6.28
6.89
6.84
6.40
5.81
5.21
4.67
4.22
3.89
3.74
3.79
3.99
4.26
4.45
4.48
4.29
3.94
3.49
3.02
2.57
2.13
1.68
1.16
0.56
-0.13
-0.90
-1.67
-2.39
-2.98
-3.44
-3.80
-4.13
-4.50
-4.96
-5.49
-5.99
-6.32
-6.32
-5.89
-4.98
-3.68
-2.11
-0.45
1.14
2.56
3.74
4.62
5.14
5.22
4.85
4.13
3.31
2.67
2.44
2.69
3.26
3.88
4.28
4.31
4.01
3.53
3.01
2.52
2.03
1.44
0.72
-0.08
-0.83
-1.38
-1.66
-1.70
-1.64
-1.65
-1.86
-2.33
-2.98
-3.67
-4.29
-4.77
-5.13
-5.38
-5.50
-5.40
-4.92
-3.97
-2.60
-0.99
0.62
2.02
3.08
3.79
4.18
4.28
4.09
3.62
2.97
2.28
1.76
1.54
1.63
1.93
2.23
2.40
2.35
2.14
1.86
1.56
1.23
0.84
0.38
-0.12
-0.61
-1.01
-1.31
-1.56
-1.83
-2.19
-2.68
-3.27
-3.92
-4.58
-5.21
-5.70
-5.94
-5.77
-5.06
-3.80
-2.13
-0.32
1.33
2.60
3.42
3.87
4.08
4.16
4.11
3.89
3.44
2.80
2.06
1.36
0.81
0.44
0.24
0.17
0.20
0.33
0.54
0.74
0.84
0.75
0.42
-0.12
-0.77
-1.44
-2.05
-2.58
-2.99
-3.30
-3.55
-3.78
-4.08
-4.51
-5.08
-5.70
-6.20
-6.40
-6.13
-5.32
-4.03
-2.41
-0.63
1.11
2.64
3.86
4.69
5.10
5.11
4.76
4.17
3.47
2.82
2.36
2.18
2.29
2.59
2.92
3.12
3.09
2.81
2.36
1.87
1.46
1.18
0.99
0.79
0.46
-0.08
-0.85
-1.78
-2.76
-3.65
-4.35
-4.83
-5.13
-5.33
-5.53
-5.77
-6.03
-6.23
-6.25
-5.98
-5.35
-4.32
-2.89
-1.16
0.72
2.53
4.05
5.06
5.49
5.35
4.81
4.07
3.34
2.76
2.43
2.35
2.53
2.93
3.45
3.95
4.28
4.31
3.99
3.35
2.52
1.63
0.81
0.12
-0.42
-0.82
-1.10
-1.27
-1.35
-1.37
-1.37
-1.42
-1.60
-1.99
-2.65
-3.58
-4.65
-5.66
-6.32
-6.42
-5.90
-4.85
-3.46
-1.95
-0.43
1.06
2.49
3.84
4.95
5.63
5.73
5.22
4.27
3.15
2.18
1.60
1.51
1.82
2.36
2.92
3.35
3.55
3.51
3.24
2.78
2.17
1.44
0.68
-0.04
-0.63
-1.05
-1.33
-1.51
-1.67
-1.87
-2.12
-2.47
-2.94
-3.53
-4.25
-5.01
-5.70
-6.17
-6.29
-5.94
-5.08
-3.72
-1.98
-0.08
1.74
3.26
4.33
4.95
5.18
5.09
4.75
4.17
3.42
2.63
1.98
1.63
1.65
1.97
2.41
2.76
2.86
2.66
2.24
1.71
1.20
0.79
0.52
0.35
0.23
0.08
-0.17
-0.54
-1.00
-1.52
-2.03
-2.51
-2.96
-3.39
-3.86
-4.42
-5.09
-5.85
-6.63
-7.26
-7.57
-7.36
-6.51
-5.03
-3.08
-0.92
1.16
2.92
4.25
5.14
5.61
5.74
5.58
5.20
4.63
3.98
3.36
2.90
2.69
2.75
3.00
3.32
3.56
3.64
3.49
3.14
2.69
2.22
1.78
1.37
0.93
0.41
-0.19
-0.82
-1.35
-1.66
-1.75
-1.70
-1.67
-1.81
-2.19
-2.71
-3.28
-3.77
-4.18
-4.56
-4.97
-5.45
-5.94
-6.36
-6.58
-6.49
-6.00
-5.09
-3.78
-2.18
-0.51
1.02
2.24
3.09
3.62
3.95
4.15
4.23
4.13
3.80
3.31
2.80
2.48
2.48
2.82
3.41
4.03
4.50
4.69
4.56
4.13
3.52
2.83
2.17
1.61
1.14
0.70
0.21
-0.37
-1.01
-1.58
-1.97
-2.13
-2.11
-2.05
-2.10
-2.35
-2.79
-3.35
-3.92
-4.49
-5.05
-5.64
-6.19
-6.59
-6.66
-6.23
-5.28
-3.87
-2.16
-0.30
1.54
3.23
4.59
5.43
5.60
5.08
4.03
2.81
1.78
1.25
1.27
1.75
2.44
3.10
3.55
3.69
3.54
3.15
2.60
1.99
1.38
0.82
0.35
-0.03
-0.33
-0.53
-0.65
-0.77
-1.00
-1.43
-2.13
-3.07
-4.07
-4.94
-5.53
-5.83
-5.92
-5.96
-6.07
-6.29
-6.56
-6.78
-6.85
-6.71
-6.30
-5.59
-4.53
-3.15
-1.52
0.20
1.81
3.09
3.93
4.31
4.30
4.05
3.71
3.40
3.20
3.15
3.25
3.45
3.66
3.80
3.83
3.75
3.61
3.46
3.32
3.16
2.94
2.58
2.07
1.44
0.73
-0.01
-0.75
-1.46
-2.09
-2.58
-2.84
-2.86
-2.70
-2.54
-2.52
-2.74
-3.23
-3.90
-4.63
-5.37
-6.07
-6.73
-7.29
-7.65
-7.62
-7.04
-5.84
-4.07
-1.95
0.24
2.20
3.70
4.69
5.22
5.44
5.49
5.45
5.27
4.94
4.44
3.88
3.40
3.16
3.20
3.48
3.83
4.11
4.22
4.17
4.03
3.88
3.73
3.52
3.18
2.62
1.86
0.98
0.13
-0.57
-1.03
-1.24
-1.23
-1.10
-0.97
-0.98
-1.21
-1.69
-2.39
-3.14
-3.77
-4.14
-4.23
-4.17
-4.16
-4.36
-4.84
-5.45
-5.94
-6.01
-5.46
-4.24
-2.50
-0.47
1.58
3.45
4.97
6.06
6.66
6.74
6.34
5.55
4.57
3.63
2.91
2.52
2.43
2.55
2.79
3.07
3.37
3.65
3.82
3.81
3.54
3.05
2.41
1.77
1.20
0.73
0.31
-0.10
-0.52
-0.92
-1.25
-1.50
-1.72
-1.95
-2.21
-2.48
-2.73
-2.98
-3.29
-3.75
-4.35
-5.03
-5.63
-6.02
-6.06
-5.71
-4.95
-3.78
-2.23
-0.41
1.48
3.19
4.48
5.23
5.47
5.32
4.95
4.43
3.82
3.14
2.48
1.96
1.72
1.82
2.19
2.68
3.08
3.27
3.22
2.99
2.65
2.25
1.76
1.15
0.43
-0.32
-1.01
-1.55
-1.91
-2.16
-2.41
-2.71
-3.07
-3.41
-3.65
-3.75
-3.76
-3.79
-4.00
-4.46
-5.15
-5.96
-6.69
-7.15
-7.18
-6.69
-5.66
-4.10
-2.15
0.00
2.09
3.85
5.06
5.64
5.65
5.25
4.66
4.06
3.58
3.27
3.15
3.18
3.36
3.64
4.00
4.36
4.64
4.73
4.58
4.16
3.54
2.79
2.01
1.23
0.48
-0.20
-0.76
-1.14
-1.32
-1.34
-1.37
-1.54
-1.94
-2.53
-3.18
-3.73
-4.07
-4.19
-4.13
-4.01
-3.93
-3.98
-4.26
-4.78
-5.47
-6.10
-6.36
-5.98
-4.80
-2.95
-0.73
1.44
3.22
4.41
5.01
5.14
4.95
4.60
4.19
3.80
3.53
3.43
3.49
3.63
3.75
3.73
3.55
3.25
2.93
2.63
2.35
2.03
1.64
1.20
0.73
0.29
-0.11
-0.47
-0.80
-1.06
-1.17
-1.11
-0.92
-0.80
-0.92
-1.43
-2.29
-3.32
-4.29
-5.06
-5.61
-6.02
-6.34
-6.50
-6.35
-5.70
-4.49
-2.87
-1.13
0.44
1.65
2.49
3.09
3.60
4.08
4.46
4.59
4.33
3.72
2.93
2.21
1.78
1.70
1.89
2.16
2.31
2.27
2.04
1.72
1.40
1.10
0.78
0.41
-0.01
-0.40
-0.68
-0.80
-0.84
-0.96
-1.35
-2.09
-3.10
-4.14
-4.94
-5.30
-5.22
-4.91
-4.68
-4.76
-5.20
-5.84
-6.44
-6.70
-6.46
-5.71
-4.51
-2.99
-1.30
0.43
2.08
3.50
4.57
5.18
5.31
5.01
4.40
3.66
2.94
2.38
2.03
1.91
2.01
2.28
2.64
2.99
3.23
3.28
3.11
2.77
2.32
1.83
1.32
0.77
0.16
-0.51
-1.22
-1.88
-2.42
-2.79
-3.02
-3.18
-3.38
-3.70
-4.16
-4.69
-5.18
-5.55
-5.79
-5.98
-6.18
-6.42
-6.54
-6.31
-5.49
-4.03
-2.05
0.12
2.17
3.84
5.05
5.81
6.19
6.21
5.91
5.33
4.62
3.98
3.56
3.47
3.65
3.98
4.31
4.52
4.59
4.47
4.12
3.51
2.65
1.63
0.65
-0.11
-0.53
-0.67
-0.67
-0.72
-0.87
-1.10
-1.32
-1.47
-1.60
-1.80
-2.18
-2.74
-3.38
-3.99
-4.48
-4.86
-5.17
-5.40
-5.44
-5.16
-4.41
-3.14
-1.46
0.41
2.22
3.75
4.90
5.59
5.84
5.70
5.22
4.51
3.67
2.86
2.23
1.92
1.98
2.33
2.84
3.31
3.58
3.56
3.28
2.83
2.33
1.86
1.45
1.08
0.69
0.24
-0.31
-0.94
-1.61
-2.26
-2.81
-3.24
-3.50
-3.64
-3.71
-3.77
-3.89
-4.11
-4.41
-4.74
-4.97
-4.95
-4.58
-3.79
-2.61
-1.12
0.56
2.27
3.79
4.91
5.47
5.42
4.85
3.97
3.03
2.23
1.64
1.30
1.16
1.23
1.49
1.90
2.34
2.63
2.67
2.42
1.95
1.34
0.67
-0.08
-0.92
-1.83
-2.70
-3.41
-3.89
-4.18
-4.40
-4.68
-5.08
-5.58
-6.15
-6.77
-7.50
-8.40
-9.44
-10.47
-11.26
-11.57
-11.30
-10.43
-9.08
-7.36
-5.45
-3.50
-1.68
-0.16
0.98
1.73
2.21
2.57
2.93
3.36
3.85
4.40
5.06
5.88
6.91
8.06
9.16
9.98
10.36
10.24
9.70
8.89
7.96
7.05
6.22
5.49
4.88
4.36
3.87
3.32
2.66
1.89
1.07
0.31
-0.31
-0.79
-1.19
-1.63
-2.18
-2.85
-3.62
-4.46
-5.29
-6.01
-6.47
-6.48
-5.91
-4.74
-3.10
-1.22
0.65
2.36
3.84
5.06
5.98
6.51
6.57
6.16
5.36
4.40
3.50
2.86
2.58
2.64
2.95
3.36
3.75
3.99
4.01
3.77
3.30
2.65
1.93
1.25
0.65
0.17
-0.21
-0.52
-0.80
-1.06
-1.32
-1.57
-1.82
-2.08
-2.35
-2.65
-2.98
-3.38
-3.89
-4.50
-5.21
-5.95
-6.60
-6.98
-6.94
-6.35
-5.19
-3.57
-1.73
0.06
1.57
2.69
3.45
3.94
4.23
4.34
4.26
3.98
3.54
3.05
2.64
2.37
2.25
2.26
2.36
2.50
2.68
2.83
2.91
2.83
2.52
2.02
1.38
0.74
0.17
-0.26
-0.58
-0.84
-1.11
-1.46
-1.91
-2.48
-3.15
-3.88
-4.56
-5.07
-5.35
-5.42
-5.39
-5.44
-5.73
-6.24
-6.78
-7.05
-6.74
-5.71
-4.03
-1.94
0.25
2.28
4.01
5.38
6.34
6.81
6.74
6.16
5.22
4.18
3.34
2.87
2.82
3.08
3.46
3.79
3.99
4.02
3.93
3.75
3.48
3.12
2.65
2.06
1.36
0.61
-0.09
-0.67
-1.05
-1.28
-1.46
-1.75
-2.27
-3.01
-3.82
-4.49
-4.87
-4.93
-4.84
-4.80
-4.98
-5.40
-5.97
-6.50
-6.85
-6.92
-6.68
-6.09
-5.12
-3.75
-2.02
-0.05
1.97
3.84
5.38
6.48
7.07
7.17
6.81
6.12
5.27
4.48
3.93
3.71
3.82
4.11
4.44
4.65
4.66
4.48
4.16
3.75
3.30
2.83
2.35
1.87
1.37
0.85
0.28
-0.32
-0.92
-1.41
-1.76
-1.95
-2.05
-2.18
-2.40
-2.72
-3.06
-3.35
-3.60
-3.85
-4.20
-4.71
-5.34
-5.99
-6.57
-7.00
-7.24
-7.22
-6.86
-6.04
-4.68
-2.83
-0.69
1.51
3.50
5.09
6.16
6.67
6.63
6.10
5.22
4.20
3.28
2.67
2.50
2.77
3.36
4.07
4.69
5.03
4.97
4.51
3.73
2.78
1.83
1.03
0.45
0.07
-0.19
-0.43
-0.71
-1.01
-1.27
-1.42
-1.45
-1.45
-1.54
-1.84
-2.38
-3.06
-3.73
-4.22
-4.49
-4.64
-4.85
-5.28
-5.95
-6.74
-7.39
-7.62
-7.21
-6.10
-4.42
-2.39
-0.31
1.58
3.15
4.34
5.15
5.57
5.55
5.09
4.29
3.33
2.44
1.83
1.60
1.74
2.17
2.79
3.50
4.21
4.78
5.07
4.94
4.40
3.54
2.55
1.64
0.92
0.46
0.23
0.14
0.12
0.07
-0.11
-0.48
-1.06
-1.77
-2.48
-3.03
-3.35
-3.47
-3.53
-3.71
-4.12
-4.79
-5.63
-6.47
-7.19
-7.73
-8.06
-8.13
-7.81
-6.99
-5.58
-3.66
-1.43
0.81
2.79
4.37
5.53
6.28
6.66
6.64
6.21
5.44
4.50
3.66
3.16
3.14
3.53
4.12
4.65
4.91
4.85
4.56
4.22
3.93
3.71
3.48
3.13
2.64
2.05
1.44
0.90
0.46
0.09
-0.24
-0.56
-0.85
-1.12
-1.39
-1.71
-2.10
-2.54
-2.97
-3.36
-3.73
-4.11
-4.56
-5.07
-5.57
-5.97
-6.25
-6.47
-6.73
-7.08
-7.41
-7.47
-6.94
-5.66
-3.65
-1.23
1.22
3.31
4.86
5.83
6.28
6.27
5.82
4.98
3.88
2.78
1.95
1.61
1.79
2.38
3.12
3.77
4.20
4.36
4.30
4.07
3.70
3.21
2.60
1.91
1.24
0.71
0.38
0.27
0.30
0.34
0.24
-0.09
-0.66
-1.36
-2.05
-2.59
-2.94
-3.17
-3.40
-3.73
-4.17
-4.64
-5.06
-5.36
-5.56
-5.70
-5.80
-5.76
-5.43
-4.65
-3.36
-1.65
0.25
2.06
3.54
4.55
5.05
5.09
4.77
4.21
3.55
2.96
2.56
2.38
2.39
2.46
2.51
2.53
2.57
2.71
2.99
3.30
3.47
3.35
2.87
2.09
1.18
0.32
-0.34
-0.78
-1.04
-1.22
-1.44
-1.79
-2.29
-2.91
-3.55
-4.10
-4.53
-4.88
-5.21
-5.59
-6.02
-6.44
-6.78
-7.05
-7.25
-7.39
-7.41
-7.17
-6.50
-5.27
-3.48
-1.29
1.03
3.18
4.89
6.02
6.58
6.68
6.47
6.08
5.57
4.98
4.38
3.88
3.60
3.64
3.96
4.42
4.79
4.91
4.72
4.28
3.71
3.10
2.46
1.78
1.03
0.27
-0.42
-0.94
-1.24
-1.33
-1.31
-1.28
-1.34
-1.55
-1.88
-2.31
-2.77
-3.23
-3.62
-3.92
-4.12
-4.26
-4.41
-4.70
-5.17
-5.79
-6.43
-6.82
-6.73
-6.00
-4.65
-2.87
-0.95
0.85
2.37
3.56
4.44
5.01
5.26
5.14
4.64
3.88
3.04
2.35
1.96
1.93
2.15
2.50
2.81
3.03
3.14
3.15
3.08
2.95
2.78
2.57
2.34
2.09
1.81
1.47
1.06
0.60
0.18
-0.14
-0.32
-0.41
-0.51
-0.74
-1.13
-1.64
-2.12
-2.48
-2.67
-2.74
-2.86
-3.18
-3.78
-4.64
-5.61
-6.40
-6.75
-6.42
-5.30
-3.51
-1.30
0.94
2.87
4.28
5.13
5.48
5.46
5.15
4.61
3.88
3.06
2.32
1.83
1.67
1.85
2.22
2.62
2.87
2.89
2.67
2.30
1.89
1.54
1.29
1.12
0.97
0.75
0.41
-0.07
-0.64
-1.22
-1.74
-2.16
-2.49
-2.76
-3.04
-3.35
-3.70
-4.09
-4.55
-5.10
-5.80
-6.65
-7.56
-8.31
-8.60
-8.18
-6.91
-4.88
-2.38
0.20
2.50
4.28
5.49
6.17
6.40
6.22
5.70
4.92
4.02
3.21
2.66
2.46
2.57
2.88
3.26
3.61
3.86
3.96
3.89
3.62
3.17
2.58
1.93
1.30
0.72
0.19
-0.32
-0.82
-1.30
-1.75
-2.16
-2.55
-2.93
-3.32
-3.71
-4.09
-4.44
-4.77
-5.09
-5.46
-5.92
-6.51
-7.19
-7.82
-8.18
-8.04
-7.25
-5.77
-3.74
-1.42
0.90
2.98
4.64
5.80
6.43
6.58
6.31
5.73
4.98
4.18
3.51
3.09
3.03
3.35
3.95
4.65
5.20
5.41
5.21
4.66
3.91
3.13
2.40
1.69
0.96
0.18
-0.60
-1.21
-1.51
-1.46
-1.16
-0.82
-0.69
-0.92
-1.51
-2.34
-3.20
-3.92
-4.41
-4.66
-4.75
-4.81
-4.96
-5.32
-5.90
-6.57
-7.10
-7.19
-6.60
-5.26
-3.30
-1.00
1.34
3.45
5.15
6.34
6.94
6.94
6.38
5.43
4.34
3.39
2.77
2.52
2.55
2.72
2.91
3.08
3.26
3.42
3.53
3.49
3.23
2.78
2.20
1.60
1.07
0.62
0.23
-0.18
-0.63
-1.09
-1.51
-1.84
-2.06
-2.21
-2.37
-2.61
-2.96
-3.40
-3.88
-4.35
-4.78
-5.17
-5.50
-5.69
-5.64
-5.22
-4.37
-3.10
-1.55
0.12
1.74
3.17
4.33
5.14
5.58
5.62
5.29
4.64
3.80
2.92
2.17
1.71
1.62
1.89
2.41
2.99
3.43
3.59
3.41
2.95
2.31
1.61
0.97
0.44
0.04
-0.26
-0.52
-0.83
-1.30
-1.96
-2.81
-3.74
-4.58
-5.18
-5.48
-5.54
-5.51
-5.55
-5.79
-6.24
-6.82
-7.39
-7.79
-7.85
-7.43
-6.47
-4.95
-3.03
-0.91
1.13
2.89
4.28
5.32
6.05
6.50
6.61
6.29
5.59
4.66
3.81
3.31
3.28
3.64
4.13
4.48
4.54
4.33
4.00
3.69
3.42
3.14
2.76
2.22
1.57
0.92
0.37
-0.00
-0.24
-0.42
-0.67
-1.05
-1.58
-2.20
-2.83
-3.41
-3.91
-4.34
-4.73
-5.14
-5.57
-6.04
-6.53
-7.02
-7.44
-7.67
-7.57
-6.99
-5.87
-4.26
-2.29
-0.16
1.95
3.87
5.46
6.60
7.20
7.23
6.75
5.91
4.98
4.17
3.66
3.51
3.65
3.97
4.33
4.60
4.71
4.64
4.40
4.02
3.52
2.95
2.35
1.75
1.18
0.67
0.23
-0.13
-0.43
-0.70
-0.97
-1.24
-1.51
-1.78
-2.05
-2.33
-2.65
-3.02
-3.43
-3.86
-4.25
-4.65
-5.10
-5.63
-6.22
-6.71
-6.83
-6.31
-5.02
-3.03
-0.68
1.60
3.43
4.63
5.25
5.47
5.49
5.39
5.13
4.66
3.97
3.18
2.48
2.02
1.89
2.04
2.37
2.79
3.20
3.59
3.88
3.99
3.80
3.24
2.34
1.27
0.24
-0.53
-0.98
-1.16
-1.23
-1.29
-1.44
-1.68
-1.98
-2.34
-2.77
-3.28
-3.85
-4.42
-4.95
-5.45
-5.97
-6.54
-7.07
-7.36
-7.19
-6.39
-5.00
-3.18
-1.20
0.70
2.37
3.75
4.77
5.37
5.49
5.17
4.53
3.80
3.19
2.81
2.68
2.77
2.97
3.20
3.36
3.41
3.32
3.08
2.75
2.37
2.00
1.67
1.36
1.06
0.76
0.45
0.15
-0.15
-0.47
-0.84
-1.27
-1.74
-2.24
-2.70
-3.10
-3.42
-3.68
-3.91
-4.17
-4.51
-4.94
-5.51
-6.19
-6.92
-7.56
-7.92
-7.78
-6.99
-5.55
-3.61
-1.43
0.73
2.66
4.21
5.31
5.94
6.14
5.95
5.50
4.95
4.43
4.03
3.81
3.74
3.79
3.89
3.99
4.02
3.94
3.76
3.52
3.23
2.93
2.56
2.07
1.42
0.67
-0.07
-0.63
-0.87
-0.79
-0.49
-0.20
-0.11
-0.34
-0.87
-1.58
-2.31
-2.95
-3.47
-3.91
-4.33
-4.81
-5.36
-5.96
-6.57
-7.12
-7.53
-7.72
-7.58
-7.04
-6.03
-4.54
-2.65
-0.51
1.66
3.63
5.16
6.11
6.43
6.21
5.60
4.79
3.97
3.26
2.75
2.52
2.59
2.94
3.46
3.96
4.27
4.27
3.99
3.58
3.20
2.95
2.78
2.55
2.12
1.45
0.68
-0.01
-0.42
-0.54
-0.52
-0.58
-0.88
-1.45
-2.17
-2.84
-3.33
-3.62
-3.79
-3.99
-4.34
-4.83
-5.43
-6.04
-6.55
-6.91
-6.99
-6.70
-5.92
-4.60
-2.81
-0.76
1.27
2.98
4.21
4.90
5.11
4.95
4.54
3.97
3.35
2.79
2.39
2.20
2.23
2.40
2.63
2.84
2.99
3.08
3.07
2.96
2.70
2.29
1.76
1.14
0.50
-0.09
-0.60
-1.00
-1.29
-1.48
-1.63
-1.82
-2.13
-2.61
-3.20
-3.80
-4.28
-4.56
-4.69
-4.79
-5.04
-5.53
-6.26
-7.12
-7.90
-8.39
-8.42
-7.90
-6.85
-5.34
-3.48
-1.41
0.73
2.76
4.47
5.65
6.17
6.00
5.31
4.37
3.50
2.93
2.75
2.91
3.28
3.71
4.10
4.36
4.48
4.44
4.26
3.98
3.63
3.21
2.69
2.05
1.36
0.70
0.18
-0.15
-0.32
-0.45
-0.66
-1.02
-1.50
-2.05
-2.62
-3.16
-3.66
-4.10
-4.42
-4.63
-4.79
-5.01
-5.47
-6.22
-7.21
-8.20
-8.87
-8.94
-8.24
-6.82
-4.84
-2.58
-0.29
1.85
3.71
5.24
6.41
7.15
7.40
7.16
6.48
5.55
4.62
3.93
3.65
3.77
4.19
4.72
5.22
5.60
5.84
5.97
6.00
5.87
5.50
4.85
3.91
2.81
1.74
0.86
0.28
-0.01
-0.09
-0.08
-0.09
-0.23
-0.55
-1.05
-1.68
-2.38
-3.04
-3.59
-4.04
-4.46
-4.96
-5.62
-6.39
-7.13
-7.61
-7.63
-7.07
-5.96
-4.37
-2.46
-0.40
1.67
3.60
5.22
6.37
6.92
6.79
6.07
4.99
3.84
2.94
2.47
2.43
2.70
3.09
3.42
3.62
3.63
3.49
3.19
2.78
2.33
1.94
1.69
1.63
1.68
1.72
1.61
1.29
0.77
0.15
-0.44
-0.89
-1.17
-1.31
-1.40
-1.54
-1.81
-2.21
-2.69
-3.14
-3.51
-3.80
-4.14
-4.60
-5.20
-5.76
-5.98
-5.57
-4.39
-2.52
-0.29
1.92
3.81
5.24
6.18
6.73
6.93
6.82
6.44
5.83
5.08
4.31
3.63
3.13
2.84
2.77
2.84
2.98
3.13
3.23
3.27
3.23
3.08
2.75
2.19
1.41
0.49
-0.42
-1.17
-1.69
-2.01
-2.25
-2.56
-3.03
-3.63
-4.29
-4.89
-5.41
-5.86
-6.28
-6.71
-7.15
-7.56
-7.91
-8.23
-8.49
-8.69
-8.67
-8.26
-7.31
-5.77
-3.80
-1.64
0.44
2.31
3.92
5.31
6.43
7.17
7.39
7.01
6.08
4.83
3.57
2.58
2.02
1.84
1.87
1.93
1.88
1.75
1.63
1.67
1.90
2.24
2.50
2.52
2.21
1.66
1.05
0.57
0.26
0.07
-0.18
-0.63
-1.33
-2.19
-3.04
-3.72
-4.15
-4.40
-4.57
-4.81
-5.23
-5.85
-6.66
-7.60
-8.54
-9.32
-9.71
-9.53
-8.69
-7.29
-5.55
-3.73
-2.03
-0.49
0.94
2.25
3.34
4.02
4.15
3.79
3.24
2.89
3.09
3.87
4.99
6.01
6.57
6.53
5.99
5.20
4.40
3.73
3.23
2.84
2.51
2.18
1.80
1.36
0.84
0.27
-0.31
-0.86
-1.37
-1.88
-2.46
-3.15
-3.93
-4.75
-5.55
-6.30
-6.98
-7.54
-7.89
-7.94
-7.67
-7.15
-6.54
-5.96
-5.45
-4.94
-4.35
-3.70
-3.12
-2.77
-2.66
-2.62
-2.30
-1.38
0.27
2.48
4.86
7.00
8.58
9.43
9.56
9.05
8.04
6.69
5.18
3.73
2.54
1.72
1.31
1.24
1.38
1.52
1.50
1.20
0.58
-0.26
-1.20
-2.16
-3.13
-4.21
-5.49
-7.03
-8.72
-10.38
-11.79
-12.79
-13.29
-13.25
-12.65
-11.49
-9.76
-7.54
-5.00
-2.36
0.10
2.21
3.86
5.02
5.71
5.97
5.88
5.50
4.95
4.35
3.81
3.46
3.36
3.51
3.83
4.23
4.62
4.96
5.33
5.82
6.50
7.37
8.34
9.30
10.12
10.70
10.96
10.82
10.22
9.19
7.87
6.47
5.24
4.28
3.56
2.89
2.03
0.82
-0.82
-2.82
-5.02
-7.20
-9.11
-10.47
-11.06
-10.74
-9.56
-7.69
-5.43
-3.11
-0.93
1.00
2.73
4.37
6.01
7.65
9.17
10.42
11.27
11.66
11.62
11.25
10.59
9.64
8.36
6.74
4.93
3.17
1.74
0.86
0.54
0.67
0.99
1.27
1.34
1.14
0.65
-0.04
-0.87
-1.77
-2.69
-3.61
-4.51
-5.38
-6.17
-6.84
-7.37
-7.77
-8.04
-8.20
-8.26
-8.25
-8.23
-8.26
-8.40
-8.58
-8.65
-8.37
-7.53
-6.03
-3.95
-1.51
0.95
3.13
4.80
5.86
6.33
6.31
6.01
5.60
5.25
5.02
4.95
5.05
5.34
5.84
6.53
7.28
7.89
8.12
7.83
7.01
5.82
4.51
3.33
2.40
1.69
1.09
0.45
-0.29
-1.11
-1.95
-2.73
-3.42
-4.03
-4.60
-5.17
-5.74
-6.31
-6.87
-7.44
-8.05
-8.69
-9.28
-9.64
-9.57
-8.93
-7.67
-5.91
-3.85
-1.72
0.26
1.99
3.40
4.44
5.09
5.35
5.22
4.78
4.15
3.43
2.77
2.27
2.02
2.10
2.48
3.11
3.87
4.61
5.17
5.40
5.22
4.60
3.62
2.42
1.20
0.12
-0.71
-1.30
-1.68
-1.95
-2.20
-2.47
-2.81
-3.25
-3.82
-4.56
-5.45
-6.45
-7.42
-8.22
-8.70
-8.76
-8.40
-7.66
-6.63
-5.39
-4.00
-2.47
-0.86
0.76
2.25
3.43
4.17
4.43
4.29
3.95
3.68
3.67
4.01
4.63
5.41
6.20
6.92
7.54
8.04
8.35
8.34
7.95
7.19
6.18
5.10
4.04
2.97
1.74
0.22
-1.59
-3.52
-5.32
-6.72
-7.60
-7.99
-8.03
-7.86
-7.58
-7.22
-6.79
-6.32
-5.91
-5.73
-5.95
-6.63
-7.69
-8.90
-9.92
-10.42
-10.17
-9.07
-7.26
-4.99
-2.66
-0.60
0.94
1.95
2.61
3.27
4.31
6.01
8.50
11.70
15.40
19.33
23.23
26.90
30.26
33.30
36.09
38.72
41.23
43.62
45.78
47.46
48.40
48.25
46.74
43.75
39.35
33.76
27.41
20.80
14.48
8.97
4.59
1.46
-0.55
-1.76
-2.64
-3.61
-4.90
-6.53
-8.24
-9.78
-10.96
-11.72
-12.22
-12.66
-13.16
-13.58
-13.61
-12.97
-11.86
-10.73
-10.12
-10.44
-11.83
-14.19
-17.21
-20.61
-24.22
-28.41
-33.38
-38.93
-44.61
-49.98
-54.67
-58.37
-60.56
-60.51
-58.18
-53.60
-47.13
-39.87
-33.72
-30.81
-32.73
-39.62
-49.88
-61.51
-71.75
-77.97
-78.80
-74.74
-67.61
-59.66
-52.46
-40.82
-22.36
1.90
28.46
53.48
74.09
88.28
94.39
91.58
80.65
63.44
43.41
24.83
10.82
2.01
-2.82
-6.38
-11.47
-19.53
-30.35
-42.18
-49.62
-47.30
-32.51
-5.88
26.90
56.89
75.41
77.24
62.35
35.34
2.70
-30.22
-58.87
-80.98
-95.06
-98.86
-89.15
-63.69
-22.48
33.54
97.34
160.93
215.06
251.60
265.72
257.36
229.93
189.13
141.58
87.39
34.30
-9.61
-42.02
-70.15
-99.34
-129.79
-158.62
-176.29
-176.03
-152.97
-107.41
-44.23
28.96
103.82
171.22
222.18
249.94
250.85
227.24
184.86
130.92
71.92
12.66
-44.79
-99.75
-150.80
-195.60
-230.10
-250.88
-255.83
-244.09
-215.84
-173.50
-122.60
-71.52
-30.26
-7.17
-6.69
-27.94
-65.19
-110.08
-154.94
-194.97
-228.54
-256.26
-279.11
-297.15
-309.10
-312.73
-305.93
-287.88
-259.65
-223.80
-183.37
-140.62
-96.55
-51.44
-5.80
38.72
79.46
113.66
139.82
158.43
171.74
182.58
192.98
203.33
212.43
218.34
219.55
215.69
207.58
196.72
184.43
171.33
157.32
141.91
124.75
106.01
86.49
67.33
49.78
34.72
22.53
12.96
5.27
-1.50
-8.15
-15.06
-22.14
-28.93
-34.79
-39.10
-41.35
-41.11
-38.09
-32.22
-23.77
-13.48
-2.49
7.82
16.21
21.84
24.47
24.53
22.90
20.72
19.10
18.85
20.33
23.40
27.47
31.74
35.38
37.79
38.64
37.96
35.97
33.08
29.70
26.26
23.07
20.35
18.19
16.55
15.29
14.22
13.19
12.07
10.84
9.54
8.26
7.05
5.89
4.66
3.20
1.41
-0.58
-2.44
-3.67
-3.80
-2.60
-0.15
3.15
6.78
10.24
13.20
15.54
17.23
18.31
18.84
18.84
18.37
17.56
16.63
15.81
15.34
15.34
15.77
16.46
17.14
17.58
17.68
17.46
17.08
16.68
16.33
16.01
15.60
15.01
14.19
13.18
12.04
10.84
9.67
8.58
7.60
6.71
5.85
4.91
3.84
2.56
1.06
-0.61
-2.37
-4.08
-5.55
-6.51
-6.70
-5.94
-4.20
-1.62
1.45
4.61
7.48
9.80
11.42
12.31
12.50
12.05
11.10
9.82
8.47
7.30
6.48
6.08
6.05
6.27
6.60
6.90
7.06
7.00
6.70
6.16
5.46
4.68
3.90
3.16
2.42
1.65
0.81
-0.11
-1.06
-1.98
-2.80
-3.47
-3.96
-4.32
-4.67
-5.17
-6.00
-7.22
-8.69
-10.10
-10.95
-10.84
-9.54
-7.13
-4.00
-0.63
2.53
5.23
7.42
9.13
10.36
11.07
11.16
10.64
9.67
8.55
7.59
6.98
6.72
6.65
6.55
6.27
5.78
5.19
4.61
4.15
3.81
3.53
3.19
2.72
2.05
1.21
0.28
-0.63
-1.42
-2.06
-2.56
-3.00
-3.45
-3.96
-4.54
-5.24
-6.08
-7.12
-8.34
-9.62
-10.72
-11.32
-11.15
-10.05
-8.07
-5.38
-2.29
0.81
3.54
5.56
6.66
6.81
6.19
5.14
4.05
3.21
2.76
2.67
2.85
3.18
3.58
4.03
4.51
4.97
5.31
5.44
5.27
4.82
4.15
3.36
2.52
1.66
0.77
-0.22
-1.34
-2.59
-3.89
-5.16
-6.31
-7.34
-8.27
-9.16
-10.06
-11.00
-11.99
-12.96
-13.82
-14.36
-14.35
-13.58
-11.99
-9.68
-6.95
-4.21
-1.80
0.08
1.40
2.21
2.58
2.54
2.13
1.45
0.69
0.11
-0.14
0.00
0.42
0.90
1.25
1.40
1.39
1.35
1.35
1.36
1.29
1.01
0.44
-0.40
-1.38
-2.38
-3.25
-3.92
-4.39
-4.71
-4.96
-5.28
-5.76
-6.50
-7.49
-8.62
-9.64
-10.27
-10.26
-9.45
-7.89
-5.76
-3.36
-1.04
0.92
2.33
3.12
3.33
3.09
2.55
1.84
1.10
0.39
-0.19
-0.59
-0.79
-0.84
-0.86
-0.97
-1.25
-1.67
-2.09
-2.34
-2.37
-2.23
-2.11
-2.24
-2.69
-3.39
-4.10
-4.58
-4.74
-4.68
-4.67
-4.98
-5.79
-7.10
-8.67
-10.14
-11.12
-11.28
-10.49
-8.84
-6.60
-4.16
-1.88
0.04
1.55
2.73
3.61
4.19
4.35
4.01
3.23
2.24
1.35
0.78
0.60
0.70
0.86
0.93
0.90
0.82
0.80
0.81
0.77
0.52
-0.01
-0.79
-1.68
-2.54
-3.27
-3.86
-4.36
-4.83
-5.33
-5.90
-6.59
-7.43
-8.43
-9.48
-10.33
-10.65
-10.16
-8.73
-6.47
-3.67
-0.74
1.97
4.20
5.80
6.69
6.86
6.34
5.27
3.90
2.54
1.47
0.88
0.79
1.09
1.61
2.18
2.70
3.08
3.29
3.30
3.13
2.80
2.32
1.73
1.07
0.36
-0.36
-1.08
-1.80
-2.54
-3.33
-4.20
-5.16
-6.19
-7.22
-8.13
-8.75
-8.89
-8.37
-7.14
-5.26
-2.94
-0.45
1.94
4.06
5.76
6.94
7.49
7.36
6.58
5.36
3.99
2.82
2.11
1.94
2.21
2.70
3.20
3.54
3.67
3.61
3.42
3.15
2.84
2.48
2.09
1.70
1.34
1.06
0.83
0.60
0.26
-0.30
-1.11
-2.17
-3.39
-4.67
-5.88
-6.86
-7.44
-7.44
-6.76
-5.43
-3.62
-1.58
0.44
2.25
3.74
4.83
5.44
5.49
4.95
3.91
2.63
1.42
0.56
0.16
0.14
0.30
0.42
0.39
0.24
0.03
-0.18
-0.39
-0.67
-1.11
-1.71
-2.43
-3.13
-3.72
-4.13
-4.38
-4.54
-4.71
-4.98
-5.38
-5.92
-6.56
-7.20
-7.68
-7.85
-7.57
-6.75
-5.38
-3.51
-1.34
0.91
2.97
4.65
5.80
6.42
6.55
6.30
5.78
5.09
4.33
3.61
3.03
2.62
2.38
2.25
2.17
2.09
2.02
1.96
1.88
1.72
1.42
0.95
0.34
-0.37
-1.11
-1.84
-2.55
-3.26
-4.00
-4.79
-5.68
-6.65
-7.64
-8.49
-8.98
-8.90
-8.09
-6.55
-4.42
-1.95
0.59
2.95
4.90
6.28
6.97
6.94
6.26
5.14
3.86
2.71
1.94
1.64
1.80
2.26
2.79
3.15
3.17
2.81
2.19
1.46
0.78
0.20
-0.36
-1.02
-1.85
-2.80
-3.72
-4.49
-5.05
-5.49
-5.96
-6.59
-7.42
-8.35
-9.27
-10.02
-10.51
-10.63
-10.27
-9.27
-7.59
-5.29
-2.59
0.14
2.52
4.27
5.28
5.58
5.33
4.69
3.86
2.98
2.24
1.80
1.76
2.08
2.64
3.23
3.66
3.86
3.84
3.68
3.46
3.17
2.75
2.14
1.34
0.40
-0.57
-1.48
-2.30
-3.06
-3.81
-4.59
-5.47
-6.52
-7.79
-9.26
-10.82
-12.20
-13.06
-13.06
-12.02
-9.98
-7.24
-4.25
-1.47
0.80
2.46
3.55
4.18
4.45
4.39
4.05
3.55
3.10
2.91
3.11
3.68
4.40
5.04
5.40
5.45
5.28
4.97
4.58
4.07
3.38
2.54
1.64
0.80
0.13
-0.38
-0.80
-1.22
-1.68
-2.13
-2.53
-2.85
-3.15
-3.56
-4.20
-5.14
-6.34
-7.66
-8.89
-9.81
-10.16
-9.72
-8.38
-6.17
-3.36
-0.33
2.45
4.65
6.10
6.82
6.97
6.68
6.08
5.25
4.32
3.45
2.84
2.68
2.99
3.69
4.54
5.28
5.70
5.71
5.38
4.84
4.26
3.73
3.29
2.87
2.41
1.91
1.41
1.04
0.85
0.86
0.99
1.12
1.12
0.90
0.42
-0.30
-1.26
-2.41
-3.75
-5.24
-6.81
-8.27
-9.36
-9.80
-9.38
-8.01
-5.84
-3.17
-0.42
2.07
4.02
5.37
6.14
6.39
6.20
5.64
4.78
3.77
2.83
2.16
1.92
2.08
2.49
2.96
3.29
3.42
3.39
3.24
3.02
2.72
2.32
1.85
1.40
1.06
0.91
0.92
0.97
0.95
0.77
0.42
0.00
-0.41
-0.75
-1.04
-1.35
-1.76
-2.35
-3.14
-4.13
-5.25
-6.39
-7.38
-7.97
-7.93
-7.04
-5.27
-2.75
0.23
3.30
6.11
8.38
9.93
10.65
10.50
9.55
8.01
6.23
4.61
3.49
3.01
3.13
3.63
4.22
4.70
4.95
4.94
4.66
4.11
3.29
2.23
1.01
-0.22
-1.34
-2.26
-2.97
-3.50
-3.91
-4.22
-4.41
-4.44
-4.30
-4.03
-3.73
-3.50
-3.41
-3.48
-3.71
-4.11
-4.66
-5.40
-6.32
-7.38
-8.50
-9.51
-10.18
-10.28
-9.60
-8.08
-5.85
-3.20
-0.52
1.81
3.56
4.70
5.29
5.42
5.13
4.44
3.38
2.10
0.84
-0.07
-0.42
-0.19
0.47
1.25
1.88
2.20
2.18
1.94
1.62
1.33
1.08
0.85
0.55
0.17
-0.24
-0.58
-0.77
-0.83
-0.84
-0.91
-1.17
-1.68
-2.38
-3.16
-3.85
-4.29
-4.35
-4.03
-3.41
-2.68
-2.08
-1.75
-1.71
-1.78
-1.69
-1.19
-0.13
1.41
3.22
5.01
6.50
7.53
8.00
7.95
7.44
6.57
5.48
4.28
3.12
2.11
1.34
0.84
0.56
0.40
0.25
0.07
-0.07
-0.00
0.46
1.46
2.95
4.72
6.43
7.75
8.46
8.53
8.09
7.31
6.36
5.32
4.20
2.99
1.69
0.35
-0.95
-2.17
-3.25
-4.22
-5.08
-5.90
-6.68
-7.47
-8.24
-8.91
-9.35
-9.35
-8.72
-7.36
-5.37
-2.95
-0.46
1.78
3.53
4.73
5.42
5.69
5.59
5.15
4.39
3.42
2.44
1.68
1.31
1.34
1.68
2.16
2.63
3.06
3.44
3.79
4.09
4.27
4.26
4.02
3.59
3.03
2.43
1.87
1.40
1.04
0.77
0.58
0.42
0.24
0.01
-0.31
-0.74
-1.32
-2.10
-3.11
-4.38
-5.84
-7.35
-8.65
-9.47
-9.56
-8.80
-7.26
-5.16
-2.81
-0.47
1.65
3.47
4.92
5.96
6.52
6.58
6.18
5.47
4.68
4.04
3.68
3.59
3.68
3.75
3.68
3.44
3.09
2.73
2.39
2.01
1.51
0.84
0.02
-0.83
-1.61
-2.26
-2.83
-3.42
-4.09
-4.82
-5.58
-6.28
-6.90
-7.47
-8.00
-8.47
-8.84
-9.08
-9.22
-9.36
-9.61
-10.04
-10.64
-11.29
-11.81
-11.96
-11.53
-10.36
-8.41
-5.80
-2.80
0.16
2.69
4.50
5.53
5.86
5.69
5.23
4.61
3.93
3.26
2.72
2.41
2.39
2.65
3.09
3.58
3.99
4.21
4.22
4.00
3.54
2.90
2.13
1.33
0.60
0.01
-0.43
-0.76
-1.02
-1.24
-1.39
-1.48
-1.56
-1.71
-2.00
-2.45
-2.96
-3.42
-3.70
-3.77
-3.72
-3.71
-3.91
-4.45
-5.31
-6.38
-7.42
-8.13
-8.23
-7.53
-6.01
-3.88
-1.47
0.81
2.67
3.93
4.61
4.77
4.49
3.83
2.90
1.89
1.03
0.58
0.69
1.32
2.26
3.23
3.93
4.24
4.16
3.83
3.39
2.95
2.58
2.26
1.97
1.68
1.39
1.08
0.73
0.30
-0.19
-0.71
-1.24
-1.73
-2.15
-2.49
-2.73
-2.85
-2.83
-2.69
-2.52
-2.45
-2.66
-3.25
-4.20
-5.35
-6.41
-7.04
-6.96
-6.04
-4.33
-2.03
0.53
3.00
5.06
6.53
7.35
7.59
7.40
6.93
6.34
5.74
5.21
4.82
4.59
4.53
4.61
4.77
4.93
5.00
4.92
4.67
4.24
3.66
2.97
2.25
1.58
1.04
0.65
0.39
0.15
-0.15
-0.60
-1.20
-1.84
-2.40
-2.74
-2.82
-2.68
-2.46
-2.33
-2.42
-2.84
-3.64
-4.83
-6.28
-7.77
-8.97
-9.51
-9.11
-7.68
-5.40
-2.62
0.19
2.62
4.37
5.35
5.65
5.43
4.90
4.27
3.65
3.08
2.57
2.14
1.83
1.72
1.84
2.13
2.47
2.75
2.89
2.94
2.96
3.03
3.10
3.06
2.83
2.38
1.82
1.28
0.88
0.60
0.34
-0.04
-0.60
-1.27
-1.93
-2.41
-2.67
-2.80
-2.99
-3.36
-3.98
-4.76
-5.54
-6.15
-6.47
-6.45
-6.01
-5.13
-3.76
-1.94
0.14
2.18
3.85
4.90
5.24
5.00
4.41
3.70
3.05
2.53
2.14
1.87
1.70
1.61
1.60
1.68
1.87
2.15
2.50
2.86
3.14
3.27
3.19
2.93
2.53
2.04
1.52
0.98
0.46
-0.01
-0.40
-0.73
-1.05
-1.47
-2.04
-2.74
-3.45
-4.04
-4.45
-4.76
-5.15
-5.81
-6.80
-7.97
-8.99
-9.47
-9.11
-7.84
-5.86
-3.51
-1.17
0.90
2.59
3.88
4.80
5.34
5.46
5.17
4.57
3.89
3.37
3.21
3.42
3.85
4.26
4.40
4.15
3.52
2.67
1.81
1.12
0.68
0.48
0.43
0.42
0.33
0.09
-0.36
-1.03
-1.93
-2.97
-4.06
-5.07
-5.91
-6.58
-7.16
-7.76
-8.43
-9.10
-9.61
-9.75
-9.34
-8.31
-6.73
-4.77
-2.65
-0.57
1.32
2.89
4.09
4.86
5.20
5.09
4.60
3.84
3.01
2.31
1.91
1.85
2.07
2.46
2.91
3.39
3.90
4.45
4.98
5.34
5.36
4.92
4.01
2.73
1.24
-0.33
-1.90
-3.35
-4.58
-5.44
-5.83
-5.78
-5.40
-4.94
-4.60
-4.46
-4.49
-4.48
-4.22
-3.57
-2.51
-1.13
0.38
1.76
2.83
3.47
3.67
3.51
3.10
2.52
1.87
1.20
0.62
0.23
0.13
0.35
0.82
1.37
1.82
2.05
2.03
1.84
1.59
1.38
1.27
1.24
1.23
1.20
1.08
0.87
0.61
0.34
0.09
-0.19
-0.59
-1.29
-2.39
-3.94
-5.79
-7.66
-9.15
-9.88
-9.57
-8.17
-5.87
-3.04
-0.13
2.47
4.52
5.93
6.73
6.95
6.67
5.96
4.96
3.85
2.81
2.01
1.52
1.32
1.36
1.56
1.85
2.15
2.44
2.66
2.80
2.79
2.60
2.17
1.50
0.65
-0.27
-1.06
-1.60
-1.84
-1.84
-1.78
-1.83
-2.13
-2.73
-3.62
-4.66
-5.67
-6.44
-6.74
-6.41
-5.39
-3.76
-1.69
0.55
2.69
4.51
5.86
6.65
6.87
6.58
5.89
4.97
4.01
3.20
2.68
2.48
2.55
2.74
2.91
2.97
2.88
2.66
2.38
2.06
1.75
1.47
1.24
1.09
1.01
1.00
1.02
1.02
0.97
0.86
0.69
0.44
0.06
-0.48
-1.24
-2.24
-3.42
-4.65
-5.76
-6.52
-6.79
-6.51
-5.69
-4.49
-3.06
-1.57
-0.18
1.00
1.85
2.30
2.34
2.03
1.50
0.90
0.38
0.05
-0.01
0.23
0.77
1.50
2.24
2.81
3.04
2.95
2.66
2.38
2.28
2.38
2.61
2.81
2.83
2.62
2.21
1.67
1.06
0.43
-0.16
-0.67
-1.09
-1.41
-1.72
-2.08
-2.57
-3.19
-3.87
-4.47
-4.87
-4.98
-4.74
-4.13
-3.15
-1.86
-0.39
1.07
2.28
3.04
3.20
2.78
1.92
0.86
-0.10
-0.69
-0.76
-0.30
0.58
1.61
2.54
3.13
3.23
2.86
2.13
1.23
0.35
-0.38
-0.87
-1.10
-1.08
-0.88
-0.54
-0.13
0.28
0.63
0.81
0.72
0.27
-0.54
-1.60
-2.72
-3.70
-4.42
-4.80
-4.87
-4.64
-4.15
-3.38
-2.34
-1.09
0.27
1.58
2.75
3.69
4.37
4.75
4.80
4.54
4.04
3.45
2.94
2.64
2.62
2.81
3.11
3.38
3.52
3.47
3.25
2.86
2.34
1.72
1.03
0.32
-0.39
-1.08
-1.76
-2.42
-2.99
-3.40
-3.57
-3.51
-3.29
-3.09
-3.08
-3.38
-4.00
-4.87
-5.85
-6.76
-7.44
-7.68
-7.34
-6.32
-4.70
-2.71
-0.69
1.04
2.30
3.09
3.56
3.86
4.08
4.16
4.00
3.54
2.86
2.15
1.61
1.39
1.53
1.94
2.46
2.91
3.20
3.28
3.16
2.91
2.62
2.31
1.95
1.46
0.78
-0.10
-1.08
-2.02
-2.76
-3.21
-3.36
-3.28
-3.08
-2.90
-2.86
-3.05
-3.53
-4.25
-5.07
-5.75
-6.07
-5.88
-5.12
-3.90
-2.34
-0.60
1.14
2.72
3.94
4.63
4.70
4.20
3.33
2.35
1.55
1.09
0.97
1.12
1.40
1.72
2.02
2.30
2.50
2.56
2.42
2.01
1.34
0.52
-0.34
-1.14
-1.80
-2.30
-2.67
-2.91
-3.02
-3.03
-2.98
-2.93
-2.95
-3.05
-3.19
-3.31
-3.36
-3.39
-3.49
-3.72
-4.06
-4.30
-4.18
-3.50
-2.24
-0.63
1.01
2.37
3.31
3.87
4.18
4.34
4.35
4.13
3.58
2.72
1.66
0.63
-0.13
-0.42
-0.18
0.55
1.59
2.71
3.69
4.33
4.54
4.29
3.61
2.57
1.29
-0.07
-1.33
-2.34
-3.00
-3.33
-3.41
-3.40
-3.38
-3.37
-3.37
-3.34
-3.35
-3.47
-3.81
-4.34
-4.95
-5.43
-5.57
-5.24
-4.46
-3.32
-1.96
-0.54
0.81
2.00
2.91
3.44
3.56
3.30
2.74
2.00
1.22
0.53
0.09
-0.01
0.27
0.88
1.64
2.37
2.89
3.09
3.01
2.72
2.32
1.85
1.32
0.67
-0.09
-0.92
-1.68
-2.22
-2.41
-2.20
-1.71
-1.16
-0.85
-0.98
-1.61
-2.63
-3.83
-4.96
-5.85
-6.38
-6.48
-6.11
-5.22
-3.84
-2.07
-0.15
1.66
3.06
3.88
4.09
3.76
3.12
2.37
1.74
1.35
1.22
1.33
1.60
1.97
2.42
2.92
3.44
3.92
4.29
4.47
4.39
4.06
3.48
2.74
1.95
1.24
0.69
0.31
0.03
-0.21
-0.44
-0.63
-0.72
-0.71
-0.72
-0.96
-1.59
-2.62
-3.83
-4.85
-5.35
-5.16
-4.32
-3.02
-1.48
0.14
1.73
3.17
4.31
4.99
5.14
4.83
4.21
3.53
2.96
2.58
2.42
2.42
2.58
2.84
3.15
3.41
3.55
3.51
3.30
2.99
2.63
2.24
1.80
1.26
0.59
-0.15
-0.90
-1.54
-2.01
-2.30
-2.47
-2.62
-2.84
-3.21
-3.75
-4.44
-5.25
-6.06
-6.75
-7.11
-6.93
-6.06
-4.50
-2.46
-0.31
1.55
2.79
3.28
3.08
2.38
1.43
0.46
-0.38
-0.99
-1.34
-1.44
-1.33
-1.07
-0.69
-0.23
0.34
1.02
1.78
2.60
3.38
4.01
4.39
4.41
4.02
3.25
2.24
1.19
0.33
-0.19
-0.35
-0.28
-0.21
-0.35
-0.81
-1.48
-2.10
-2.24
-1.47
0.47
3.55
7.32
11.05
13.90
15.15
14.50
12.09
8.42
4.21
0.15
-3.28
-5.77
-7.21
-7.62
-7.11
-5.90
-4.29
-2.62
-1.18
-0.15
0.47
0.76
0.85
0.77
0.51
-0.01
-0.83
-1.88
-3.02
-4.04
-4.80
-5.24
-5.44
-5.52
-5.61
-5.75
-5.88
-5.93
-5.80
-5.44
-4.87
-4.12
-3.24
-2.25
-1.19
-0.10
0.95
1.79
2.29
2.35
1.99
1.31
0.52
-0.20
-0.75
-1.06
-1.14
-1.00
-0.65
-0.12
0.53
1.19
1.72
2.03
2.07
1.91
1.66
1.42
1.24
1.07
0.87
0.61
0.28
-0.07
-0.40
-0.66
-0.84
-0.93
-0.99
-1.07
-1.25
-1.57
-1.99
-2.36
-2.48
-2.14
-1.26
0.08
1.67
3.22
4.48
5.30
5.69
5.71
5.45
5.01
4.45
3.80
3.13
2.54
2.12
1.98
2.15
2.59
3.17
3.69
3.96
3.85
3.34
2.53
1.53
0.46
-0.62
-1.69
-2.73
-3.70
-4.52
-5.13
-5.52
-5.74
-5.90
-6.10
-6.36
-6.65
-6.92
-7.10
-7.14
-6.99
-6.59
-5.82
-4.59
-2.93
-0.93
1.17
3.13
4.73
5.87
6.51
6.68
6.44
5.84
4.99
4.06
3.27
2.82
2.82
3.21
3.80
4.32
4.54
4.36
3.83
3.12
2.39
1.74
1.16
0.58
-0.05
-0.75
-1.48
-2.17
-2.78
-3.33
-3.84
-4.33
-4.79
-5.21
-5.58
-5.94
-6.30
-6.70
-7.10
-7.41
-7.45
-7.07
-6.14
-4.70
-2.87
-0.86
1.07
2.73
3.97
4.72
4.96
4.75
4.18
3.41
2.65
2.07
1.82
1.92
2.31
2.85
3.35
3.67
3.72
3.52
3.16
2.77
2.45
2.21
1.97
1.63
1.09
0.33
-0.59
-1.55
-2.43
-3.14
-3.65
-3.98
-4.18
-4.38
-4.67
-5.17
-5.87
-6.66
-7.33
-7.65
-7.47
-6.78
-5.72
-4.48
-3.22
-2.08
-1.09
-0.28
0.29
0.55
0.49
0.20
-0.11
-0.16
0.29
1.34
2.94
4.83
6.73
8.32
9.38
9.84
9.72
9.17
8.42
7.69
7.17
6.96
7.04
7.28
7.50
7.58
7.44
7.11
6.71
6.33
6.01
5.72
5.33
4.73
3.86
2.74
1.44
0.09
-1.19
-2.28
-3.07
-3.47
-3.39
-2.83
-1.90
-0.81
0.15
0.70
0.67
0.06
-1.00
-2.23
-3.38
-4.24
-4.73
-4.85
-4.65
-4.23
-3.68
-3.10
-2.56
-2.15
-1.92
-1.86
-1.95
-2.15
-2.41
-2.71
-3.04
-3.37
-3.69
-3.94
-4.07
-4.02
-3.77
-3.31
-2.69
-2.02
-1.45
-1.11
-1.09
-1.40
-1.96
-2.64
-3.33
-3.92
-4.30
-4.39
-4.13
-3.49
-2.47
-1.16
0.33
1.87
3.31
4.53
5.39
5.79
5.69
5.17
4.41
3.68
3.23
3.16
3.43
3.86
4.21
4.27
3.99
3.43
2.74
2.05
1.44
0.89
0.38
-0.16
-0.72
-1.27
-1.78
-2.22
-2.60
-2.97
-3.36
-3.81
-4.28
-4.78
-5.29
-5.83
-6.40
-6.96
-7.41
-7.60
-7.42
-6.80
-5.75
-4.38
-2.81
-1.21
0.32
1.66
2.77
3.60
4.15
4.43
4.45
4.23
3.81
3.29
2.81
2.51
2.48
2.69
2.98
3.18
3.17
2.98
2.70
2.49
2.40
2.42
2.41
2.22
1.79
1.14
0.35
-0.46
-1.27
-2.13
-3.12
-4.35
-5.81
-7.39
-8.97
-10.40
-11.65
-12.72
-13.61
-14.25
-14.45
-14.01
-12.78
-10.75
-8.04
-4.91
-1.67
1.38
3.97
5.95
7.23
7.85
7.91
7.59
7.06
6.44
5.84
5.31
4.91
4.66
4.57
4.59
4.67
4.73
4.72
4.62
4.47
4.31
4.20
4.13
4.08
3.95
3.66
3.15
2.47
1.72
1.04
0.50
0.07
-0.40
-1.07
-2.04
-3.31
-4.78
-6.31
-7.71
-8.79
-9.38
-9.31
-8.46
-6.82
-4.56
-1.98
0.55
2.66
4.14
4.92
5.08
4.77
4.19
3.52
2.92
2.49
2.28
2.30
2.53
2.89
3.28
3.52
3.48
3.06
2.26
1.21
0.09
-0.88
-1.55
-1.88
-1.89
-1.73
-1.50
-1.32
-1.23
-1.27
-1.44
-1.79
-2.32
-2.99
-3.76
-4.50
-5.15
-5.63
-5.88
-5.83
-5.37
-4.39
-2.88
-0.95
1.13
3.04
4.57
5.64
6.30
6.64
6.68
6.38
5.69
4.70
3.59
2.66
2.15
2.11
2.41
2.82
3.11
3.17
3.03
2.79
2.54
2.31
2.02
1.58
0.94
0.10
-0.84
-1.74
-2.48
-3.04
-3.43
-3.76
-4.06
-4.35
-4.61
-4.85
-5.07
-5.31
-5.50
-5.53
-5.19
-4.36
-3.03
-1.34
0.43
2.05
3.34
4.24
4.70
4.68
4.20
3.37
2.42
1.62
1.22
1.29
1.71
2.28
2.78
3.12
3.32
3.44
3.55
3.66
3.73
3.72
3.58
3.27
2.78
2.10
1.26
0.34
-0.54
-1.28
-1.83
-2.20
-2.47
-2.72
-3.03
-3.43
-3.90
-4.37
-4.75
-4.94
-4.85
-4.42
-3.62
-2.51
-1.15
0.35
1.86
3.27
4.43
5.24
5.61
5.50
5.02
4.30
3.55
2.92
2.49
2.26
2.18
2.17
2.20
2.23
2.23
2.15
1.94
1.59
1.15
0.73
0.44
0.32
0.35
0.42
0.39
0.19
-0.18
-0.63
-1.05
-1.34
-1.53
-1.68
-1.92
-2.35
-2.94
-3.56
-4.00
-4.05
-3.56
-2.52
-1.04
0.68
2.38
3.82
4.83
5.30
5.22
4.68
3.82
2.81
1.81
0.92
0.25
-0.17
-0.30
-0.15
0.25
0.83
1.50
2.14
2.60
2.77
2.54
1.94
1.05
0.03
-0.96
-1.81
-2.50
-3.04
-3.46
-3.79
-4.01
-4.11
-4.11
-4.06
-4.03
-4.06
-4.16
-4.29
-4.40
-4.41
-4.24
-3.84
-3.14
-2.11
-0.77
0.82
2.54
4.19
5.54
6.38
6.55
6.01
4.86
3.40
1.97
0.90
0.36
0.35
0.72
1.22
1.63
1.83
1.84
1.75
1.64
1.54
1.39
1.08
0.55
-0.15
-0.90
-1.57
-2.09
-2.52
-2.98
-3.56
-4.24
-4.88
-5.37
-5.66
-5.85
-6.09
-6.45
-6.82
-6.89
-6.35
-5.04
-3.05
-0.71
1.61
3.61
5.16
6.27
6.99
7.33
7.26
6.79
5.99
5.02
4.13
3.50
3.21
3.22
3.38
3.52
3.53
3.36
3.03
2.59
2.09
1.55
0.97
0.30
-0.47
-1.30
-2.09
-2.73
-3.13
-3.31
-3.32
-3.29
-3.31
-3.43
-3.69
-4.11
-4.68
-5.35
-5.97
-6.30
-6.08
-5.17
-3.63
-1.74
0.11
1.60
2.57
3.05
3.18
3.10
2.90
2.59
2.19
1.78
1.48
1.40
1.61
2.04
2.56
2.98
3.15
3.04
2.70
2.25
1.83
1.53
1.34
1.22
1.08
0.86
0.53
0.09
-0.41
-0.91
-1.36
-1.73
-2.06
-2.45
-3.00
-3.75
-4.65
-5.53
-6.16
-6.32
-5.94
-5.03
-3.71
-2.17
-0.55
1.01
2.35
3.35
3.88
3.91
3.50
2.83
2.10
1.52
1.22
1.23
1.55
2.10
2.76
3.39
3.85
4.03
3.94
3.68
3.35
3.04
2.73
2.31
1.68
0.82
-0.22
-1.28
-2.24
-3.02
-3.61
-4.03
-4.29
-4.39
-4.35
-4.24
-4.17
-4.16
-4.15
-3.99
-3.46
-2.45
-1.00
0.70
2.38
3.77
4.70
5.12
5.05
4.59
3.85
2.99
2.20
1.65
1.49
1.76
2.36
3.10
3.74
4.11
4.14
3.88
3.46
3.00
2.56
2.08
1.48
0.67
-0.35
-1.45
-2.47
-3.27
-3.79
-4.08
-4.27
-4.50
-4.87
-5.41
-6.04
-6.66
-7.14
-7.36
-7.21
-6.63
-5.60
-4.13
-2.29
-0.22
1.88
3.77
5.21
6.04
6.22
5.83
5.03
4.06
3.15
2.50
2.20
2.27
2.62
3.08
3.49
3.67
3.59
3.24
2.69
2.03
1.33
0.64
-0.01
-0.60
-1.18
-1.78
-2.42
-3.11
-3.80
-4.43
-4.99
-5.47
-5.95
-6.45
-6.96
-7.33
-7.37
-6.89
-5.82
-4.20
-2.24
-0.21
1.66
3.17
4.23
4.86
5.08
4.98
4.58
3.97
3.23
2.53
2.03
1.87
2.07
2.52
3.03
3.40
3.52
3.41
3.17
2.92
2.71
2.46
2.06
1.41
0.49
-0.59
-1.70
-2.67
-3.43
-3.99
-4.42
-4.85
-5.36
-6.00
-6.69
-7.25
-7.45
-7.10
-6.09
-4.47
-2.46
-0.33
1.61
3.14
4.12
4.55
4.48
4.04
3.40
2.73
2.20
1.89
1.84
2.02
2.35
2.71
2.98
3.07
2.93
2.55
1.99
1.35
0.76
0.26
-0.12
-0.44
-0.79
-1.22
-1.76
-2.33
-2.84
-3.20
-3.39
-3.44
-3.50
-3.70
-4.15
-4.80
-5.44
-5.78
-5.55
-4.62
-3.13
-1.35
0.37
1.76
2.72
3.26
3.49
3.50
3.32
2.96
2.44
1.81
1.20
0.76
0.59
0.74
1.14
1.65
2.11
2.42
2.56
2.59
2.61
2.67
2.73
2.70
2.50
2.08
1.49
0.81
0.12
-0.52
-1.11
-1.71
-2.36
-3.12
-4.02
-5.04
-6.09
-7.01
-7.59
-7.66
-7.15
-6.11
-4.68
-3.08
-1.47
0.01
1.31
2.36
3.11
3.48
3.45
3.07
2.44
1.77
1.21
0.89
0.83
1.00
1.26
1.49
1.61
1.59
1.48
1.35
1.28
1.29
1.35
1.38
1.31
1.08
0.68
0.14
-0.46
-1.06
-1.56
-1.96
-2.26
-2.53
-2.86
-3.30
-3.88
-4.54
-5.15
-5.52
-5.45
-4.82
-3.61
-1.93
-0.00
1.93
3.64
4.93
5.72
5.97
5.74
5.14
4.38
3.69
3.27
3.21
3.47
3.89
4.33
4.64
4.78
4.73
4.46
3.95
3.20
2.32
1.46
0.78
0.34
0.05
-0.26
-0.74
-1.40
-2.08
-2.58
-2.75
-2.65
-2.47
-2.40
-2.59
-3.04
-3.63
-4.26
-4.86
-5.36
-5.68
-5.66
-5.11
-3.93
-2.17
-0.09
1.99
3.78
5.08
5.84
6.10
5.91
5.36
4.55
3.63
2.80
2.24
2.06
2.22
2.58
2.95
3.16
3.10
2.78
2.25
1.59
0.87
0.18
-0.44
-0.96
-1.39
-1.76
-2.09
-2.40
-2.69
-2.96
-3.18
-3.39
-3.62
-3.93
-4.31
-4.77
-5.27
-5.77
-6.19
-6.42
-6.30
-5.67
-4.45
-2.71
-0.64
1.48
3.37
4.85
5.85
6.36
6.41
6.02
5.29
4.35
3.42
2.72
2.34
2.30
2.47
2.71
2.90
2.98
2.94
2.79
2.55
2.23
1.83
1.39
0.92
0.44
-0.05
-0.54
-0.99
-1.35
-1.54
-1.61
-1.65
-1.82
-2.24
-2.93
-3.80
-4.71
-5.56
-6.33
-6.98
-7.46
-7.63
-7.27
-6.27
-4.63
-2.53
-0.28
1.86
3.69
5.14
6.18
6.79
6.92
6.55
5.74
4.67
3.62
2.84
2.54
2.72
3.26
3.89
4.38
4.53
4.28
3.68
2.85
1.93
1.06
0.33
-0.23
-0.61
-0.88
-1.13
-1.41
-1.77
-2.22
-2.72
-3.24
-3.75
-4.20
-4.54
-4.76
-4.87
-4.97
-5.16
-5.53
-6.04
-6.48
-6.55
-5.97
-4.65
-2.71
-0.49
1.59
3.22
4.25
4.73
4.79
4.56
4.12
3.52
2.80
2.04
1.38
0.94
0.77
0.88
1.18
1.58
1.98
2.34
2.58
2.65
2.44
1.91
1.08
0.03
-1.04
-1.96
-2.61
-2.96
-3.07
-3.04
-2.97
-3.00
-3.23
-3.73
-4.52
-5.49
-6.45
-7.14
-7.34
-6.91
-5.85
-4.30
-2.46
-0.51
1.38
3.07
4.44
5.38
5.82
5.76
5.29
4.59
3.90
3.41
3.26
3.40
3.70
3.98
4.11
4.07
3.91
3.69
3.42
3.07
2.58
1.94
1.20
0.44
-0.26
-0.88
-1.45
-2.03
-2.65
-3.31
-3.97
-4.61
-5.20
-5.74
-6.26
-6.79
-7.33
-7.87
-8.28
-8.35
-7.84
-6.60
-4.66
-2.23
0.31
2.62
4.47
5.81
6.67
7.12
7.15
6.73
5.89
4.75
3.57
2.63
2.15
2.21
2.72
3.45
4.12
4.50
4.47
4.03
3.31
2.51
1.76
1.12
0.56
-0.02
-0.65
-1.30
-1.90
-2.37
-2.73
-3.02
-3.34
-3.74
-4.17
-4.62
-5.06
-5.55
-6.13
-6.78
-7.35
-7.57
-7.16
-5.96
-4.03
-1.64
0.87
3.12
4.88
6.07
6.71
6.88
6.65
6.10
5.30
4.40
3.60
3.09
3.00
3.33
3.93
4.54
4.90
4.86
4.42
3.71
2.94
2.27
1.80
1.48
1.18
0.79
0.23
-0.49
-1.31
-2.15
-2.90
-3.53
-3.99
-4.27
-4.42
-4.50
-4.62
-4.91
-5.40
-6.04
-6.62
-6.86
-6.51
-5.44
-3.73
-1.64
0.51
2.45
4.03
5.19
5.95
6.27
6.13
5.56
4.69
3.77
3.09
2.83
2.99
3.39
3.81
4.06
4.10
4.01
3.89
3.78
3.66
3.41
2.96
2.28
1.47
0.62
-0.16
-0.81
-1.35
-1.82
-2.28
-2.75
-3.19
-3.54
-3.74
-3.78
-3.71
-3.72
-3.98
-4.59
-5.51
-6.48
-7.11
-7.07
-6.18
-4.53
-2.45
-0.30
1.59
3.11
4.24
5.04
5.52
5.63
5.33
4.66
3.77
2.94
2.36
2.15
2.25
2.47
2.66
2.74
2.72
2.66
2.61
2.53
2.33
1.94
1.37
0.69
0.03
-0.52
-0.94
-1.26
-1.54
-1.84
-2.16
-2.51
-2.90
-3.31
-3.78
-4.34
-4.99
-5.72
-6.42
-6.96
-7.13
-6.77
-5.82
-4.34
-2.51
-0.55
1.35
3.05
4.47
5.51
6.09
6.13
5.66
4.82
3.85
3.00
2.46
2.26
2.36
2.62
2.92
3.15
3.28
3.28
3.14
2.84
2.39
1.79
1.10
0.35
-0.43
-1.20
-1.93
-2.57
-3.10
-3.49
-3.74
-3.91
-4.08
-4.35
-4.72
-5.19
-5.70
-6.15
-6.51
-6.74
-6.75
-6.43
-5.65
-4.32
-2.48
-0.33
1.88
3.89
5.49
6.58
7.10
7.08
6.58
5.77
4.83
3.97
3.33
2.98
2.87
2.89
2.95
3.01
3.05
3.06
3.01
2.85
2.57
2.18
1.73
1.25
0.74
0.13
-0.62
-1.52
-2.46
-3.23
-3.66
-3.69
-3.42
-3.08
-2.95
-3.18
-3.75
-4.52
-5.29
-5.90
-6.24
-6.29
-5.96
-5.17
-3.83
-1.99
0.18
2.34
4.13
5.28
5.69
5.44
4.76
3.88
3.00
2.24
1.70
1.40
1.41
1.73
2.33
3.07
3.74
4.14
4.09
3.58
2.75
1.81
0.98
0.39
0.03
-0.20
-0.44
-0.77
-1.20
-1.67
-2.07
-2.31
-2.40
-2.45
-2.60
-2.98
-3.62
-4.42
-5.20
-5.75
-5.90
-5.59
-4.87
-3.84
-2.58
-1.20
0.24
1.62
2.82
3.69
4.13
4.14
3.79
3.23
2.64
2.14
1.82
1.65
1.55
1.48
1.44
1.48
1.63
1.87
2.08
2.11
1.82
1.22
0.39
-0.49
-1.26
-1.87
-2.36
-2.77
-3.14
-3.43
-3.56
-3.50
-3.32
-3.23
-3.42
-4.02
-4.97
-5.99
-6.73
-6.85
-6.16
-4.67
-2.61
-0.29
1.91
3.72
4.95
5.56
5.58
5.13
4.36
3.40
2.41
1.52
0.87
0.55
0.59
0.94
1.47
2.02
2.45
2.68
2.70
2.52
2.19
1.73
1.17
0.53
-0.19
-0.95
-1.68
-2.28
-2.64
-2.69
-2.48
-2.15
-1.93
-2.03
-2.58
-3.52
-4.65
-5.70
-6.43
-6.67
-6.34
-5.46
-4.05
-2.19
-0.02
2.24
4.32
5.91
6.80
6.91
6.31
5.26
4.08
3.03
2.28
1.87
1.74
1.82
2.06
2.45
2.94
3.43
3.74
3.69
3.21
2.36
1.36
0.43
-0.26
-0.68
-0.93
-1.14
-1.38
-1.70
-2.05
-2.40
-2.73
-3.08
-3.50
-4.03
-4.66
-5.29
-5.71
-5.74
-5.20
-4.09
-2.52
-0.73
1.04
2.57
3.74
4.50
4.83
4.72
4.19
3.33
2.33
1.42
0.84
0.76
1.18
1.97
2.87
3.62
4.00
3.95
3.52
2.86
2.16
1.56
1.13
0.82
0.54
0.21
-0.25
-0.85
-1.52
-2.19
-2.79
-3.27
-3.63
-3.91
-4.18
-4.51
-4.91
-5.35
-5.73
-5.89
-5.68
-4.98
-3.73
-2.02
-0.06
1.88
3.51
4.62
5.12
5.09
4.68
4.04
3.32
2.61
1.98
1.51
1.28
1.34
1.69
2.23
2.80
3.21
3.34
3.15
2.68
2.03
1.29
0.57
-0.10
-0.66
-1.12
-1.49
-1.82
-2.14
-2.47
-2.82
-3.15
-3.43
-3.69
-4.01
-4.46
-5.07
-5.74
-6.23
-6.26
-5.65
-4.40
-2.68
-0.78
1.08
2.70
4.01
4.94
5.43
5.41
4.91
4.08
3.15
2.36
1.91
1.81
2.00
2.29
2.52
2.56
2.37
2.01
1.56
1.13
0.81
0.58
0.40
0.18
-0.14
-0.56
-1.01
-1.42
-1.72
-1.88
-1.94
-1.96
-2.03
-2.24
-2.66
-3.29
-4.10
-4.94
-5.63
-5.97
-5.78
-4.99
-3.64
-1.90
-0.05
1.67
3.00
3.82
4.08
3.84
3.23
2.43
1.62
0.98
0.61
0.53
0.68
0.93
1.19
1.40
1.56
1.69
1.81
1.89
1.86
1.65
1.23
0.63
-0.09
-0.80
-1.44
-1.96
-2.38
-2.73
-3.07
-3.44
-3.89
-4.45
-5.10
-5.76
-6.29
-6.56
-6.43
-5.84
-4.80
-3.40
-1.81
-0.22
1.15
2.15
2.77
3.06
3.16
3.18
3.12
2.93
2.56
2.02
1.45
1.00
0.79
0.82
0.99
1.18
1.31
1.40
1.46
1.48
1.38
1.08
0.54
-0.17
-0.92
-1.59
-2.10
-2.49
-2.85
-3.25
-3.73
-4.29
-4.87
-5.46
-6.01
-6.47
-6.77
-6.75
-6.28
-5.26
-3.73
-1.82
0.19
2.05
3.52
4.53
5.06
5.20
5.04
4.68
4.16
3.53
2.88
2.33
1.97
1.89
2.06
2.38
2.67
2.80
2.69
2.34
1.85
1.32
0.81
0.31
-0.24
-0.89
-1.66
-2.46
-3.12
-3.50
-3.56
-3.42
-3.29
-3.39
-3.83
-4.53
-5.24
-5.69
-5.63
-5.00
-3.82
-2.27
-0.52
1.25
2.90
4.29
5.30
5.86
5.93
5.57
4.88
4.07
3.31
2.79
2.56
2.60
2.79
2.99
3.10
3.07
2.96
2.83
2.69
2.53
2.24
1.75
1.04
0.20
-0.62
-1.27
-1.66
-1.81
-1.80
-1.73
-1.67
-1.65
-1.72
-1.93
-2.34
-2.97
-3.69
-4.29
-4.46
-4.01
-2.93
-1.39
0.29
1.83
3.03
3.84
4.29
4.44
4.34
4.02
3.54
2.98
2.45
2.07
1.92
1.98
2.20
2.46
2.65
2.70
2.58
2.36
2.13
1.98
1.95
1.97
1.90
1.62
1.06
0.28
-0.56
-1.29
-1.81
-2.17
-2.50
-2.98
-3.68
-4.54
-5.38
-5.98
-6.13
-5.81
-5.08
-4.08
-2.91
-1.65
-0.30
1.12
2.55
3.82
4.72
5.08
4.85
4.12
3.13
2.17
1.45
1.09
1.08
1.34
1.74
2.15
2.49
2.68
2.71
2.59
2.35
2.00
1.55
1.01
0.34
-0.42
-1.26
-2.08
-2.80
-3.35
-3.69
-3.83
-3.84
-3.84
-3.98
-4.34
-4.93
-5.63
-6.18
-6.33
-5.85
-4.68
-2.93
-0.87
1.15
2.81
3.94
4.48
4.54
4.27
3.82
3.29
2.73
2.22
1.83
1.69
1.85
2.32
2.97
3.58
3.91
3.82
3.31
2.54
1.73
1.10
0.70
0.47
0.25
-0.15
-0.78
-1.56
-2.34
-2.96
-3.36
-3.60
-3.80
-4.09
-4.52
-5.05
-5.57
-5.95
-6.07
-5.82
-5.13
-3.98
-2.46
-0.73
0.96
2.39
3.44
4.09
4.38
4.42
4.23
3.87
3.37
2.84
2.40
2.17
2.19
2.41
2.70
2.94
3.02
2.92
2.63
2.19
1.65
1.09
0.57
0.15
-0.20
-0.52
-0.88
-1.35
-1.92
-2.54
-3.14
-3.63
-3.94
-4.02
-3.87
-3.53
-3.09
-2.73
-2.62
-2.83
-3.26
-3.66
-3.72
-3.20
-2.06
-0.47
1.27
2.87
4.16
5.07
5.58
5.71
5.42
4.71
3.68
2.51
1.45
0.73
0.45
0.60
1.03
1.58
2.08
2.44
2.62
2.60
2.40
2.07
1.67
1.24
0.84
0.47
0.14
-0.19
-0.52
-0.87
-1.22
-1.56
-1.89
-2.18
-2.42
-2.64
-2.89
-3.27
-3.83
-4.53
-5.25
-5.75
-5.80
-5.26
-4.18
-2.75
-1.21
0.23
1.45
2.43
3.15
3.62
3.81
3.72
3.36
2.86
2.36
2.00
1.85
1.91
2.09
2.29
2.43
2.46
2.39
2.23
2.00
1.70
1.33
0.87
0.34
-0.23
-0.78
-1.25
-1.58
-1.76
-1.82
-1.88
-2.03
-2.36
-2.87
-3.46
-4.02
-4.46
-4.77
-5.02
-5.24
-5.39
-5.29
-4.78
-3.75
-2.28
-0.61
0.92
2.04
2.60
2.59
2.14
1.42
0.66
0.08
-0.16
0.00
0.50
1.14
1.74
2.19
2.46
2.62
2.75
2.84
2.85
2.74
2.48
2.10
1.66
1.20
0.72
0.21
-0.33
-0.92
-1.52
-2.11
-2.67
-3.22
-3.78
-4.35
-4.93
-5.46
-5.82
-5.88
-5.53
-4.74
-3.59
-2.24
-0.86
0.42
1.56
2.62
3.61
4.48
5.13
5.41
5.22
4.59
3.67
2.70
1.93
1.47
1.30
1.29
1.26
1.13
0.94
0.81
0.88
1.23
1.83
2.66
3.71
5.01
6.61
8.57
10.86
13.32
15.73
17.83
19.37
20.21
20.39
20.05
19.47
18.94
18.61
18.47
18.37
18.06
17.41
16.39
15.15
13.87
12.76
11.94
11.48
11.40
11.70
12.36
13.25
14.11
14.59
14.31
13.00
10.63
7.37
3.56
-0.41
-4.19
-7.55
-10.32
-12.35
-13.58
-14.02
-13.80
-13.11
-12.16
-11.03
-9.67
-8.03
-6.12
-4.17
-2.51
-1.54
-1.51
-2.45
-4.24
-6.58
-9.20
-11.79
-14.09
-15.84
-16.82
-16.99
-16.44
-15.41
-14.19
-12.95
-11.78
-10.65
-9.54
-8.44
-7.40
-6.43
-5.51
-4.55
-3.48
-2.29
-1.04
0.11
1.02
1.64
1.96
2.03
1.91
1.61
1.13
0.46
-0.39
-1.35
-2.38
-3.42
-4.46
-5.47
-6.52
-7.70
-9.15
-11.00
-13.35
-16.18
-19.39
-22.78
-26.12
-29.23
-31.97
-34.22
-35.87
-36.84
-37.06
-36.56
-35.46
-33.97
-32.30
-30.62
-29.02
-27.47
-25.86
-23.99
-21.67
-18.71
-15.09
-10.91
-6.42
-1.98
2.05
5.42
8.00
9.77
10.85
11.34
11.36
11.01
10.38
9.55
8.64
7.72
6.89
6.18
5.64
5.24
4.93
4.56
3.98
3.00
1.55
-0.33
-2.40
-4.28
-5.57
-5.92
-5.19
-3.44
-0.90
2.06
5.03
7.62
9.54
10.63
10.89
10.51
9.74
8.88
8.17
7.75
7.67
7.92
8.42
9.02
9.58
9.90
9.87
9.46
8.79
8.02
7.30
6.66
6.04
5.33
4.44
3.40
2.31
1.32
0.53
-0.05
-0.45
-0.78
-1.14
-1.63
-2.33
-3.29
-4.39
-5.38
-5.86
-5.50
-4.14
-1.92
0.81
3.62
6.18
8.33
10.06
11.41
12.35
12.80
12.70
12.11
11.21
10.25
9.45
8.93
8.63
8.42
8.19
7.85
7.39
6.86
6.33
5.83
5.35
4.84
4.23
3.43
2.45
1.33
0.22
-0.74
-1.42
-1.81
-1.97
-2.06
-2.22
-2.59
-3.21
-4.06
-5.06
-6.09
-6.97
-7.49
-7.43
-6.64
-5.09
-2.93
-0.46
1.93
3.89
5.17
5.68
5.53
4.94
4.19
3.52
3.05
2.82
2.77
2.87
3.15
3.61
4.21
4.81
5.21
5.25
4.88
4.22
3.48
2.83
2.33
1.91
1.42
0.76
-0.08
-1.03
-1.93
-2.67
-3.21
-3.64
-4.06
-4.62
-5.36
-6.22
-7.07
-7.76
-8.18
-8.24
-7.91
-7.16
-5.95
-4.28
-2.21
0.12
2.52
4.78
6.76
8.40
9.65
10.51
10.96
11.02
10.74
10.23
9.66
9.17
8.87
8.84
9.06
9.45
9.88
10.19
10.27
10.07
9.59
8.90
8.07
7.13
6.07
4.87
3.56
2.18
0.83
-0.44
-1.61
-2.69
-3.69
-4.61
-5.45
-6.20
-6.90
-7.57
-8.20
-8.68
-8.85
-8.56
-7.72
-6.39
-4.70
-2.87
-1.10
0.43
1.61
2.35
2.65
2.56
2.23
1.85
1.59
1.56
1.76
2.10
2.47
2.81
3.10
3.37
3.64
3.88
4.02
3.99
3.77
3.38
2.94
2.54
2.23
2.02
1.80
1.50
1.07
0.55
0.01
-0.53
-1.13
-1.90
-2.91
-4.13
-5.34
-6.21
-6.46
-5.93
-4.69
-2.98
-1.09
0.73
2.29
3.46
4.16
4.31
3.93
3.14
2.16
1.27
0.70
0.58
0.89
1.48
2.12
2.63
2.88
2.88
2.69
2.41
2.11
1.76
1.32
0.74
0.04
-0.71
-1.38
-1.83
-2.04
-2.09
-2.14
-2.34
-2.77
-3.42
-4.19
-4.95
-5.54
-5.84
-5.73
-5.18
-4.16
-2.76
-1.13
0.57
2.14
3.43
4.32
4.73
4.64
4.09
3.18
2.13
1.19
0.58
0.43
0.68
1.13
1.50
1.61
1.39
0.96
0.51
0.16
-0.06
-0.25
-0.56
-1.05
-1.67
-2.30
-2.80
-3.12
-3.28
-3.33
-3.30
-3.17
-2.92
-2.58
-2.29
-2.19
-2.40
-2.89
-3.47
-3.91
-3.96
-3.48
-2.50
-1.15
0.38
1.89
3.22
4.26
4.95
5.31
5.40
5.31
5.13
4.94
4.77
4.65
4.59
4.60
4.69
4.86
5.01
5.02
4.73
4.05
2.97
1.63
0.24
-1.00
-1.94
-2.59
-3.00
-3.29
-3.53
-3.80
-4.15
-4.62
-5.21
-5.87
-6.51
-7.03
-7.32
-7.35
-7.12
-6.64
-5.92
-4.98
-3.84
-2.55
-1.20
0.13
1.29
2.18
2.73
2.91
2.73
2.33
1.86
1.49
1.32
1.41
1.72
2.17
2.64
3.04
3.32
3.47
3.51
3.45
3.28
2.95
2.42
1.69
0.87
0.10
-0.51
-0.95
-1.29
-1.68
-2.22
-2.87
-3.56
-4.15
-4.56
-4.74
-4.68
-4.34
-3.71
-2.82
-1.73
-0.57
0.51
1.40
2.05
2.44
2.56
2.41
2.05
1.58
1.10
0.76
0.61
0.68
0.91
1.21
1.49
1.65
1.58
1.24
0.65
-0.07
-0.78
-1.35
-1.74
-1.97
-2.09
-2.13
-2.09
-1.97
-1.86
-1.90
-2.22
-2.89
-3.79
-4.67
-5.21
-5.17
-4.50
-3.30
-1.81
-0.32
0.94
1.80
2.18
2.13
1.76
1.23
0.70
0.28
0.01
-0.08
-0.03
0.17
0.48
0.85
1.20
1.44
1.50
1.43
1.30
1.25
1.33
1.49
1.60
1.51
1.14
0.53
-0.17
-0.85
-1.45
-2.01
-2.58
-3.20
-3.80
-4.21
-4.25
-3.77
-2.74
-1.29
0.34
1.91
3.17
4.01
4.43
4.50
4.34
4.04
3.64
3.17
2.65
2.13
1.69
1.38
1.19
1.11
1.08
1.07
1.07
1.06
0.99
0.79
0.43
-0.08
-0.64
-1.14
-1.48
-1.62
-1.63
-1.60
-1.62
-1.74
-1.97
-2.30
-2.71
-3.15
-3.57
-3.85
-3.83
-3.39
-2.46
-1.09
0.48
1.98
3.14
3.80
3.96
3.73
3.25
2.65
2.01
1.39
0.85
0.46
0.29
0.33
0.55
0.82
1.01
1.03
0.83
0.43
-0.11
-0.72
-1.29
-1.77
-2.07
-2.21
-2.23
-2.19
-2.21
-2.33
-2.58
-2.93
-3.35
-3.78
-4.18
-4.48
-4.53
-4.18
-3.32
-1.97
-0.30
1.39
2.80
3.72
4.08
4.00
3.62
3.10
2.55
2.01
1.56
1.26
1.15
1.27
1.54
1.86
2.09
2.13
1.94
1.56
1.03
0.41
-0.26
-0.94
-1.60
-2.13
-2.46
-2.54
-2.43
-2.30
-2.35
-2.69
-3.32
-4.08
-4.70
-4.96
-4.70
-3.89
-2.59
-0.91
0.99
2.93
4.68
6.05
6.89
7.16
6.89
6.19
5.17
4.01
2.83
1.77
0.92
0.32
-0.05
-0.27
-0.38
-0.45
-0.50
-0.56
-0.67
-0.84
-1.06
-1.31
-1.57
-1.81
-2.04
-2.30
-2.58
-2.86
-3.09
-3.24
-3.31
-3.35
-3.41
-3.53
-3.70
-3.84
-3.80
-3.46
-2.77
-1.75
-0.54
0.67
1.73
2.57
3.19
3.66
3.99
4.15
4.07
3.73
3.17
2.57
2.12
1.93
2.00
2.22
2.44
2.53
2.45
2.27
2.06
1.88
1.72
1.54
1.26
0.84
0.29
-0.32
-0.92
-1.43
-1.86
-2.21
-2.54
-2.87
-3.21
-3.59
-3.98
-4.40
-4.79
-5.05
-5.05
-4.65
-3.82
-2.65
-1.32
-0.02
1.13
2.12
3.00
3.78
4.40
4.74
4.70
4.28
3.63
2.99
2.60
2.56
2.84
3.26
3.59
3.69
3.53
3.15
2.64
2.07
1.43
0.71
-0.09
-0.89
-1.60
-2.13
-2.46
-2.64
-2.80
-3.00
-3.30
-3.67
-4.12
-4.60
-5.03
-5.27
-5.15
-4.53
-3.40
-1.92
-0.36
1.02
2.06
2.76
3.17
3.40
3.48
3.41
3.14
2.71
2.20
1.73
1.41
1.30
1.37
1.56
1.74
1.83
1.71
1.36
0.77
-0.04
-0.99
-2.00
-2.98
-3.85
-4.55
-5.09
-5.48
-5.77
-6.03
-6.27
-6.51
-6.78
-7.06
-7.32
-7.48
-7.36
-6.80
-5.66
-3.98
-1.94
0.19
2.08
3.50
4.34
4.64
4.51
4.15
3.74
3.44
3.33
3.41
3.60
3.82
3.98
4.01
3.92
3.69
3.36
2.95
2.51
2.06
1.59
1.06
0.41
-0.36
-1.21
-2.04
-2.74
-3.24
-3.58
-3.85
-4.14
-4.54
-5.04
-5.64
-6.27
-6.83
-7.21
-7.23
-6.74
-5.67
-4.02
-1.96
0.27
2.38
4.12
5.33
5.98
6.14
5.99
5.72
5.45
5.28
5.20
5.24
5.37
5.58
5.82
6.02
6.10
5.98
5.61
5.04
4.37
3.73
3.23
2.86
2.57
2.24
1.78
1.15
0.42
-0.29
-0.89
-1.33
-1.66
-1.97
-2.36
-2.86
-3.47
-4.15
-4.85
-5.55
-6.18
-6.66
-6.87
-6.67
-5.96
-4.78
-3.25
-1.58
0.06
1.53
2.79
3.88
4.82
5.60
6.16
6.41
6.31
5.87
5.23
4.54
3.98
3.64
3.57
3.67
3.84
3.93
3.89
3.73
3.52
3.31
3.13
2.91
2.58
2.12
1.57
1.06
0.68
0.47
0.36
0.18
-0.19
-0.76
-1.41
-1.98
-2.32
-2.44
-2.42
-2.46
-2.67
-3.11
-3.71
-4.38
-5.03
-5.63
-6.17
-6.67
-7.09
-7.41
-7.58
-7.56
-7.30
-6.74
-5.83
-4.49
-2.74
-0.68
1.49
3.50
5.14
6.22
6.71
6.67
6.26
5.64
5.01
4.55
4.36
4.51
4.94
5.50
5.97
6.18
5.99
5.42
4.61
3.71
2.90
2.25
1.76
1.40
1.11
0.86
0.62
0.36
0.05
-0.38
-0.94
-1.54
-2.06
-2.39
-2.44
-2.26
-1.97
-1.71
-1.58
-1.60
-1.74
-1.96
-2.26
-2.65
-3.17
-3.83
-4.57
-5.29
-5.90
-6.36
-6.64
-6.73
-6.57
-6.08
-5.21
-3.96
-2.44
-0.84
0.63
1.82
2.72
3.37
3.81
4.02
3.95
3.56
2.94
2.30
1.93
2.03
2.57
3.33
3.98
4.25
4.09
3.66
3.24
3.02
3.07
3.28
3.52
3.63
3.57
3.36
3.06
2.68
2.25
1.79
1.30
0.81
0.33
-0.15
-0.63
-1.08
-1.45
-1.74
-1.98
-2.23
-2.56
-3.02
-3.55
-4.06
-4.45
-4.65
-4.71
-4.69
-4.70
-4.79
-5.00
-5.28
-5.54
-5.67
-5.55
-5.06
-4.16
-2.88
-1.36
0.19
1.54
2.52
3.06
3.20
3.04
2.71
2.29
1.85
1.46
1.17
1.03
1.06
1.25
1.52
1.79
1.97
2.04
1.98
1.83
1.62
1.41
1.23
1.08
0.95
0.82
0.68
0.53
0.38
0.22
0.01
-0.28
-0.67
-1.12
-1.58
-1.99
-2.31
-2.52
-2.64
-2.66
-2.60
-2.49
-2.40
-2.40
-2.51
-2.71
-2.96
-3.22
-3.50
-3.83
-4.19
-4.43
-4.32
-3.68
-2.47
-0.90
0.69
1.98
2.81
3.21
3.35
3.35
3.26
3.02
2.58
1.99
1.41
1.01
0.91
1.07
1.37
1.67
1.92
2.15
2.41
2.70
2.91
2.88
2.48
1.70
0.65
-0.46
-1.40
-2.05
-2.37
-2.44
-2.33
-2.15
-1.95
-1.82
-1.84
-2.06
-2.52
-3.16
-3.85
-4.42
-4.75
-4.79
-4.63
-4.45
-4.48
-4.84
-5.48
-6.21
-6.69
-6.63
-5.85
-4.35
-2.36
-0.17
1.85
3.45
4.50
4.99
5.01
4.69
4.19
3.63
3.13
2.75
2.59
2.67
3.01
3.50
4.01
4.37
4.44
4.18
3.67
3.02
2.36
1.79
1.35
1.03
0.79
0.60
0.41
0.19
-0.08
-0.41
-0.76
-1.12
-1.45
-1.72
-1.95
-2.14
-2.30
-2.48
-2.67
-2.91
-3.20
-3.52
-3.83
-4.08
-4.20
-4.13
-3.84
-3.28
-2.46
-1.41
-0.20
1.02
2.12
2.93
3.37
3.42
3.12
2.60
1.97
1.38
0.93
0.69
0.70
0.94
1.35
1.85
2.27
2.47
2.34
1.85
1.08
0.20
-0.58
-1.10
-1.31
-1.26
-1.08
-0.92
-0.90
-1.05
-1.38
-1.85
-2.38
-2.89
-3.28
-3.44
-3.32
-2.94
-2.40
-1.91
-1.66
-1.73
-2.07
-2.45
-2.60
-2.31
-1.51
-0.35
0.93
2.11
3.04
3.67
3.99
4.02
3.72
3.10
2.24
1.32
0.59
0.24
0.33
0.78
1.43
2.04
2.47
2.62
2.50
2.14
1.61
0.98
0.31
-0.30
-0.81
-1.16
-1.36
-1.47
-1.53
-1.59
-1.66
-1.71
-1.74
-1.79
-1.94
-2.29
-2.89
-3.66
-4.41
-4.90
-4.88
-4.27
-3.12
-1.60
0.03
1.56
2.88
3.92
4.68
5.16
5.38
5.28
4.83
4.01
2.90
1.65
0.50
-0.31
-0.64
-0.49
-0.00
0.60
1.10
1.40
1.46
1.34
1.07
0.67
0.13
-0.54
-1.26
-1.94
-2.48
-2.84
-3.08
-3.31
-3.64
-4.11
-4.70
-5.32
-5.92
-6.48
-6.99
-7.41
-7.64
-7.56
-7.03
-6.05
-4.70
-3.18
-1.75
-0.60
0.14
0.47
0.43
0.13
-0.33
-0.87
-1.42
-1.94
-2.34
-2.48
-2.23
-1.47
-0.18
1.48
3.28
4.98
6.36
7.34
7.94
8.17
8.07
7.64
6.90
5.93
4.88
3.95
3.29
2.94
2.81
2.72
2.49
2.05
1.41
0.67
-0.07
-0.72
-1.26
-1.73
-2.08
-2.24
-2.10
-1.55
-0.60
0.63
1.94
3.09
3.92
4.39
4.54
4.48
4.31
4.08
3.78
3.41
2.97
2.49
2.03
1.67
1.47
1.46
1.64
1.96
2.34
2.66
2.83
2.76
2.42
1.82
1.05
0.23
-0.50
-1.05
-1.40
-1.59
-1.73
-1.92
-2.20
-2.54
-2.90
-3.21
-3.46
-3.68
-3.92
-4.20
-4.49
-4.73
-4.78
-4.51
-3.84
-2.74
-1.30
0.29
1.81
3.02
3.80
4.10
4.00
3.62
3.09
2.52
1.99
1.58
1.35
1.33
1.50
1.80
2.11
2.31
2.32
2.11
1.73
1.29
0.88
0.59
0.39
0.17
-0.16
-0.69
-1.36
-2.05
-2.60
-2.89
-2.93
-2.83
-2.75
-2.78
-2.98
-3.33
-3.78
-4.26
-4.72
-5.07
-5.16
-4.89
-4.16
-2.99
-1.49
0.13
1.66
2.94
3.86
4.41
4.59
4.44
4.03
3.44
2.79
2.20
1.78
1.59
1.62
1.81
2.07
2.28
2.38
2.35
2.20
1.99
1.74
1.47
1.12
0.66
0.06
-0.64
-1.35
-1.93
-2.29
-2.40
-2.31
-2.12
-1.97
-1.96
-2.17
-2.63
-3.32
-4.14
-4.97
-5.65
-6.07
-6.18
-5.95
-5.41
-4.59
-3.47
-2.07
-0.46
1.23
2.81
4.08
4.94
5.34
5.33
5.00
4.43
3.74
3.08
2.57
2.34
2.41
2.70
3.06
3.35
3.49
3.48
3.34
3.08
2.70
2.21
1.64
1.08
0.61
0.26
0.00
-0.21
-0.45
-0.70
-0.94
-1.14
-1.33
-1.56
-1.88
-2.28
-2.68
-2.98
-3.16
-3.29
-3.53
-3.99
-4.66
-5.36
-5.80
-5.69
-4.91
-3.51
-1.71
0.21
2.04
3.60
4.79
5.52
5.73
5.43
4.70
3.76
2.84
2.19
1.92
2.00
2.31
2.71
3.04
3.22
3.19
2.94
2.49
1.89
1.22
0.60
0.10
-0.24
-0.46
-0.64
-0.84
-1.08
-1.31
-1.48
-1.57
-1.62
-1.71
-1.90
-2.22
-2.61
-3.01
-3.38
-3.74
-4.16
-4.67
-5.23
-5.72
-5.95
-5.76
-5.08
-3.93
-2.44
-0.78
0.91
2.50
3.87
4.92
5.55
5.73
5.47
4.89
4.13
3.41
2.86
2.58
2.57
2.75
3.00
3.22
3.33
3.27
3.07
2.75
2.33
1.87
1.42
1.00
0.68
0.48
0.37
0.30
0.19
-0.01
-0.33
-0.74
-1.21
-1.68
-2.09
-2.39
-2.58
-2.70
-2.82
-3.05
-3.52
-4.29
-5.34
-6.51
-7.55
-8.15
-8.07
-7.19
-5.58
-3.45
-1.12
1.11
2.98
4.35
5.18
5.50
5.42
5.05
4.55
4.04
3.63
3.34
3.18
3.13
3.16
3.26
3.42
3.62
3.80
3.91
3.89
3.71
3.35
2.85
2.25
1.62
1.02
0.50
0.10
-0.20
-0.46
-0.72
-1.02
