1530491739.00
64.000000
-0.00
-0.00
-0.00
-0.00
-0.00
-0.00
-0.00
-0.00
-0.00
-0.00
0.00
0.01
0.01
-0.00
-0.03
-0.05
-0.05
0.00
0.13
0.36
0.66
1.01
1.37
1.72
2.06
2.40
2.79
3.24
3.80
4.42
5.06
5.67
6.20
6.67
7.14
7.67
8.32
9.18
10.15
11.09
11.87
12.41
12.78
13.17
13.83
14.96
16.79
19.11
21.64
24.03
26.08
27.88
29.77
32.23
35.61
40.31
45.93
51.88
57.48
62.32
66.48
70.53
75.28
81.36
89.33
98.57
108.10
116.80
123.97
129.68
134.76
140.87
146.96
155.37
166.51
180.07
194.37
206.22
211.35
205.53
185.98
152.37
107.25
54.15
-3.27
-62.54
-122.60
-183.11
-243.59
-302.90
-359.42
-411.37
-458.03
-499.32
-535.49
-566.46
-591.60
-609.54
-618.10
-614.52
-595.45
-558.20
-501.57
-426.98
-338.89
-243.97
-149.45
-61.29
16.95
84.17
140.54
186.58
222.51
248.44
264.94
273.44
276.08
275.02
271.81
266.94
260.08
250.59
238.20
223.31
207.03
190.73
175.53
161.93
149.75
138.31
126.88
115.09
103.00
91.13
80.08
70.28
61.84
54.53
48.01
41.92
36.09
30.45
25.03
19.93
15.19
10.96
7.24
3.99
1.19
-1.17
-3.11
-4.63
-5.80
-6.69
-7.40
-8.04
-8.66
-9.23
-9.70
-9.97
-9.94
-9.59
-8.98
-8.21
-7.45
-6.81
-6.30
-5.89
-5.48
-5.02
-4.53
-4.08
-3.74
-3.55
-3.46
-3.39
-3.26
-3.04
-2.70
-2.29
-1.87
-1.55
-1.39
-1.45
-1.69
-2.05
-2.39
-2.58
-2.54
-2.25
-1.80
-1.34
-1.01
-0.91
-1.03
-1.27
-1.50
-1.58
-1.48
-1.24
-0.98
-0.80
-0.73
-0.72
-0.69
-0.58
-0.38
-0.14
0.08
0.25
0.40
0.52
0.54
0.32
-0.24
-1.10
-2.01
-2.60
-2.57
-1.86
-0.70
0.50
1.37
1.71
1.64
1.41
1.31
1.46
1.86
2.34
2.81
3.20
3.51
3.77
3.94
3.95
3.67
3.06
2.09
0.86
-0.47
-1.71
-2.76
-3.55
-4.08
-4.43
-4.68
-4.91
-5.17
-5.39
-5.50
-5.38
-4.99
-4.42
-3.82
-3.35
-3.07
-2.92
-2.79
-2.58
-2.28
-1.96
-1.73
-1.59
-1.52
-1.44
-1.32
-1.20
-1.12
-1.12
-1.20
-1.28
-1.28
-1.17
-0.94
-0.67
-0.48
-0.46
-0.66
-1.02
-1.40
-1.66
-1.67
-1.42
-0.95
-0.41
0.12
0.55
0.81
0.88
0.74
0.39
-0.10
-0.62
-1.00
-1.12
-0.96
-0.59
-0.15
0.22
0.45
0.50
0.42
0.27
0.13
0.03
-0.00
0.02
0.11
0.28
0.54
0.91
1.37
1.87
2.33
2.64
2.77
2.70
2.52
2.30
2.11
1.98
1.85
1.66
1.33
0.87
0.33
-0.21
-0.65
-0.94
-1.07
-1.07
-1.00
-0.94
-0.90
-0.93
-0.99
-1.10
-1.26
-1.48
-1.70
-1.87
-1.89
-1.69
-1.30
-0.83
-0.45
-0.27
-0.30
-0.41
-0.40
-0.11
0.49
1.29
2.07
2.66
2.95
2.99
2.90
2.79
2.71
2.65
2.55
2.36
2.10
1.89
1.82
1.98
2.35
2.78
3.11
3.19
3.00
2.59
2.11
1.68
1.35
1.10
0.88
0.67
0.52
0.49
0.66
0.98
1.33
1.51
1.42
1.04
0.49
-0.01
-0.26
-0.18
0.21
0.77
1.35
1.82
2.12
2.26
2.25
2.14
1.96
1.80
1.79
2.04
2.58
3.27
3.75
3.56
2.32
-0.17
-3.85
-8.47
-13.70
-19.29
-25.14
-31.22
-37.49
-43.77
-49.64
-54.47
-57.53
-58.24
-56.29
-51.85
-45.47
-37.99
-30.23
-22.85
-16.20
-10.38
-5.36
-1.07
2.55
5.59
8.22
10.69
13.25
16.03
18.98
21.88
24.39
26.24
27.34
27.76
27.75
27.58
27.46
27.45
27.49
27.39
26.97
26.11
24.78
23.10
21.25
19.41
17.67
16.04
14.43
12.76
11.00
9.26
7.73
6.60
5.98
5.81
5.95
6.19
6.39
6.44
6.30
5.95
5.37
4.55
3.55
2.49
1.54
0.86
0.54
0.59
0.98
1.63
2.44
3.28
3.99
4.40
4.40
3.94
3.08
1.98
0.79
-0.35
-1.41
-2.38
-3.25
-3.97
-4.47
-4.71
-4.73
-4.62
-4.48
-4.39
-4.36
-4.35
-4.30
-4.16
-3.94
-3.65
-3.32
-2.98
-2.64
-2.32
-2.06
-1.89
-1.84
-1.88
-1.94
-1.93
-1.76
-1.41
-0.88
-0.28
0.27
0.67
0.85
0.85
0.74
0.59
0.44
0.28
0.10
-0.13
-0.40
-0.68
-0.93
-1.14
-1.29
-1.36
-1.31
-1.09
-0.68
-0.12
0.52
1.14
1.67
2.10
2.49
2.88
3.27
3.63
3.88
3.98
3.92
3.74
3.52
3.29
3.05
2.77
2.46
2.10
1.70
1.25
0.75
0.19
-0.35
-0.80
-1.10
-1.25
-1.34
-1.47
-1.66
-1.87
-2.01
-2.01
-1.90
-1.78
-1.77
-1.93
-2.20
-2.45
-2.58
-2.58
-2.52
-2.52
-2.64
-2.82
-2.94
-2.89
-2.68
-2.44
-2.34
-2.50
-2.89
-3.33
-3.62
-3.60
-3.25
-2.69
-2.07
-1.56
-1.24
-1.13
-1.19
-1.34
-1.43
-1.32
-0.90
-0.14
0.94
2.20
3.51
4.72
5.72
6.43
6.80
6.85
6.64
6.26
5.83
5.42
5.05
4.71
4.40
4.08
3.74
3.35
2.87
2.30
1.67
1.05
0.49
0.03
-0.36
-0.73
-1.13
-1.54
-1.91
-2.18
-2.29
-2.24
-2.08
-1.90
-1.77
-1.77
-1.91
-2.15
-2.41
-2.61
-2.71
-2.75
-2.81
-2.92
-3.10
-3.29
-3.43
-3.52
-3.62
-3.78
-4.02
-4.28
-4.45
-4.47
-4.35
-4.15
-3.92
-3.65
-3.27
-2.68
-1.85
-0.87
0.10
0.89
1.43
1.76
2.00
2.28
2.65
3.10
3.55
3.90
4.09
4.09
3.88
3.53
3.12
2.76
2.53
2.49
2.58
2.70
2.73
2.61
2.33
1.96
1.53
1.05
0.47
-0.26
-1.07
-1.84
-2.38
-2.59
-2.46
-2.15
-1.83
-1.67
-1.70
-1.88
-2.08
-2.20
-2.19
-2.06
-1.82
-1.54
-1.28
-1.12
-1.08
-1.18
-1.38
-1.61
-1.78
-1.81
-1.67
-1.35
-0.87
-0.24
0.49
1.30
2.13
2.96
3.73
4.40
4.93
5.30
5.49
5.51
5.39
5.16
4.83
4.42
3.93
3.38
2.83
2.31
1.86
1.46
1.09
0.70
0.30
-0.11
-0.49
-0.83
-1.11
-1.38
-1.68
-2.03
-2.42
-2.79
-3.10
-3.34
-3.57
-3.85
-4.23
-4.69
-5.13
-5.38
-5.36
-5.07
-4.66
-4.33
-4.27
-4.59
-5.22
-6.05
-6.87
-7.53
-7.89
-7.91
-7.58
-6.95
-6.13
-5.21
-4.29
-3.43
-2.71
-2.17
-1.85
-1.77
-1.92
-2.23
-2.67
-3.22
-3.92
-4.88
-6.20
-7.90
-9.86
-11.91
-13.86
-15.63
-17.23
-18.72
-20.09
-21.15
-21.54
-20.79
-18.55
-14.63
-9.15
-2.48
4.94
12.69
20.49
28.19
35.59
42.41
48.23
52.57
55.08
55.72
54.75
52.70
50.14
47.54
45.13
42.96
40.88
38.68
36.10
32.88
28.89
24.18
19.04
13.93
9.37
5.71
3.11
1.49
0.64
0.29
0.20
0.18
0.07
-0.26
-0.81
-1.51
-2.23
-2.77
-3.07
-3.15
-3.15
-3.24
-3.46
-3.68
-3.62
-2.97
-1.56
0.53
3.03
5.55
7.81
9.70
11.27
12.68
14.11
15.76
17.76
20.13
22.56
24.34
24.42
21.64
15.22
5.03
-8.16
-22.97
-37.75
-51.08
-62.00
-70.06
-75.06
-76.96
-75.74
-71.52
-64.73
-56.12
-46.72
-37.62
-29.69
-23.46
-19.03
-16.17
-14.55
-13.80
-13.60
-13.65
-13.70
-13.53
-13.02
-12.20
-11.29
-10.74
-11.08
-12.80
-16.16
-20.96
-26.56
-32.01
-36.40
-39.18
-40.33
-40.33
-39.85
-39.32
-38.66
-37.28
-34.38
-29.35
-22.15
-13.36
-4.08
4.56
11.74
17.22
21.35
24.90
28.69
33.32
38.87
44.80
49.91
52.58
51.17
44.55
32.64
16.70
-0.84
-16.97
-28.95
-35.18
-35.55
-31.26
-24.19
-16.18
-8.52
-1.87
3.53
7.56
10.11
11.13
10.84
9.76
8.62
8.10
8.59
10.05
12.17
14.52
16.73
18.61
20.12
21.27
22.11
22.63
22.84
22.69
22.20
21.42
20.45
19.48
18.70
18.28
18.28
18.54
18.76
18.58
17.70
16.05
13.82
11.40
9.24
7.60
6.48
5.58
4.44
2.62
-0.06
-3.51
-7.27
-10.73
-13.30
-14.59
-14.55
-13.43
-11.63
-9.55
-7.43
-5.36
-3.36
-1.48
0.18
1.47
2.43
3.25
4.22
5.63
7.50
9.60
11.46
12.59
12.66
11.53
9.29
6.15
2.41
-1.57
-5.38
-8.63
-11.02
-12.43
-12.93
-12.72
-12.00
-10.87
-9.37
-7.49
-5.24
-2.71
-0.05
2.59
5.11
7.40
9.38
10.98
12.17
13.00
13.61
14.19
14.92
15.89
17.07
18.35
19.61
20.82
21.97
23.09
24.16
25.09
25.75
26.02
25.89
25.49
25.07
24.91
25.26
26.18
27.56
29.10
30.43
31.21
31.28
30.68
29.61
28.41
27.37
26.72
26.45
26.34
25.91
24.61
21.97
17.84
12.53
6.72
1.20
-3.51
-7.43
-11.16
-15.63
-21.67
-29.60
-39.11
-49.38
-59.54
-69.01
-77.67
-85.70
-93.29
-100.42
-106.74
-111.61
-114.27
-113.93
-109.84
-101.53
-89.03
-73.16
-55.54
-38.31
-23.52
-12.39
-5.03
-0.56
2.32
4.79
7.45
10.43
13.56
16.67
19.65
22.36
24.55
25.90
26.12
25.17
23.32
21.07
19.00
17.58
17.03
17.32
18.19
19.25
20.10
20.44
20.14
19.29
18.09
16.77
15.42
13.98
12.21
9.91
7.01
3.77
0.67
-1.69
-2.87
-2.75
-1.57
0.14
1.85
3.19
4.03
4.41
4.45
4.17
3.54
2.56
1.30
-0.03
-1.13
-1.77
-1.87
-1.56
-1.10
-0.79
-0.83
-1.26
-1.96
-2.69
-3.27
-3.56
-3.62
-3.55
-3.52
-3.61
-3.83
-4.17
-4.59
-5.09
-5.61
-6.11
-6.44
-6.48
-6.15
-5.46
-4.54
-3.57
-2.70
-2.02
-1.52
-1.13
-0.74
-0.28
0.28
0.91
1.57
2.21
2.81
3.36
3.84
4.21
4.41
4.39
4.18
3.90
3.66
3.58
3.65
3.78
3.85
3.80
3.63
3.42
3.22
3.05
2.87
2.62
2.30
1.94
1.61
1.33
1.09
0.82
0.48
0.06
-0.39
-0.83
-1.26
-1.72
-2.29
-2.96
-3.64
-4.15
-4.33
-4.09
-3.48
-2.64
-1.73
-0.83
0.07
1.02
2.04
3.06
3.97
4.65
5.06
5.24
5.31
5.41
5.63
6.02
6.56
7.17
7.70
8.02
8.00
7.61
6.90
6.06
5.29
4.79
4.73
5.22
6.27
7.76
9.42
10.90
11.83
11.99
11.43
10.40
9.27
8.41
8.07
8.36
9.34
10.98
13.20
15.74
18.13
19.78
20.08
18.62
15.41
10.83
5.56
0.34
-4.18
-7.54
-9.54
-10.14
-9.50
-7.91
-5.78
-3.57
-1.66
-0.29
0.54
0.95
1.13
1.11
0.74
-0.31
-2.37
-5.62
-9.97
-15.06
-20.36
-25.30
-29.47
-32.59
-34.52
-35.17
-34.44
-32.20
-28.40
-23.13
-16.77
-9.87
-3.10
2.99
8.04
11.97
14.88
16.99
18.45
19.35
19.69
19.44
18.59
17.19
15.35
13.19
10.85
8.46
6.15
4.05
2.22
0.70
-0.53
-1.49
-2.23
-2.78
-3.20
-3.55
-3.95
-4.52
-5.28
-6.21
-7.21
-8.17
-9.07
-10.01
-11.16
-12.64
-14.46
-16.38
-18.08
-19.16
-19.39
-18.69
-17.17
-15.03
-12.44
-9.51
-6.29
-2.87
0.54
3.66
6.20
8.02
9.21
10.08
10.99
12.16
13.58
15.01
16.10
16.57
16.33
15.51
14.38
13.26
12.40
11.91
11.79
11.87
11.90
11.64
10.91
9.67
8.01
6.12
4.16
2.26
0.46
-1.23
-2.77
-4.11
-5.22
-6.10
-6.76
-7.25
-7.56
-7.61
-7.28
-6.51
-5.31
-3.82
-2.19
-0.52
1.17
2.91
4.71
6.48
8.06
9.30
10.16
10.77
11.44
12.56
14.48
17.41
21.24
25.53
29.47
32.07
32.43
30.05
25.06
18.24
10.83
4.07
-1.12
-4.40
-6.00
-6.50
-6.56
-6.70
-7.20
-8.17
-9.57
-11.32
-13.22
-15.01
-16.31
-16.72
-16.01
-14.19
-11.57
-8.72
-6.23
-4.51
-3.68
-3.49
-3.43
-2.97
-1.74
0.35
3.07
5.99
8.62
10.62
11.84
12.30
12.15
11.57
10.70
9.65
8.52
7.38
6.25
5.09
3.80
2.26
0.44
-1.65
-3.89
-6.15
-8.25
-10.03
-11.34
-12.08
-12.20
-11.80
-11.06
-10.27
-9.70
-9.56
-10.01
-11.10
-12.87
-15.31
-18.40
-22.04
-26.10
-30.38
-34.63
-38.57
-41.96
-44.54
-46.18
-46.88
-46.79
-46.18
-45.26
-44.10
-42.56
-40.35
-37.13
-32.75
-27.27
-21.05
-14.55
-8.30
-2.69
2.04
5.83
8.85
11.40
13.87
16.54
19.51
22.66
25.65
28.07
29.52
29.78
28.85
26.95
24.46
21.83
19.34
17.10
14.92
12.53
9.74
6.61
3.48
0.91
-0.59
-0.67
0.64
2.99
5.80
8.39
10.14
10.61
9.57
6.98
2.97
-2.18
-7.99
-13.75
-18.54
-21.38
-21.47
-18.57
-13.14
-6.27
0.77
7.05
12.30
16.88
21.50
26.68
32.46
38.31
43.48
47.31
49.57
50.44
50.28
49.39
47.75
45.20
41.59
37.07
32.12
27.46
23.74
21.29
20.06
19.66
19.56
19.35
18.83
17.98
16.92
15.79
14.69
13.64
12.66
11.81
11.18
10.94
11.25
12.26
14.10
16.86
20.63
25.36
30.76
36.29
41.17
44.58
45.87
44.72
41.26
35.94
29.47
22.62
16.15
10.66
6.45
3.49
1.35
-0.64
-3.18
-6.71
-11.34
-16.82
-22.68
-28.47
-33.86
-38.67
-42.83
-46.28
-48.90
-50.54
-51.07
-50.46
-48.86
-46.58
-44.01
-41.54
-39.45
-37.88
-36.92
-36.54
-36.68
-37.26
-38.16
-39.30
-40.61
-42.04
-43.62
-45.44
-47.72
-50.79
-55.05
-60.68
-67.37
-74.20
-79.66
-82.09
-80.13
-73.22
-61.73
-46.87
-30.29
-13.84
0.75
11.98
18.63
20.00
16.04
7.52
-3.94
-16.13
-26.66
-33.53
-35.47
-32.22
-24.51
-13.77
-1.80
9.82
20.06
28.67
36.11
43.14
50.41
58.01
65.44
71.83
76.30
78.39
78.14
75.95
72.33
67.59
61.78
54.89
47.02
38.58
30.23
22.66
16.34
11.32
7.28
3.68
0.04
-3.89
-8.09
-12.34
-16.37
-20.03
-23.28
-26.09
-28.28
-29.50
-29.28
-27.27
-23.49
-18.47
-13.08
-8.27
-4.79
-3.00
-3.00
-4.68
-7.81
-12.02
-16.77
-21.39
-25.27
-28.14
-30.09
-31.45
-32.51
-33.27
-33.43
-32.62
-30.65
-27.63
-23.84
-19.52
-14.63
-8.96
-2.37
4.93
12.33
18.90
23.74
26.26
26.37
24.42
21.01
16.79
12.35
8.07
4.24
1.03
-1.45
-3.12
-3.86
-3.59
-2.19
0.39
4.02
8.39
12.96
17.20
20.65
23.07
24.46
24.93
24.58
23.49
21.70
19.33
16.66
14.03
11.83
10.33
9.59
9.48
9.76
10.22
10.72
11.29
11.97
12.83
13.83
14.82
15.63
16.13
16.30
16.28
16.28
16.49
16.94
17.50
17.92
17.97
17.59
16.86
16.01
15.20
14.56
14.03
13.52
12.92
12.18
11.33
10.37
9.30
8.11
6.83
5.59
4.55
3.89
3.61
3.51
3.21
2.29
0.47
-2.29
-5.74
-9.48
-13.12
-16.37
-19.10
-21.29
-22.89
-23.87
-24.16
-23.77
-22.80
-21.47
-20.01
-18.59
-17.26
-15.93
-14.45
-12.71
-10.77
-8.81
-7.12
-5.92
-5.22
-4.80
-4.29
-3.33
-1.74
0.34
2.50
4.29
5.32
5.46
4.78
3.48
1.78
-0.13
-2.05
-3.79
-5.07
-5.67
-5.50
-4.68
-3.57
-2.62
-2.20
-2.51
-3.48
-4.84
-6.29
-7.53
-8.42
-8.90
-9.02
-8.84
-8.42
-7.82
-7.10
-6.29
-5.39
-4.40
-3.33
-2.26
-1.30
-0.62
-0.31
-0.34
-0.57
-0.81
-0.90
-0.79
-0.55
-0.30
-0.16
-0.17
-0.35
-0.77
-1.51
-2.68
-4.30
-6.22
-8.20
-9.92
-11.20
-11.94
-12.25
-12.25
-12.07
-11.79
-11.41
-10.92
-10.28
-9.47
-8.47
-7.26
-5.86
-4.32
-2.74
-1.22
0.17
1.42
2.55
3.59
4.54
5.31
5.81
5.96
5.78
5.39
4.93
4.57
4.37
4.34
4.40
4.51
4.62
4.72
4.80
4.82
4.73
4.51
4.20
3.90
3.68
3.59
3.55
3.46
3.18
2.70
2.08
1.44
0.89
0.48
0.15
-0.23
-0.74
-1.45
-2.33
-3.30
-4.25
-5.04
-5.52
-5.57
-5.12
-4.21
-2.96
-1.55
-0.16
1.06
2.01
2.63
2.91
2.89
2.66
2.38
2.22
2.30
2.57
2.90
3.11
3.09
2.85
2.51
2.20
2.00
1.90
1.85
1.81
1.80
1.84
1.96
2.11
2.24
2.27
2.18
2.00
1.78
1.58
1.42
1.29
1.18
1.03
0.80
0.42
-0.12
-0.82
-1.61
-2.39
-3.01
-3.34
-3.31
-2.90
-2.17
-1.26
-0.29
0.58
1.29
1.81
2.16
2.39
2.49
2.47
2.34
2.12
1.91
1.79
1.80
1.95
2.16
2.38
2.56
2.70
2.81
2.91
2.99
3.00
2.96
2.88
2.82
2.80
2.81
2.81
2.72
2.48
2.09
1.58
1.00
0.43
-0.09
-0.55
-0.99
-1.46
-2.04
-2.75
-3.58
-4.43
-5.13
-5.53
-5.49
-5.02
-4.19
-3.18
-2.13
-1.15
-0.26
0.54
1.29
1.98
2.59
3.08
3.46
3.76
4.01
4.21
4.34
4.35
4.22
4.00
3.74
3.52
3.40
3.39
3.48
3.61
3.73
3.78
3.70
3.50
3.18
2.77
2.35
1.96
1.67
1.47
1.31
1.13
0.85
0.48
0.08
-0.26
-0.48
-0.63
-0.81
-1.16
-1.73
-2.40
-2.99
-3.27
-3.16
-2.68
-2.00
-1.30
-0.68
-0.15
0.35
0.88
1.42
1.91
2.25
2.42
2.43
2.34
2.20
2.02
1.80
1.51
1.19
0.94
0.84
0.98
1.33
1.77
2.14
2.33
2.34
2.24
2.18
2.21
2.34
2.49
2.58
2.58
2.50
2.39
2.28
2.14
1.89
1.44
0.80
0.05
-0.64
-1.14
-1.40
-1.49
-1.56
-1.74
-2.06
-2.46
-2.80
-2.94
-2.84
-2.51
-2.00
-1.37
-0.67
0.08
0.78
1.34
1.64
1.65
1.45
1.16
0.95
0.95
1.19
1.62
2.14
2.61
2.92
2.98
2.80
2.41
1.93
1.51
1.27
1.27
1.47
1.77
2.01
2.05
1.86
1.46
0.96
0.48
0.09
-0.20
-0.40
-0.54
-0.65
-0.72
-0.77
-0.84
-1.01
-1.34
-1.85
-2.53
-3.30
-4.13
-4.95
-5.67
-6.21
-6.44
-6.28
-5.70
-4.74
-3.55
-2.25
-0.99
0.10
0.98
1.59
1.96
2.13
2.21
2.31
2.48
2.75
3.04
3.28
3.36
3.29
3.10
2.86
2.65
2.50
2.44
2.45
2.51
2.58
2.58
2.45
2.13
1.62
1.01
0.42
0.01
-0.12
0.01
0.30
0.60
0.78
0.79
0.68
0.48
0.21
-0.12
-0.50
-0.92
-1.29
-1.56
-1.69
-1.72
-1.73
-1.82
-2.01
-2.28
-2.55
-2.73
-2.71
-2.44
-1.91
-1.15
-0.26
0.61
1.32
1.78
1.98
1.98
1.89
1.82
1.82
1.91
2.05
2.21
2.32
2.34
2.22
1.95
1.56
1.14
0.78
0.56
0.52
0.60
0.69
0.72
0.63
0.47
0.32
0.24
0.21
0.13
-0.10
-0.54
-1.13
-1.73
-2.16
-2.34
-2.32
-2.24
-2.30
-2.61
-3.17
-3.83
-4.42
-4.78
-4.82
-4.55
-4.07
-3.51
-3.01
-2.61
-2.29
-1.96
-1.53
-0.95
-0.32
0.24
0.60
0.73
0.74
0.77
0.95
1.29
1.69
1.99
2.10
2.02
1.83
1.65
1.51
1.41
1.28
1.09
0.84
0.60
0.48
0.56
0.78
1.05
1.19
1.10
0.81
0.45
0.18
0.07
0.08
0.08
-0.05
-0.36
-0.81
-1.30
-1.76
-2.17
-2.57
-3.01
-3.50
-4.00
-4.41
-4.64
-4.59
-4.24
-3.62
-2.85
-2.11
-1.53
-1.15
-0.90
-0.63
-0.21
0.41
1.11
1.71
2.07
2.19
2.18
2.23
2.45
2.86
3.33
3.66
3.74
3.57
3.28
3.04
2.94
3.00
3.14
3.28
3.36
3.35
3.24
3.05
2.75
2.35
1.90
1.51
1.26
1.23
1.35
1.49
1.47
1.16
0.57
-0.17
-0.88
-1.38
-1.60
-1.57
-1.42
-1.30
-1.31
-1.51
-1.86
-2.32
-2.81
-3.26
-3.63
-3.85
-3.87
-3.65
-3.20
-2.57
-1.84
-1.12
-0.51
-0.01
0.40
0.77
1.15
1.52
1.83
2.03
2.14
2.22
2.36
2.60
2.89
3.11
3.14
2.92
2.51
2.06
1.71
1.57
1.62
1.74
1.81
1.74
1.52
1.20
0.89
0.63
0.46
0.36
0.27
0.13
-0.08
-0.39
-0.76
-1.14
-1.50
-1.77
-1.95
-2.05
-2.12
-2.25
-2.53
-3.01
-3.65
-4.32
-4.86
-5.09
-4.98
-4.56
-3.94
-3.25
-2.59
-1.99
-1.44
-0.94
-0.48
-0.08
0.27
0.60
0.92
1.24
1.52
1.76
1.96
2.16
2.35
2.53
2.62
2.60
2.47
2.30
2.20
2.23
2.39
2.61
2.79
2.82
2.67
2.35
1.93
1.50
1.15
0.94
0.84
0.77
0.63
0.32
-0.14
-0.69
-1.17
-1.48
-1.55
-1.42
-1.15
-0.84
-0.58
-0.39
-0.32
-0.40
-0.67
-1.13
-1.76
-2.54
-3.39
-4.20
-4.82
-5.14
-5.07
-4.61
-3.89
-3.08
-2.33
-1.71
-1.18
-0.67
-0.11
0.48
1.05
1.50
1.80
1.99
2.15
2.35
2.58
2.79
2.92
2.90
2.75
2.56
2.43
2.43
2.54
2.68
2.75
2.71
2.57
2.40
2.30
2.29
2.36
2.45
2.48
2.42
2.25
1.97
1.62
1.27
0.98
0.81
0.78
0.83
0.81
0.64
0.26
-0.27
-0.82
-1.29
-1.62
-1.85
-2.05
-2.30
-2.60
-2.92
-3.20
-3.41
-3.56
-3.68
-3.82
-3.97
-4.14
-4.25
-4.25
-4.07
-3.69
-3.06
-2.21
-1.21
-0.17
0.76
1.44
1.79
1.85
1.72
1.57
1.51
1.58
1.71
1.80
1.76
1.59
1.35
1.14
0.99
0.89
0.80
0.71
0.65
0.65
0.70
0.73
0.63
0.30
-0.20
-0.74
-1.10
-1.16
-0.95
-0.62
-0.36
-0.31
-0.44
-0.65
-0.81
-0.89
-0.92
-1.00
-1.20
-1.50
-1.83
-2.11
-2.31
-2.50
-2.81
-3.29
-3.93
-4.54
-4.89
-4.81
-4.27
-3.40
-2.48
-1.76
-1.34
-1.17
-1.04
-0.73
-0.12
0.75
1.68
2.41
2.74
2.64
2.21
1.68
1.27
1.11
1.20
1.42
1.64
1.78
1.83
1.86
1.90
1.95
1.97
1.90
1.75
1.58
1.45
1.42
1.47
1.55
1.57
1.50
1.36
1.24
1.17
1.17
1.20
1.16
0.99
0.68
0.30
-0.09
-0.43
-0.74
-1.08
-1.50
-1.99
-2.49
-2.96
-3.38
-3.80
-4.29
-4.84
-5.33
-5.62
-5.56
-5.12
-4.43
-3.64
-2.92
-2.30
-1.76
-1.23
-0.72
-0.28
0.05
0.27
0.48
0.78
1.25
1.93
2.72
3.48
4.04
4.28
4.16
3.77
3.26
2.84
2.66
2.76
3.07
3.42
3.70
3.84
3.91
4.00
4.14
4.27
4.25
4.00
3.52
2.92
2.36
1.94
1.64
1.39
1.07
0.68
0.25
-0.15
-0.45
-0.65
-0.80
-0.96
-1.16
-1.44
-1.80
-2.21
-2.60
-2.89
-3.06
-3.14
-3.19
-3.34
-3.62
-4.04
-4.49
-4.86
-5.04
-4.98
-4.68
-4.16
-3.44
-2.59
-1.66
-0.76
-0.02
0.47
0.65
0.56
0.30
0.00
-0.17
-0.16
0.02
0.29
0.58
0.82
1.01
1.18
1.32
1.41
1.39
1.26
1.09
0.99
1.04
1.23
1.46
1.55
1.40
1.03
0.55
0.15
-0.07
-0.13
-0.16
-0.30
-0.62
-1.06
-1.45
-1.64
-1.58
-1.32
-1.03
-0.89
-1.00
-1.37
-1.92
-2.54
-3.11
-3.52
-3.67
-3.48
-2.94
-2.13
-1.20
-0.38
0.19
0.44
0.46
0.42
0.48
0.72
1.10
1.53
1.92
2.23
2.49
2.72
2.93
3.08
3.10
2.98
2.74
2.46
2.25
2.17
2.28
2.53
2.87
3.18
3.36
3.33
3.07
2.59
2.01
1.44
1.01
0.79
0.79
0.95
1.13
1.21
1.14
0.92
0.62
0.33
0.11
-0.07
-0.25
-0.49
-0.79
-1.14
-1.53
-1.98
-2.57
-3.33
-4.20
-5.00
-5.48
-5.47
-4.94
-4.06
-3.06
-2.15
-1.42
-0.87
-0.40
0.05
0.48
0.84
1.12
1.28
1.38
1.44
1.50
1.56
1.63
1.72
1.83
1.98
2.14
2.27
2.33
2.27
2.07
1.75
1.39
1.07
0.88
0.86
0.96
1.10
1.15
1.04
0.73
0.30
-0.13
-0.46
-0.60
-0.57
-0.41
-0.24
-0.18
-0.32
-0.74
-1.40
-2.20
-2.98
-3.57
-3.86
-3.80
-3.44
-2.86
-2.17
-1.42
-0.67
0.02
0.62
1.09
1.40
1.55
1.58
1.54
1.48
1.48
1.58
1.78
2.01
2.15
2.10
1.83
1.39
0.90
0.52
0.30
0.24
0.27
0.31
0.32
0.31
0.28
0.24
0.16
-0.00
-0.29
-0.67
-1.09
-1.44
-1.63
-1.64
-1.53
-1.48
-1.65
-2.13
-2.86
-3.67
-4.32
-4.67
-4.72
-4.54
-4.27
-3.95
-3.53
-2.95
-2.19
-1.32
-0.47
0.23
0.77
1.23
1.72
2.31
2.95
3.55
4.04
4.39
4.64
4.82
4.94
4.93
4.75
4.37
3.86
3.34
2.93
2.67
2.52
2.38
2.18
1.87
1.50
1.11
0.78
0.56
0.47
0.50
0.62
0.72
0.68
0.40
-0.16
-0.92
-1.71
-2.32
-2.61
-2.61
-2.47
-2.42
-2.63
-3.11
-3.73
-4.32
-4.73
-4.91
-4.92
-4.82
-4.63
-4.29
-3.73
-2.91
-1.90
-0.88
-0.01
0.59
0.95
1.19
1.43
1.76
2.18
2.61
3.00
3.30
3.50
3.64
3.73
3.78
3.79
3.74
3.65
3.50
3.29
3.00
2.67
2.31
1.94
1.62
1.37
1.21
1.16
1.22
1.34
1.46
1.49
1.38
1.14
0.82
0.53
0.34
0.25
0.23
0.18
0.02
-0.28
-0.72
-1.22
-1.71
-2.13
-2.44
-2.70
-2.95
-3.27
-3.65
-4.03
-4.29
-4.30
-4.02
-3.46
-2.76
-2.04
-1.38
-0.82
-0.31
0.16
0.55
0.82
0.93
0.90
0.85
0.89
1.09
1.43
1.80
2.07
2.17
2.09
1.94
1.83
1.84
1.97
2.17
2.34
2.38
2.26
1.96
1.53
1.04
0.53
0.06
-0.32
-0.60
-0.75
-0.80
-0.79
-0.82
-0.95
-1.23
-1.65
-2.15
-2.64
-3.05
-3.37
-3.62
-3.86
-4.14
-4.49
-4.91
-5.32
-5.63
-5.76
-5.65
-5.29
-4.75
-4.13
-3.51
-2.96
-2.46
-1.97
-1.44
-0.87
-0.30
0.20
0.58
0.84
1.01
1.14
1.28
1.43
1.61
1.86
2.20
2.68
3.24
3.78
4.16
4.30
4.20
3.94
3.62
3.31
3.00
2.63
2.19
1.70
1.30
1.09
1.15
1.39
1.67
1.82
1.72
1.36
0.82
0.23
-0.25
-0.56
-0.68
-0.67
-0.62
-0.61
-0.68
-0.87
-1.18
-1.60
-2.09
-2.59
-3.03
-3.37
-3.58
-3.71
-3.86
-4.09
-4.44
-4.83
-5.12
-5.16
-4.89
-4.34
-3.62
-2.87
-2.17
-1.49
-0.80
-0.04
0.74
1.49
2.11
2.55
2.83
3.03
3.22
3.43
3.63
3.76
3.77
3.64
3.41
3.12
2.83
2.57
2.37
2.25
2.24
2.33
2.50
2.71
2.88
2.95
2.87
2.64
2.31
1.92
1.52
1.16
0.87
0.69
0.58
0.49
0.33
0.03
-0.42
-1.00
-1.59
-2.11
-2.46
-2.64
-2.66
-2.60
-2.57
-2.68
-2.98
-3.48
-4.07
-4.63
-4.98
-4.99
-4.61
-3.87
-2.90
-1.87
-0.98
-0.40
-0.18
-0.26
-0.43
-0.47
-0.23
0.32
1.05
1.74
2.23
2.42
2.32
2.03
1.63
1.25
1.00
0.94
1.07
1.31
1.49
1.48
1.22
0.77
0.27
-0.09
-0.23
-0.17
-0.04
0.00
-0.19
-0.64
-1.31
-2.04
-2.68
-3.09
-3.22
-3.10
-2.85
-2.62
-2.53
-2.65
-2.93
-3.30
-3.66
-3.96
-4.23
-4.49
-4.77
-5.06
-5.26
-5.28
-5.06
-4.63
-4.06
-3.48
-2.95
-2.49
-2.06
-1.60
-1.09
-0.57
-0.11
0.26
0.53
0.75
1.00
1.31
1.66
1.98
2.16
2.11
1.83
1.38
0.85
0.33
-0.08
-0.33
-0.36
-0.10
0.44
1.21
2.08
2.90
3.55
4.02
4.39
4.75
5.15
5.54
5.79
5.77
5.44
4.87
4.20
3.58
3.11
2.84
2.79
2.94
3.26
3.66
4.05
4.30
4.30
4.03
3.54
2.93
2.32
1.79
1.37
1.09
0.96
0.98
1.14
1.37
1.55
1.56
1.33
0.90
0.38
-0.08
-0.32
-0.29
-0.01
0.40
0.82
1.11
1.24
1.19
1.03
0.84
0.70
0.64
0.65
0.72
0.79
0.84
0.81
0.67
0.40
0.00
-0.46
-0.89
-1.16
-1.23
-1.13
-0.98
-0.93
-1.06
-1.34
-1.65
-1.86
-1.95
-2.01
-2.18
-2.54
-3.05
-3.58
-4.03
-4.36
-4.63
-4.87
-5.06
-5.06
-4.73
-4.01
-2.97
-1.81
-0.78
-0.02
0.41
0.62
0.74
0.91
1.18
1.54
1.93
2.25
2.43
2.44
2.33
2.13
1.92
1.76
1.69
1.77
1.99
2.31
2.63
2.82
2.78
2.53
2.15
1.80
1.58
1.50
1.50
1.46
1.30
1.00
0.61
0.20
-0.15
-0.40
-0.53
-0.61
-0.71
-0.85
-1.08
-1.37
-1.69
-2.01
-2.29
-2.58
-2.91
-3.37
-3.95
-4.56
-5.02
-5.16
-4.84
-4.04
-2.92
-1.72
-0.70
0.01
0.42
0.69
1.00
1.44
1.95
2.41
2.70
2.84
2.92
3.05
3.28
3.57
3.79
3.87
3.82
3.75
3.78
3.97
4.24
4.44
4.47
4.28
3.94
3.53
3.17
2.88
2.68
2.54
2.41
2.28
2.15
2.00
1.83
1.59
1.28
0.91
0.51
0.12
-0.23
-0.54
-0.85
-1.20
-1.60
-2.04
-2.48
-2.91
-3.32
-3.74
-4.19
-4.64
-5.04
-5.33
-5.47
-5.45
-5.31
-5.08
-4.78
-4.41
-3.97
-3.44
-2.77
-1.97
-1.05
-0.12
0.69
1.27
1.55
1.59
1.55
1.54
1.63
1.78
1.88
1.84
1.64
1.36
1.08
0.84
0.68
0.55
0.43
0.34
0.30
0.32
0.43
0.60
0.80
0.95
1.00
0.90
0.67
0.38
0.16
0.11
0.23
0.44
0.61
0.65
0.56
0.40
0.27
0.24
0.26
0.23
0.02
-0.45
-1.16
-1.99
-2.76
-3.32
-3.60
-3.62
-3.47
-3.21
-2.87
-2.41
-1.82
-1.12
-0.38
0.31
0.91
1.43
1.91
2.38
2.82
3.19
3.49
3.69
3.78
3.70
3.39
2.83
2.12
1.43
0.96
0.81
0.93
1.13
1.21
1.04
0.65
0.13
-0.37
-0.79
-1.13
-1.44
-1.76
-2.09
-2.37
-2.53
-2.53
-2.42
-2.33
-2.37
-2.60
-2.97
-3.31
-3.45
-3.31
-2.93
-2.48
-2.20
-2.23
-2.60
-3.19
-3.84
-4.45
-4.98
-5.44
-5.88
-6.29
-6.59
-6.68
-6.48
-5.99
-5.28
-4.51
-3.81
-3.24
-2.77
-2.29
-1.70
-0.99
-0.24
0.43
0.94
1.30
1.61
1.99
2.52
3.19
3.92
4.63
5.27
5.86
6.39
6.87
7.25
7.47
7.48
7.26
6.81
6.18
5.45
4.70
4.06
3.61
3.39
3.34
3.36
3.30
3.09
2.73
2.32
1.98
1.77
1.69
1.65
1.54
1.32
1.00
0.64
0.32
0.03
-0.27
-0.62
-1.03
-1.45
-1.78
-2.00
-2.16
-2.33
-2.56
-2.81
-2.97
-2.89
-2.51
-1.89
-1.18
-0.52
-0.01
0.39
0.73
1.08
1.44
1.74
1.91
1.93
1.85
1.74
1.67
1.67
1.75
1.87
2.02
2.17
2.29
2.37
2.39
2.35
2.26
2.16
2.03
1.86
1.63
1.35
1.05
0.79
0.57
0.36
0.08
-0.31
-0.80
-1.28
-1.66
-1.91
-2.09
-2.30
-2.62
-3.03
-3.43
-3.72
-3.84
-3.86
-3.91
-4.13
-4.53
-5.04
-5.51
-5.84
-6.02
-6.10
-6.17
-6.26
-6.31
-6.20
-5.82
-5.09
-4.03
-2.77
-1.47
-0.33
0.53
1.05
1.26
1.29
1.25
1.29
1.50
1.92
2.51
3.18
3.80
4.21
4.33
4.13
3.71
3.21
2.80
2.60
2.64
2.87
3.22
3.61
3.94
4.17
4.22
4.10
3.83
3.50
3.22
3.10
3.16
3.34
3.51
3.53
3.29
2.82
2.18
1.50
0.87
0.34
-0.09
-0.44
-0.74
-1.01
-1.27
-1.61
-2.08
-2.67
-3.29
-3.75
-3.87
-3.57
-2.93
-2.20
-1.62
-1.31
-1.22
-1.15
-0.88
-0.36
0.32
0.93
1.26
1.27
1.04
0.79
0.69
0.78
1.03
1.31
1.51
1.59
1.53
1.35
1.05
0.67
0.26
-0.06
-0.19
-0.12
0.06
0.19
0.14
-0.09
-0.42
-0.70
-0.84
-0.85
-0.79
-0.75
-0.77
-0.83
-0.88
-0.92
-0.97
-1.11
-1.42
-1.94
-2.63
-3.44
-4.28
-5.08
-5.74
-6.18
-6.35
-6.20
-5.79
-5.22
-4.59
-3.97
-3.37
-2.72
-1.98
-1.16
-0.35
0.33
0.82
1.10
1.26
1.38
1.52
1.63
1.69
1.65
1.57
1.55
1.70
2.02
2.39
2.64
2.62
2.31
1.84
1.38
1.08
0.99
1.01
1.01
0.94
0.81
0.70
0.65
0.61
0.45
0.09
-0.43
-0.98
-1.39
-1.53
-1.42
-1.19
-1.00
-0.97
-1.15
-1.52
-2.03
-2.65
-3.33
-4.01
-4.58
-4.96
-5.08
-4.93
-4.57
-4.11
-3.63
-3.18
-2.75
-2.27
-1.70
-0.99
-0.21
0.58
1.29
1.86
2.30
2.65
2.97
3.31
3.67
4.06
4.46
4.84
5.21
5.49
5.64
5.60
5.33
4.88
4.33
3.78
3.31
2.93
2.59
2.23
1.84
1.44
1.15
1.05
1.17
1.37
1.46
1.27
0.76
0.05
-0.61
-1.00
-1.02
-0.72
-0.33
-0.10
-0.23
-0.79
-1.68
-2.67
-3.45
-3.80
-3.65
-3.12
-2.42
-1.78
-1.32
-1.04
-0.89
-0.73
-0.26
1.06
3.99
9.22
16.94
26.53
36.57
45.29
51.20
53.72
53.17
50.49
46.56
41.78
36.00
28.87
20.24
10.39
0.02
-10.09
-19.34
-27.35
-33.90
-38.69
-41.32
-41.43
-38.93
-34.25
-28.31
-22.19
-16.81
-12.59
-9.44
-7.01
-4.98
-3.23
-1.89
-1.09
-0.85
-1.02
-1.37
-1.74
-2.17
-2.74
-3.46
-4.12
-4.29
-3.53
-1.62
1.28
4.61
7.67
9.84
10.83
10.69
9.73
8.36
6.99
5.88
5.18
4.97
5.23
5.88
6.73
7.56
8.16
8.37
8.18
7.69
7.07
6.44
5.87
5.35
4.81
4.21
3.61
3.17
3.10
3.60
4.73
6.42
8.41
10.38
11.99
13.02
13.36
13.07
12.29
11.14
9.73
8.13
6.44
4.78
3.23
1.85
0.58
-0.70
-2.09
-3.60
-5.14
-6.55
-7.68
-8.43
-8.81
-8.93
-8.92
-8.92
-9.00
-9.18
-9.43
-9.67
-9.82
-9.80
-9.62
-9.32
-9.01
-8.83
-8.87
-9.16
-9.65
-10.22
-10.70
-10.95
-10.91
-10.55
-9.94
-9.12
-8.14
-7.07
-5.96
-4.88
-3.92
-3.12
-2.46
-1.86
-1.22
-0.50
0.28
1.00
1.53
1.75
1.67
1.41
1.18
1.21
1.69
2.64
3.97
5.44
6.78
7.73
8.11
7.88
7.06
5.74
4.05
2.07
-0.11
-2.40
-4.67
-6.71
-8.28
-9.11
-9.04
-8.06
-6.38
-4.43
-2.68
-1.54
-1.23
-1.73
-2.84
-4.26
-5.71
-7.00
-7.98
-8.62
-8.91
-8.95
-8.90
-8.92
-9.13
-9.52
-9.96
-10.25
-10.21
-9.81
-9.09
-8.19
-7.22
-6.26
-5.35
-4.51
-3.79
-3.21
-2.76
-2.36
-1.86
-1.17
-0.27
0.71
1.58
2.17
2.48
2.61
2.71
2.81
2.84
2.62
2.12
1.45
0.97
1.05
1.90
3.42
5.30
7.11
8.61
9.78
10.93
12.48
14.80
17.95
21.59
24.98
27.23
27.60
25.71
21.68
15.92
8.95
1.26
-6.73
-14.56
-21.77
-28.02
-33.38
-38.33
-43.62
-49.74
-56.44
-62.63
-66.70
-67.29
-63.94
-57.37
-49.16
-41.13
-34.61
-30.15
-27.61
-26.55
-26.55
-27.33
-28.52
-29.59
-29.77
-28.38
-25.16
-20.53
-15.45
-10.91
-7.38
-4.48
-1.19
3.63
10.53
19.09
27.98
35.41
39.74
39.96
35.90
28.22
18.24
7.68
-1.68
-8.28
-11.05
-9.67
-4.62
2.88
11.20
18.75
24.38
27.60
28.59
27.91
26.15
23.72
20.86
17.80
14.87
12.54
11.23
11.17
12.26
14.16
16.54
19.17
21.88
24.43
26.42
27.25
26.36
23.42
18.54
12.29
5.51
-0.95
-6.60
-11.48
-16.14
-21.31
-27.50
-34.61
-41.80
-47.94
-52.07
-54.01
-54.31
-53.83
-53.21
-52.56
-51.58
-50.09
-48.59
-48.36
-50.87
-56.60
-63.86
-68.63
-65.74
-50.87
-22.66
16.19
59.42
99.04
128.06
142.60
142.57
130.57
110.36
85.92
60.86
38.57
21.86
12.39
9.76
11.08
11.19
4.39
-11.81
-36.04
-62.40
-83.68
-95.12
-95.78
-87.17
-72.10
-53.94
-35.78
-20.35
-9.22
-2.45
1.48
5.37
11.50
20.17
29.67
37.98
43.63
46.60
47.85
48.97
49.19
48.89
49.81
51.19
52.18
52.20
51.04
47.01
39.79
30.14
20.06
11.75
6.69
5.68
8.51
14.16
21.23
28.68
35.76
42.14
47.40
50.83
52.04
50.95
47.72
42.65
36.28
29.10
21.80
15.04
9.27
4.86
1.83
-0.15
-1.52
-2.44
-2.80
-2.31
-0.93
0.91
2.52
3.16
2.34
-0.08
-3.86
-8.61
-13.79
-18.76
-22.83
-25.28
-25.66
-23.93
-20.52
-16.03
-10.93
-5.29
1.18
8.96
18.42
29.65
42.38
55.96
69.45
81.84
92.30
100.44
106.32
110.14
111.79
110.68
105.92
96.82
83.53
67.30
50.19
34.56
22.50
15.44
13.99
17.71
24.97
32.94
38.16
37.79
30.75
17.66
1.02
-15.31
-28.82
-39.06
-46.49
-51.31
-52.62
-48.38
-37.00
-17.94
8.32
39.07
70.26
98.30
120.99
137.77
149.35
155.93
158.43
160.45
164.87
173.20
186.68
205.67
229.28
255.19
276.74
288.18
291.36
287.22
274.80
254.70
229.07
200.81
172.68
139.65
97.85
56.97
21.74
-10.34
-41.03
-71.17
-101.00
-130.51
-170.55
-228.15
-286.98
-337.53
-381.66
-420.89
-455.92
-486.92
-513.97
-551.55
-609.37
-666.84
-712.28
-748.80
-779.94
-807.60
-832.17
-764.75
-563.57
-372.34
-243.43
-143.58
-63.78
-1.65
45.57
82.02
111.72
122.54
105.47
81.29
62.25
46.22
26.69
1.59
-26.37
-52.80
-86.45
-135.52
-186.83
-234.54
-282.97
-340.22
-404.54
-464.04
-502.89
-517.06
-509.08
-474.93
-419.56
-306.40
-137.79
51.62
220.08
346.61
428.03
470.94
489.56
494.28
490.29
473.81
445.55
411.42
379.59
353.85
334.42
321.63
314.26
309.69
300.04
283.71
263.51
245.47
233.96
230.23
233.48
242.27
254.73
261.75
259.01
244.12
216.66
177.53
129.83
79.37
33.62
-1.77
-26.73
-44.41
-58.16
-69.66
-79.35
-86.54
-89.72
-86.68
-76.83
-62.11
-44.08
-28.63
-20.86
-22.97
-32.86
-44.87
-52.39
-52.48
-46.85
-39.86
-35.59
-34.23
-30.51
-18.32
5.76
40.61
79.94
115.92
142.43
156.02
156.34
144.42
121.58
87.18
47.69
10.18
-19.21
-37.29
-44.92
-45.50
-43.06
-40.31
-37.77
-34.19
-29.26
-23.78
-19.48
-17.79
-19.13
-22.78
-27.35
-31.13
-32.69
-32.33
-31.17
-31.44
-34.18
-39.85
-48.19
-58.57
-70.49
-83.36
-96.36
-106.15
-109.71
-103.26
-84.89
-56.29
-22.75
8.72
32.37
45.66
49.86
48.41
45.06
41.81
38.81
35.42
31.39
27.46
24.74
23.95
24.65
25.83
26.20
24.84
21.76
17.72
13.78
10.82
9.18
8.54
8.37
8.10
7.36
6.10
4.47
2.64
0.70
-1.28
-3.20
-4.69
-5.37
-4.90
-3.27
-0.89
1.52
3.27
4.16
4.66
5.38
7.17
10.47
15.16
20.86
27.23
33.77
39.22
41.26
37.30
25.94
8.58
-10.42
-25.16
-30.92
-26.49
-14.83
-1.46
8.52
12.31
11.19
8.30
6.53
6.91
8.73
10.98
12.64
14.00
15.99
19.40
24.16
29.57
34.37
37.70
39.44
40.36
41.82
44.84
49.28
53.39
54.34
49.47
37.73
20.37
0.55
-17.82
-31.71
-39.95
-43.25
-43.33
-41.89
-39.88
-37.53
-34.84
-31.94
-29.25
-27.19
-25.86
-24.81
-23.33
-20.72
-16.69
-11.66
-6.50
-2.21
0.54
1.63
1.54
0.96
0.48
0.31
0.28
0.04
-0.70
-1.99
-3.65
-5.13
-5.82
-5.34
-3.70
-1.26
1.38
3.67
5.27
6.26
7.17
8.57
10.75
13.45
15.90
17.17
16.36
13.01
7.60
1.67
-2.86
-4.52
-2.98
0.90
5.40
8.55
8.79
6.21
2.79
1.40
4.17
11.31
20.98
29.93
34.55
31.83
21.39
6.15
-9.11
-19.85
-23.33
-18.96
-8.27
5.36
16.36
19.12
9.97
-12.14
-45.64
-86.31
-128.19
-160.15
-171.23
-160.66
-139.51
-121.87
-114.71
-115.33
-114.88
-104.11
-81.13
-45.88
-3.49
39.18
76.62
106.04
126.57
138.52
143.07
137.82
123.07
99.71
70.41
39.64
12.78
-6.30
-16.14
-17.67
-12.75
-2.75
10.14
24.74
40.89
58.83
76.97
91.47
97.63
91.85
73.85
46.23
16.10
-10.92
-29.06
-34.83
-28.66
-14.93
-0.29
9.43
10.87
4.34
-7.14
-19.44
-29.73
-36.59
-40.36
-42.12
-42.38
-41.01
-37.62
-32.48
-26.50
-21.16
-17.77
-16.77
-17.46
-18.27
-17.67
-14.88
-10.28
-4.87
0.08
3.58
5.19
5.18
4.31
3.45
3.23
3.79
4.98
6.38
7.56
8.16
8.09
7.51
6.76
6.17
5.91
6.01
6.35
6.77
7.10
7.27
7.29
7.23
7.06
6.72
6.16
5.35
4.38
3.35
2.36
1.42
0.43
-0.76
-2.26
-4.14
-6.39
-8.94
-11.57
-13.89
-15.32
-15.20
-13.05
-8.82
-3.04
3.32
9.15
13.59
16.28
17.29
16.95
15.45
12.83
9.00
4.04
-1.63
-7.25
-11.99
-15.25
-16.87
-17.07
-16.28
-14.90
-13.08
-10.85
-8.22
-5.31
-2.47
-0.11
1.46
2.12
2.03
1.47
0.71
-0.17
-1.32
-3.06
-5.73
-9.54
-14.37
-19.65
-24.38
-27.26
-27.08
-23.16
-15.66
-5.71
4.87
14.16
20.66
23.71
23.51
20.86
16.81
12.37
8.38
5.51
4.22
4.76
7.03
10.60
14.78
18.75
21.81
23.57
23.99
23.32
21.99
20.40
18.79
17.15
15.30
13.02
10.20
6.94
3.56
0.48
-1.93
-3.50
-4.28
-4.46
-4.30
-3.99
-3.63
-3.26
-2.91
-2.65
-2.62
-2.91
-3.55
-4.44
-5.39
-6.24
-6.90
-7.40
-7.81
-8.24
-8.67
-9.06
-9.28
-9.28
-9.05
-8.70
-8.35
-8.13
-8.09
-8.17
-8.24
-8.12
-7.58
-6.48
-4.71
-2.24
0.88
4.49
8.41
12.35
15.99
18.94
20.79
21.28
20.33
18.12
15.02
11.46
7.78
4.18
0.80
-2.22
-4.63
-6.08
-6.32
-5.32
-3.36
-0.94
1.41
3.32
4.69
5.55
5.97
5.89
5.21
3.82
1.78
-0.69
-3.26
-5.69
-7.84
-9.73
-11.43
-12.99
-14.38
-15.53
-16.37
-16.93
-17.25
-17.39
-17.36
-17.12
-16.54
-15.49
-13.89
-11.77
-9.26
-6.59
-4.02
-1.77
0.04
1.43
2.47
3.23
3.75
4.05
4.16
4.10
3.94
3.76
3.62
3.57
3.66
3.91
4.34
4.89
5.46
5.90
6.13
6.13
5.94
5.65
5.32
4.96
4.55
4.04
3.41
2.68
1.89
1.05
0.21
-0.59
-1.29
-1.83
-2.19
-2.37
-2.46
-2.58
-2.85
-3.33
-4.02
-4.81
-5.53
-6.04
-6.19
-5.91
-5.20
-4.16
-2.95
-1.75
-0.69
0.16
0.85
1.43
1.98
2.49
2.94
3.25
3.40
3.42
3.36
3.26
3.15
3.00
2.82
2.64
2.53
2.55
2.72
2.98
3.21
3.32
3.21
2.92
2.55
2.23
2.06
2.03
2.08
2.06
1.91
1.62
1.29
1.09
1.12
1.43
1.92
2.45
2.86
3.08
3.14
3.22
3.58
4.45
5.94
8.00
10.36
12.73
14.89
16.81
18.69
20.82
23.50
26.98
31.40
36.86
43.38
50.81
58.76
66.59
73.53
78.83
81.92
82.44
80.29
75.51
68.30
58.97
47.93
35.68
22.80
9.94
-2.37
-13.92
-25.04
-36.61
-49.54
-64.18
-79.72
-94.15
-104.87
-109.77
-108.14
-101.05
-90.78
-79.80
-69.81
-61.35
-54.05
-47.39
-41.12
-35.51
-30.97
-27.67
-25.34
-23.35
-21.04
-18.06
-14.54
-11.03
-8.18
-6.46
-5.95
-6.39
-7.23
-7.91
-7.99
-7.31
-5.93
-4.17
-2.36
-0.78
0.48
1.52
2.51
3.60
4.78
5.88
6.69
7.02
6.83
6.26
5.52
4.80
4.21
3.73
3.25
2.70
2.07
1.41
0.78
0.23
-0.25
-0.65
-0.93
-1.06
-1.02
-0.85
-0.71
-0.77
-1.15
-1.86
-2.76
-3.62
-4.19
-4.33
-4.04
-3.39
-2.54
-1.63
-0.75
0.07
0.83
1.58
2.30
2.95
3.44
3.74
3.89
3.98
4.15
4.48
4.95
5.42
5.76
5.87
5.76
5.52
5.27
5.10
5.03
5.01
5.01
4.98
4.94
4.88
4.77
4.54
4.17
3.66
3.13
2.68
2.43
2.37
2.42
2.46
2.38
2.11
1.67
1.08
0.36
-0.45
-1.33
-2.18
-2.92
-3.44
-3.67
-3.59
-3.25
-2.72
-2.11
-1.50
-0.96
-0.50
-0.09
0.35
0.89
1.55
2.29
2.97
3.46
3.65
3.56
3.30
3.02
2.87
2.90
3.07
3.27
3.43
3.51
3.52
3.50
3.46
3.38
3.28
3.18
3.12
3.14
3.22
3.31
3.30
3.12
2.77
2.35
1.97
1.73
1.65
1.63
1.57
1.38
1.03
0.59
0.12
-0.32
-0.73
-1.14
-1.57
-2.05
-2.57
-3.14
-3.77
-4.43
-5.07
-5.57
-5.78
-5.61
-5.03
-4.14
-3.14
-2.18
-1.42
-0.87
-0.47
-0.08
0.42
1.06
1.79
2.43
2.83
2.89
2.66
2.28
1.90
1.57
1.26
0.88
0.36
-0.24
-0.80
-1.19
-1.38
-1.50
-1.73
-2.25
-3.08
-4.12
-5.18
-6.09
-6.85
-7.58
-8.49
-9.75
-11.42
-13.38
-15.44
-17.44
-19.26
-20.94
-22.60
-24.39
-26.40
-28.59
-30.78
-32.74
-34.20
-34.96
-35.03
-34.57
-33.92
-33.33
-32.73
-31.57
-28.85
-23.36
-13.93
0.23
19.29
42.63
68.70
95.19
119.13
137.47
147.85
149.39
143.04
131.16
116.70
102.25
89.65
79.60
71.78
65.27
58.94
51.89
43.58
34.08
24.16
15.35
9.04
5.64
4.40
3.86
2.60
-0.18
-4.35
-9.01
-12.55
-13.60
-11.75
-7.30
-0.99
6.08
12.41
16.19
13.48
2.19
-16.02
-36.32
-53.16
-63.05
-65.50
-62.46
-57.09
-53.21
-52.28
-54.74
-61.10
-71.27
-84.11
-97.58
-109.35
-117.66
-118.92
-111.87
-94.46
-69.51
-42.57
-18.55
0.38
14.35
24.03
29.59
30.66
27.35
20.84
12.52
4.24
-2.35
-6.50
-8.26
-7.97
-6.09
-3.00
0.33
2.93
4.08
3.67
2.34
1.44
2.67
7.10
14.70
23.96
32.64
38.82
41.31
39.88
35.08
28.06
20.24
13.12
7.73
4.41
2.51
0.45
-3.74
-11.29
-21.73
-32.86
-41.61
-45.58
-44.16
-38.74
-31.82
-25.68
-21.32
-18.33
-15.61
-12.35
-8.59
-5.15
-2.90
-2.08
-2.10
-1.86
-0.49
2.27
5.89
9.42
12.02
13.26
13.30
12.66
11.93
11.48
11.34
11.24
10.83
9.85
8.24
6.15
3.85
1.64
-0.27
-1.81
-3.05
-4.13
-5.23
-6.41
-7.63
-8.71
-9.41
-9.58
-9.24
-8.63
-8.05
-7.76
-7.75
-7.73
-7.27
-6.06
-4.14
-1.90
0.09
1.38
1.85
1.73
1.45
1.35
1.54
1.91
2.27
2.54
2.81
3.25
3.97
4.91
5.88
6.62
6.99
6.97
6.69
6.31
6.00
5.81
5.76
5.78
5.83
5.80
5.60
5.10
4.24
3.01
1.49
-0.20
-1.86
-3.32
-4.41
-4.96
-4.86
-4.09
-2.76
-1.04
0.81
2.62
4.25
5.63
6.73
7.52
7.95
8.04
7.87
7.57
7.29
7.10
7.00
6.96
6.95
6.92
6.89
6.82
6.67
6.39
5.97
5.47
5.01
4.69
4.55
4.54
4.58
4.59
4.55
4.50
4.51
4.58
4.69
4.75
4.67
4.40
3.93
3.31
2.61
1.87
1.11
0.34
-0.42
-1.10
-1.58
-1.72
-1.44
-0.75
0.24
1.32
2.34
3.21
3.97
4.70
5.43
6.11
6.60
6.76
6.57
6.15
5.72
5.50
5.62
6.04
6.58
7.07
7.35
7.41
7.26
7.00
6.68
6.33
5.99
5.65
5.33
5.03
4.76
4.49
4.20
3.86
3.46
3.03
2.61
2.27
2.09
2.12
2.29
2.49
2.56
2.36
1.85
1.07
0.18
-0.68
-1.36
-1.83
-2.09
-2.21
-2.24
-2.16
-1.92
-1.39
-0.52
0.70
2.12
3.50
4.59
5.15
5.15
4.65
3.85
2.96
2.14
1.45
0.93
0.59
0.47
0.58
0.89
1.30
1.67
1.84
1.73
1.33
0.66
-0.17
-1.03
-1.75
-2.15
-2.07
-1.52
-0.61
0.37
1.13
1.44
1.24
0.68
-0.01
-0.54
-0.71
-0.45
0.11
0.74
1.13
1.01
0.29
-0.91
-2.32
-3.61
-4.58
-5.18
-5.48
-5.62
-5.66
-5.64
-5.50
-5.23
-4.80
-4.22
-3.46
-2.46
-1.16
0.41
2.13
3.73
4.94
5.55
5.53
5.05
4.38
3.80
3.46
3.31
3.20
2.92
2.35
1.56
0.77
0.23
0.11
0.41
0.97
1.57
2.03
2.27
2.29
2.13
1.79
1.26
0.55
-0.30
-1.19
-2.01
-2.74
-3.42
-4.16
-4.99
-5.82
-6.47
-6.69
-6.36
-5.49
-4.28
-3.03
-2.05
-1.52
-1.47
-1.75
-2.15
-2.44
-2.48
-2.22
-1.72
-1.08
-0.39
0.26
0.82
1.22
1.38
1.24
0.82
0.25
-0.24
-0.42
-0.17
0.43
1.13
1.57
1.50
0.82
-0.28
-1.48
-2.38
-2.73
-2.45
-1.66
-0.59
0.47
1.30
1.74
1.71
1.22
0.33
-0.82
-2.00
-2.93
-3.37
-3.22
-2.54
-1.55
-0.51
0.37
1.01
1.41
1.62
1.67
1.59
1.42
1.24
1.13
1.18
1.35
1.58
1.75
1.76
1.63
1.37
1.05
0.69
0.28
-0.20
-0.73
-1.23
-1.59
-1.73
-1.64
-1.42
-1.23
-1.19
-1.39
-1.78
-2.25
-2.71
-3.06
-3.30
-3.44
-3.51
-3.50
-3.42
-3.30
-3.22
-3.23
-3.35
-3.50
-3.56
-3.45
-3.14
-2.66
-2.10
-1.52
-0.94
-0.34
0.28
0.91
1.47
1.89
2.13
2.19
2.11
1.94
1.75
1.57
1.45
1.42
1.46
1.57
1.68
1.78
1.82
1.81
1.76
1.69
1.60
1.53
1.49
1.51
1.58
1.71
1.89
2.06
2.11
1.94
1.43
0.59
-0.44
-1.43
-2.16
-2.53
-2.61
-2.57
-2.62
-2.80
-3.03
-3.08
-2.78
-2.10
-1.18
-0.31
0.25
0.40
0.22
-0.10
-0.33
-0.37
-0.25
-0.12
-0.11
-0.30
-0.60
-0.83
-0.83
-0.55
-0.07
0.43
0.72
0.67
0.29
-0.30
-0.86
-1.20
-1.20
-0.91
-0.48
-0.13
0.00
-0.11
-0.38
-0.65
-0.85
-0.95
-1.05
-1.22
-1.49
-1.78
-1.98
-1.97
-1.73
-1.33
-0.87
-0.46
-0.14
0.12
0.38
0.73
1.18
1.70
2.17
2.50
2.58
2.36
1.85
1.15
0.39
-0.27
-0.70
-0.85
-0.73
-0.42
-0.05
0.24
0.33
0.19
-0.11
-0.46
-0.69
-0.74
-0.64
-0.47
-0.35
-0.34
-0.40
-0.48
-0.49
-0.41
-0.25
-0.09
0.00
-0.01
-0.14
-0.35
-0.60
-0.83
-0.98
-1.03
-0.99
-0.87
-0.71
-0.52
-0.31
-0.09
0.14
0.31
0.39
0.37
0.31
0.27
0.31
0.43
0.54
0.58
0.50
0.35
0.20
0.13
0.14
0.18
0.18
0.12
0.07
0.07
0.17
0.29
0.32
0.15
-0.26
-0.82
-1.45
-2.03
-2.51
-2.79
-2.80
-2.43
-1.70
-0.73
0.23
0.92
1.19
1.06
0.75
0.47
0.37
0.44
0.55
0.57
0.42
0.16
-0.13
-0.37
-0.53
-0.60
-0.60
-0.50
-0.29
0.03
0.37
0.64
0.73
0.61
0.33
0.04
-0.15
-0.16
-0.07
0.02
-0.01
-0.23
-0.57
-0.93
-1.18
-1.25
-1.14
-0.92
-0.72
-0.63
-0.69
-0.81
-0.86
-0.72
-0.32
0.23
0.75
1.03
0.97
0.61
0.12
-0.29
-0.49
-0.48
-0.33
-0.15
-0.01
0.04
0.02
-0.03
-0.08
-0.07
0.01
0.15
0.29
0.36
0.28
0.07
-0.22
-0.49
-0.69
-0.84
-0.99
-1.18
-1.38
-1.51
-1.47
-1.24
-0.88
-0.52
-0.26
-0.13
-0.08
-0.02
0.08
0.22
0.30
0.29
0.19
0.10
0.10
0.22
0.40
0.50
0.47
0.34
0.24
0.28
0.49
0.78
0.99
1.03
0.89
0.67
0.44
0.26
0.08
-0.15
-0.42
-0.66
-0.78
-0.72
-0.52
-0.29
-0.15
-0.19
-0.41
-0.78
-1.21
-1.60
-1.88
-1.97
-1.83
-1.47
-0.98
-0.44
0.07
0.47
0.76
0.93
1.00
0.99
0.95
0.89
0.84
0.77
0.68
0.54
0.35
0.15
-0.03
-0.16
-0.28
-0.42
-0.63
-0.89
-1.14
-1.29
-1.25
-1.04
-0.75
-0.52
-0.50
-0.72
-1.10
-1.50
-1.79
-1.93
-1.95
-1.94
-1.91
-1.85
-1.69
-1.43
-1.10
-0.78
-0.54
-0.35
-0.17
0.10
0.45
0.85
1.21
1.47
1.58
1.55
1.37
1.02
0.49
-0.14
-0.72
-1.08
-1.08
-0.73
-0.19
0.29
0.52
0.42
0.06
-0.38
-0.74
-0.94
-1.00
-1.00
-0.99
-0.99
-0.94
-0.84
-0.72
-0.71
-0.89
-1.30
-1.86
-2.41
-2.74
-2.73
-2.32
-1.58
-0.67
0.24
0.96
1.38
1.48
1.33
1.09
0.89
0.79
0.77
0.74
0.61
0.39
0.19
0.12
0.22
0.44
0.68
0.80
0.76
0.58
0.33
0.12
0.00
-0.01
0.05
0.16
0.21
0.14
-0.12
-0.54
-1.04
-1.50
-1.81
-1.94
-1.88
-1.64
-1.23
-0.61
0.20
1.09
1.88
2.39
2.53
2.34
2.01
1.72
1.57
1.53
1.48
1.32
1.05
0.80
0.71
0.85
1.17
1.50
1.65
1.54
1.20
0.79
0.47
0.33
0.34
0.40
0.39
0.25
0.04
-0.17
-0.29
-0.31
-0.29
-0.31
-0.39
-0.53
-0.62
-0.55
-0.26
0.23
0.79
1.25
1.51
1.56
1.49
1.43
1.48
1.63
1.76
1.75
1.50
1.05
0.52
0.10
-0.10
-0.05
0.19
0.50
0.79
1.03
1.20
1.29
1.26
1.07
0.74
0.31
-0.12
-0.49
-0.78
-1.01
-1.20
-1.36
-1.49
-1.56
-1.60
-1.60
-1.57
-1.45
-1.15
-0.64
0.05
0.79
1.39
1.73
1.78
1.63
1.43
1.26
1.18
1.18
1.22
1.26
1.28
1.23
1.11
0.91
0.69
0.55
0.51
0.56
0.58
0.43
0.05
-0.49
-1.03
-1.37
-1.43
-1.23
-0.92
-0.67
-0.56
-0.62
-0.79
-1.01
-1.20
-1.30
-1.26
-1.04
-0.70
-0.34
-0.09
-0.00
0.00
0.06
0.30
0.71
1.19
1.58
1.77
1.79
1.73
1.70
1.70
1.66
1.50
1.19
0.82
0.50
0.34
0.35
0.44
0.51
0.50
0.44
0.40
0.43
0.56
0.71
0.80
0.74
0.54
0.27
0.00
-0.19
-0.32
-0.43
-0.59
-0.82
-1.09
-1.39
-1.68
-1.97
-2.23
-2.41
-2.46
-2.33
-2.01
-1.55
-1.03
-0.49
0.00
0.42
0.73
0.86
0.77
0.49
0.08
-0.31
-0.59
-0.69
-0.64
-0.50
-0.35
-0.27
-0.31
-0.50
-0.82
-1.22
-1.61
-1.92
-2.11
-2.21
-2.27
-2.35
-2.45
-2.54
-2.57
-2.51
-2.37
-2.20
-1.99
-1.71
-1.31
-0.76
-0.10
0.53
1.01
1.27
1.33
1.31
1.33
1.43
1.59
1.75
1.86
1.97
2.15
2.43
2.74
2.95
2.91
2.59
2.11
1.64
1.35
1.27
1.33
1.37
1.30
1.13
0.93
0.78
0.71
0.70
0.69
0.67
0.63
0.56
0.43
0.21
-0.11
-0.47
-0.77
-0.90
-0.85
-0.70
-0.53
-0.44
-0.40
-0.38
-0.36
-0.35
-0.40
-0.57
-0.82
-1.09
-1.33
-1.53
-1.72
-1.93
-2.14
-2.25
-2.17
-1.87
-1.42
-0.95
-0.56
-0.27
-0.02
0.26
0.58
0.88
1.06
1.06
0.91
0.69
0.52
0.44
0.48
0.61
0.84
1.16
1.58
2.02
2.39
2.59
2.57
2.38
2.13
1.90
1.71
1.49
1.19
0.80
0.39
0.07
-0.09
-0.12
-0.15
-0.27
-0.55
-0.91
-1.22
-1.36
-1.30
-1.09
-0.85
-0.67
-0.60
-0.66
-0.81
-1.03
-1.27
-1.51
-1.70
-1.80
-1.75
-1.56
-1.22
-0.75
-0.19
0.37
0.86
1.17
1.24
1.06
0.69
0.25
-0.11
-0.34
-0.39
-0.31
-0.16
-0.01
0.12
0.18
0.19
0.15
0.10
0.08
0.13
0.27
0.46
0.61
0.66
0.57
0.37
0.12
-0.10
-0.27
-0.37
-0.42
-0.43
-0.35
-0.18
0.04
0.21
0.20
-0.06
-0.53
-1.07
-1.56
-1.92
-2.16
-2.39
-2.66
-2.98
-3.29
-3.50
-3.60
-3.63
-3.69
-3.85
-4.06
-4.22
-4.16
-3.77
-3.07
-2.18
-1.32
-0.69
-0.37
-0.30
-0.32
-0.22
0.12
0.71
1.45
2.17
2.75
3.14
3.33
3.39
3.36
3.27
3.12
2.96
2.81
2.71
2.67
2.63
2.52
2.30
2.00
1.71
1.53
1.50
1.54
1.53
1.38
1.10
0.77
0.49
0.32
0.23
0.09
-0.17
-0.51
-0.85
-1.08
-1.16
-1.13
-1.10
-1.12
-1.19
-1.27
-1.31
-1.31
-1.30
-1.33
-1.36
-1.32
-1.12
-0.73
-0.20
0.36
0.87
1.27
1.53
1.63
1.54
1.24
0.78
0.30
-0.05
-0.16
-0.02
0.23
0.45
0.54
0.54
0.58
0.74
1.01
1.28
1.41
1.30
1.00
0.62
0.30
0.13
0.10
0.18
0.32
0.46
0.59
0.66
0.65
0.55
0.37
0.15
-0.04
-0.17
-0.22
-0.22
-0.19
-0.18
-0.22
-0.30
-0.44
-0.60
-0.76
-0.91
-1.04
-1.19
-1.39
-1.65
-1.89
-2.04
-1.96
-1.59
-0.97
-0.23
0.44
0.90
1.12
1.19
1.24
1.37
1.58
1.77
1.80
1.61
1.21
0.72
0.25
-0.13
-0.37
-0.51
-0.54
-0.49
-0.35
-0.18
-0.04
0.00
-0.08
-0.25
-0.44
-0.58
-0.65
-0.67
-0.71
-0.80
-0.94
-1.06
-1.13
-1.19
-1.34
-1.64
-2.14
-2.75
-3.32
-3.71
-3.88
-3.89
-3.85
-3.86
-3.93
-4.02
-4.03
-3.94
-3.73
-3.43
-3.02
-2.48
-1.80
-1.05
-0.34
0.24
0.69
1.10
1.60
2.28
3.10
3.90
4.49
4.76
4.70
4.40
3.98
3.55
3.13
2.73
2.36
2.06
1.85
1.73
1.68
1.65
1.61
1.54
1.41
1.18
0.85
0.45
0.06
-0.22
-0.32
-0.26
-0.14
-0.05
-0.05
-0.13
-0.24
-0.32
-0.40
-0.51
-0.67
-0.88
-1.11
-1.28
-1.36
-1.33
-1.19
-0.98
-0.71
-0.44
-0.23
-0.12
-0.09
-0.08
0.02
0.27
0.64
1.02
1.25
1.25
1.06
0.78
0.55
0.43
0.40
0.40
0.36
0.33
0.37
0.55
0.84
1.12
1.22
1.06
0.67
0.18
-0.23
-0.47
-0.52
-0.46
-0.42
-0.44
-0.52
-0.59
-0.59
-0.51
-0.36
-0.21
-0.11
-0.09
-0.17
-0.31
-0.45
-0.52
-0.46
-0.29
-0.09
0.03
-0.01
-0.20
-0.42
-0.54
-0.46
-0.20
0.15
0.47
0.72
0.92
1.11
1.32
1.50
1.56
1.45
1.16
0.81
0.49
0.30
0.24
0.25
0.25
0.17
0.01
-0.21
-0.43
-0.57
-0.61
-0.55
-0.45
-0.40
-0.43
-0.53
-0.63
-0.65
-0.53
-0.32
-0.13
-0.06
-0.15
-0.36
-0.61
-0.81
-0.95
-1.08
-1.26
-1.50
-1.71
-1.78
-1.63
-1.29
-0.86
-0.48
-0.24
-0.15
-0.16
-0.21
-0.28
-0.37
-0.47
-0.57
-0.65
-0.64
-0.51
-0.24
0.15
0.63
1.08
1.35
1.31
0.93
0.35
-0.18
-0.40
-0.15
0.54
1.45
2.28
2.79
2.90
2.65
2.23
1.82
1.58
1.65
2.16
3.21
4.86
7.16
10.05
13.44
17.18
21.12
25.08
28.87
32.21
34.83
36.46
36.95
36.30
34.69
32.38
29.62
26.55
23.22
19.62
15.76
11.75
7.76
3.98
0.57
-2.43
-5.06
-7.47
-9.81
-12.20
-14.64
-17.07
-19.35
-21.29
-22.77
-23.71
-24.19
-24.30
-24.18
-23.86
-23.23
-22.13
-20.40
-18.04
-15.29
-12.54
-10.26
-8.78
-8.16
-8.15
-8.30
-8.03
-6.84
-4.40
-0.67
4.05
9.21
14.12
18.13
20.84
22.20
22.48
22.10
21.45
20.77
20.09
19.32
18.34
17.12
15.68
14.13
12.62
11.30
10.33
9.82
9.78
10.12
10.60
10.89
10.67
9.72
8.00
5.68
3.10
0.69
-1.22
-2.45
-3.05
-3.28
-3.45
-3.81
-4.43
-5.20
-5.86
-6.14
-5.86
-5.03
-3.78
-2.36
-1.00
0.14
1.06
1.87
2.81
4.11
6.02
8.68
12.13
16.16
20.35
24.09
26.71
27.66
26.65
23.76
19.31
13.71
7.31
0.22
-7.49
-15.66
-23.76
-30.86
-35.83
-37.74
-36.24
-31.76
-25.36
-18.44
-12.19
-7.39
-4.26
-2.49
-1.44
-0.32
1.52
4.36
7.92
11.34
13.53
13.55
10.94
5.94
-0.74
-8.15
-15.22
-20.91
-24.17
-24.19
-20.60
-13.85
-5.22
3.53
10.76
15.54
17.95
18.85
19.35
20.19
21.33
21.96
20.93
17.30
10.74
1.66
-8.90
-19.53
-28.76
-35.38
-38.56
-38.07
-34.35
-28.48
-21.89
-15.90
-11.21
-7.66
-4.39
-0.42
4.67
10.36
15.33
17.99
17.17
12.57
4.81
-4.88
-15.15
-24.89
-33.47
-40.57
-46.08
-49.91
-51.98
-52.25
-50.75
-47.66
-43.22
-37.67
-31.14
-23.61
-15.02
-5.37
4.98
15.33
24.70
32.09
36.80
38.71
38.26
36.30
33.83
31.66
30.25
29.64
29.50
29.29
28.43
26.40
22.90
17.94
11.79
5.00
-1.80
-8.05
-13.37
-17.60
-20.75
-22.95
-24.28
-24.87
-24.84
-24.41
-23.84
-23.39
-23.17
-23.05
-22.73
-21.83
-20.12
-17.63
-14.68
-11.81
-9.48
-7.99
-7.35
-7.39
-7.91
-8.81
-10.21
-12.40
-15.65
-20.14
-25.76
-32.16
-38.75
-44.88
-49.97
-53.70
-56.01
-57.07
-57.09
-56.18
-54.20
-50.81
-45.57
-38.09
-28.18
-15.93
-1.84
13.25
28.16
41.61
52.42
59.76
63.36
63.50
60.91
56.51
51.19
45.70
40.67
36.67
34.20
33.62
35.07
38.34
42.86
47.83
52.37
55.73
57.36
56.95
54.38
49.70
43.11
34.94
25.63
15.70
5.68
-3.88
-12.54
-19.92
-25.84
-30.33
-33.64
-36.15
-38.25
-40.12
-41.70
-42.62
-42.36
-40.45
-36.68
-31.19
-24.42
-16.99
-9.53
-2.75
2.62
5.80
6.15
3.35
-2.35
-10.06
-18.56
-26.68
-33.92
-40.39
-46.61
-52.99
-59.48
-65.48
-70.18
-72.85
-73.04
-70.71
-65.76
-57.95
-46.99
-33.04
-17.03
-0.71
13.79
24.59
30.17
30.16
25.27
16.90
6.60
-4.32
-14.85
-24.18
-31.61
-37.50
-42.36
-46.54
-49.98
-52.45
-53.66
-53.41
-51.54
-47.89
-43.99
-41.37
-40.97
-42.80
-46.25
-50.52
-54.69
-57.70
-58.13
-56.78
-54.63
-52.37
-50.26
-48.68
-48.47
-50.79
-56.62
-56.45
-45.13
-23.31
2.63
25.63
42.09
52.17
58.25
61.20
65.22
71.42
79.60
89.11
99.51
110.43
121.52
131.95
140.42
146.79
150.01
149.76
146.53
141.47
135.75
129.90
123.81
116.65
108.05
96.69
81.50
62.01
38.75
13.02
-13.53
-38.98
-61.53
-78.53
-87.92
-88.47
-80.47
-65.63
-46.65
-26.42
-5.02
15.22
32.06
44.49
53.50
60.09
64.60
67.55
69.17
70.39
71.58
72.67
72.82
70.53
64.35
53.80
39.71
23.69
7.53
-7.80
-21.63
-33.56
-43.51
-51.92
-59.69
-67.96
-77.79
-89.37
-101.63
-111.71
-115.77
-110.63
-95.52
-72.72
-46.93
-23.46
-6.04
4.42
9.84
13.65
18.98
27.41
38.83
51.81
63.94
71.83
71.25
57.97
29.57
-12.64
-62.71
-111.09
-147.62
-164.92
-160.79
-138.42
-104.50
-66.73
-31.76
-4.41
12.24
16.58
8.75
-8.78
-30.89
-50.60
-60.99
-57.75
-40.88
-14.55
14.63
40.65
60.23
73.47
82.52
89.40
94.71
97.46
96.49
91.64
83.92
74.45
63.23
48.82
29.49
5.29
-20.78
-43.18
-56.10
-56.31
-44.78
-26.38
-7.81
5.12
9.46
5.61
-3.43
-13.30
-19.66
-19.33
-11.13
3.70
21.59
37.70
47.34
47.58
38.33
22.33
4.24
-10.95
-19.64
-20.72
-16.18
-10.44
-8.89
-15.79
-32.47
-56.50
-82.39
-103.63
-115.07
-114.45
-102.59
-82.32
-56.85
-28.84
-0.30
26.87
50.18
66.76
74.24
71.95
61.56
46.68
31.66
20.03
13.26
10.53
9.53
7.97
4.71
0.17
-4.22
-7.03
-7.77
-7.10
-6.36
-6.64
-7.96
-9.05
-7.81
-2.25
8.56
23.93
41.71
58.92
72.81
81.61
84.93
83.54
78.79
71.90
63.51
53.78
42.68
30.50
18.01
6.37
-3.25
-10.08
-14.02
-15.67
-16.08
-16.56
-18.26
-21.90
-27.57
-34.60
-41.72
-47.38
-50.19
-49.37
-44.94
-37.78
-29.31
-21.26
-15.18
-12.16
-12.47
-15.48
-19.70
-23.21
-24.30
-22.09
-16.82
-9.54
-1.60
6.06
13.14
19.80
26.17
32.02
36.67
39.40
39.82
38.07
34.72
30.46
25.86
21.26
16.86
12.90
9.67
7.51
6.56
6.77
7.92
9.65
11.63
13.50
14.92
15.57
15.23
13.90
11.88
9.71
7.97
7.05
6.96
7.38
7.86
8.02
7.76
7.21
6.60
6.02
5.41
4.58
3.43
2.05
0.69
-0.31
-0.74
-0.63
-0.22
0.16
0.21
-0.20
-0.92
-1.64
-1.94
-1.56
-0.56
0.69
1.63
1.73
0.74
-1.28
-4.01
-7.13
-10.31
-13.34
-16.02
-18.18
-19.67
-20.46
-20.64
-20.34
-19.59
-18.30
-16.30
-13.57
-10.34
-7.13
-4.56
-3.05
-2.70
-3.18
-3.90
-4.22
-3.71
-2.19
0.15
2.92
5.60
7.69
8.87
9.06
8.34
6.94
5.15
3.23
1.45
0.08
-0.61
-0.43
0.70
2.59
4.90
7.13
8.88
9.88
10.17
9.99
9.70
9.66
10.15
11.30
13.11
15.50
18.32
21.38
24.45
27.17
29.12
29.83
28.93
26.36
22.50
18.10
14.02
10.86
8.61
6.68
4.25
0.74
-3.76
-8.51
-12.51
-15.07
-16.15
-16.24
-15.88
-15.16
-13.54
-10.27
-4.96
1.86
8.74
13.90
15.89
14.07
8.57
-0.17
-11.69
-25.37
-40.03
-53.59
-63.39
-67.07
-63.73
-54.53
-42.35
-30.62
-21.92
-17.15
-15.45
-15.00
-13.88
-10.76
-5.06
3.08
13.00
23.58
33.43
41.15
45.76
46.94
45.17
41.46
36.98
32.73
29.37
27.19
26.29
26.60
27.88
29.69
31.42
32.42
32.21
30.66
28.07
24.97
21.90
19.22
17.01
15.09
13.19
11.09
8.71
6.04
3.11
-0.02
-3.27
-6.51
-9.61
-12.43
-14.93
-17.15
-19.23
-21.22
-23.09
-24.62
-25.53
-25.57
-24.63
-22.77
-20.15
-16.96
-13.31
-9.29
-5.01
-0.73
3.22
6.43
8.62
9.71
9.85
9.42
8.80
8.31
8.10
8.14
8.31
8.47
8.50
8.37
8.11
7.73
7.27
6.76
6.23
5.68
5.10
4.43
3.58
2.49
1.16
-0.33
-1.78
-2.98
-3.77
-4.13
-4.17
-4.14
-4.29
-4.84
-5.92
-7.54
-9.65
-12.06
-14.56
-16.86
-18.66
-19.77
-20.11
-19.81
-19.12
-18.35
-17.73
-17.33
-17.04
-16.70
-16.18
-15.40
-14.44
-13.34
-12.19
-10.97
-9.66
-8.21
-6.65
-5.01
-3.38
-1.82
-0.37
0.92
2.01
2.87
3.49
3.89
4.07
4.06
3.88
3.56
3.19
2.87
2.67
2.58
2.49
2.22
1.63
0.68
-0.51
-1.75
-2.87
-3.79
-4.56
-5.20
-5.67
-5.84
-5.53
-4.62
-3.20
-1.49
0.23
1.79
3.17
4.44
5.65
6.72
7.40
7.49
6.89
5.72
4.30
2.96
1.93
1.28
0.92
0.70
0.47
0.15
-0.32
-0.98
-1.86
-2.95
-4.19
-5.45
-6.63
-7.66
-8.52
-9.29
-10.03
-10.80
-11.61
-12.40
-13.10
-13.69
-14.17
-14.53
-14.77
-14.87
-14.80
-14.54
-14.14
-13.70
-13.40
-13.33
-13.52
-13.87
-14.15
-14.14
-13.65
-12.69
-11.35
-9.82
-8.20
-6.44
-4.45
-2.09
0.61
3.42
5.98
7.93
9.04
9.29
8.81
7.75
6.19
4.13
1.57
-1.28
-4.01
-6.16
-7.40
-7.75
-7.46
-6.85
-6.02
-4.79
-2.77
0.27
4.21
8.56
12.55
15.54
17.13
17.21
15.87
13.21
9.32
4.34
-1.43
-7.49
-13.16
-17.76
-20.74
-21.82
-21.02
-18.66
-15.23
-11.28
-7.28
-3.47
0.11
3.59
7.11
10.74
14.38
17.88
21.12
24.09
26.92
29.76
32.75
35.87
38.96
41.71
43.79
44.85
44.65
43.05
39.99
35.51
29.74
22.88
15.32
7.53
0.15
-6.21
-11.08
-14.30
-16.03
-16.70
-16.86
-16.95
-17.16
-17.49
-17.77
-17.83
-17.60
-17.15
-16.63
-16.21
-16.01
-16.05
-16.31
-16.73
-17.24
-17.77
-18.19
-18.32
-17.98
-17.02
-15.45
-13.39
-11.09
-8.81
-6.72
-4.93
-3.42
-2.14
-1.01
0.05
1.03
1.91
2.61
3.03
3.12
2.90
2.45
1.87
1.20
0.39
-0.65
-1.97
-3.45
-4.88
-5.97
-6.59
-6.74
-6.56
-6.22
-5.83
-5.37
-4.77
-4.03
-3.28
-2.71
-2.55
-2.88
-3.68
-4.76
-5.93
-7.07
-8.18
-9.49
-11.26
-13.71
-16.89
-20.53
-24.09
-26.90
-28.38
-28.15
-26.20
-22.76
-18.30
-13.32
-8.30
-3.63
0.42
3.78
6.55
8.95
11.26
13.68
16.24
18.83
21.31
23.59
25.73
27.83
29.98
32.14
34.09
35.57
36.39
36.47
35.89
34.82
33.49
32.08
30.82
29.91
29.53
29.77
30.63
31.98
33.60
35.24
36.62
37.43
37.39
36.22
33.72
29.84
24.73
18.66
12.00
5.07
-1.88
-8.70
-15.30
-21.55
-27.24
-32.04
-35.49
-37.13
-36.68
-34.15
-29.96
-24.91
-19.93
-15.87
-13.26
-12.26
-12.71
-14.32
-16.87
-20.12
-23.77
-27.28
-29.91
-30.82
-29.42
-25.57
-19.70
-12.64
-5.30
1.62
7.74
12.92
16.95
19.48
20.00
18.16
14.01
8.16
1.64
-4.46
-9.35
-12.79
-14.94
-16.19
-16.83
-16.98
-16.60
-15.68
-14.31
-12.64
-10.78
-8.71
-6.24
-3.16
0.64
5.11
9.95
14.71
18.85
21.84
23.23
22.69
20.18
15.92
10.44
4.45
-1.35
-6.33
-10.08
-12.36
-13.11
-12.51
-11.00
-9.23
-7.93
-7.60
-8.29
-9.59
-10.81
-11.33
-10.91
-9.78
-8.49
-7.59
-7.46
-8.19
-9.68
-11.70
-13.98
-16.18
-17.84
-18.52
-17.91
-15.99
-13.04
-9.55
-5.95
-2.52
0.68
3.74
6.75
9.74
12.67
15.43
17.91
19.94
21.25
21.53
20.50
18.09
14.54
10.40
6.35
2.98
0.61
-0.78
-1.46
-1.70
-1.66
-1.29
-0.48
0.89
2.70
4.64
6.24
7.11
7.07
6.24
5.00
3.78
2.90
2.45
2.33
2.36
2.48
2.77
3.36
4.33
5.55
6.71
7.43
7.39
6.49
4.86
2.73
0.38
-1.96
-4.10
-5.90
-7.18
-7.82
-7.81
-7.23
-6.26
-5.06
-3.76
-2.37
-0.84
0.81
2.51
4.06
5.29
6.12
6.64
7.07
7.66
8.57
9.83
11.29
12.68
13.75
14.29
14.17
13.39
12.09
10.54
9.04
7.86
7.13
6.79
6.56
6.10
5.13
3.59
1.69
-0.17
-1.54
-2.06
-1.62
-0.31
1.60
3.76
5.93
7.90
9.53
10.68
11.21
11.03
10.12
8.48
6.33
4.05
2.10
0.75
-0.01
-0.40
-0.69
-1.11
-1.77
-2.50
-2.82
-2.28
-0.73
1.46
3.64
5.12
5.29
3.68
0.42
-3.77
-7.85
-11.03
-13.10
-14.41
-15.70
-18.05
-22.63
-30.05
-39.83
-50.48
-59.86
-65.63
-65.59
-58.15
-40.93
-15.06
13.89
38.49
53.67
58.33
54.37
45.04
34.78
24.97
15.86
7.53
0.34
-5.14
-8.66
-10.50
-11.30
-11.91
-13.31
-16.10
-20.13
-24.52
-27.99
-29.66
-29.33
-27.46
-24.73
-21.93
-19.49
-17.44
-15.45
-13.07
-9.94
-5.91
-0.93
4.99
11.55
18.26
24.39
29.25
32.37
33.66
33.39
32.13
30.48
28.78
27.16
25.50
23.53
21.07
18.08
14.75
11.46
8.63
6.55
5.28
4.56
4.00
3.17
1.79
-0.17
-2.60
-5.29
-8.09
-10.88
-13.57
-16.05
-18.14
-19.72
-20.72
-21.20
-21.31
-21.30
-21.31
-21.39
-21.41
-21.11
-20.18
-18.39
-15.72
-12.34
-8.62
-4.90
-1.40
1.82
4.80
7.56
10.00
11.93
13.13
13.54
13.26
12.54
11.62
10.63
9.53
8.28
6.91
5.69
5.03
5.32
6.80
9.32
12.38
15.24
17.15
17.55
16.25
13.45
9.62
5.34
1.09
-2.88
-6.48
-9.76
-12.77
-15.56
-18.19
-20.66
-22.94
-24.82
-26.00
-26.07
-24.75
-22.03
-18.23
-13.93
-9.75
-6.16
-3.40
-1.55
-0.61
-0.58
-1.48
-3.24
-5.62
-8.31
-10.95
-13.29
-15.22
-16.83
-18.23
-19.54
-20.67
-21.43
-21.48
-20.47
-18.17
-14.51
-9.61
-3.66
3.10
10.40
17.96
25.39
32.27
38.13
42.57
45.39
46.60
46.41
45.13
43.07
40.55
37.80
35.01
32.31
29.80
27.54
25.52
23.67
21.85
19.88
17.59
14.90
11.84
8.60
5.45
2.75
0.87
0.10
0.63
2.42
5.18
8.38
11.31
13.27
13.79
12.73
10.36
7.20
3.82
0.64
-2.12
-4.40
-6.21
-7.53
-8.29
-8.49
-8.25
-7.80
-7.42
-7.31
-7.55
-8.05
-8.65
-9.18
-9.54
-9.71
-9.75
-9.73
-9.72
-9.75
-9.77
-9.69
-9.37
-8.74
-7.86
-6.90
-6.15
-5.90
-6.32
-7.39
-8.93
-10.62
-12.17
-13.39
-14.16
-14.49
-14.36
-13.76
-12.59
-10.77
-8.05
-4.38
0.16
5.17
9.92
13.48
14.93
13.66
9.53
3.17
-4.46
-12.23
-19.15
-24.59
-28.36
-30.64
-31.84
-32.56
-33.01
-33.56
-34.55
-36.38
-39.59
-44.70
-51.87
-60.61
-69.65
-76.67
-79.55
-76.87
-68.50
-55.70
-40.51
-25.06
-9.75
3.28
14.99
26.32
37.96
49.91
61.51
71.73
79.50
84.08
85.06
82.91
78.08
71.10
62.45
52.54
41.90
31.13
20.97
11.95
4.67
-0.89
-5.05
-8.24
-10.81
-12.92
-14.53
-15.49
-15.64
-14.53
-11.77
-6.95
0.16
9.42
20.19
31.41
41.88
50.64
57.25
61.70
64.27
65.22
64.72
62.77
59.38
54.59
48.51
41.22
32.79
23.39
13.38
3.41
-5.67
-13.14
-18.59
-22.04
-23.89
-24.61
-24.52
-23.68
-22.01
-19.56
-16.75
-14.50
-13.92
-15.96
-20.88
-28.10
-36.31
-43.90
-49.53
-52.58
-53.12
-51.73
-49.03
-45.42
-41.05
-36.00
-30.46
-24.89
-19.75
-15.38
-11.78
-8.58
-5.27
-1.46
2.91
7.49
11.65
14.69
16.11
15.77
13.95
11.25
8.41
6.10
4.70
4.24
4.40
4.73
4.92
4.87
4.78
4.93
5.56
6.66
8.02
9.30
10.17
10.44
10.14
9.42
8.56
7.76
7.15
6.73
6.46
6.32
6.33
6.55
6.99
7.51
7.81
7.56
6.56
4.83
2.61
0.27
-1.79
-3.30
-4.16
-4.48
-4.60
-5.02
-6.26
-8.66
-12.14
-16.19
-20.04
-22.98
-24.68
-25.28
-25.27
-25.15
-25.23
-25.46
-25.65
-25.55
-25.05
-24.15
-22.93
-21.42
-19.61
-17.52
-15.24
-12.98
-11.03
-9.63
-8.94
-8.91
-9.34
-9.90
-10.22
-9.98
-9.00
-7.32
-5.20
-3.02
-1.13
0.26
1.13
1.66
2.05
2.44
2.89
3.36
3.82
4.26
4.75
5.35
6.09
6.93
7.82
8.73
9.59
10.39
11.11
11.75
12.31
12.78
13.16
13.44
13.60
13.67
13.67
13.68
13.75
13.89
14.03
14.05
13.79
13.13
12.05
10.69
9.29
8.12
7.42
7.26
7.53
7.97
8.19
7.85
6.72
4.74
2.00
-1.25
-4.69
-7.95
-10.70
-12.68
-13.74
-13.84
-13.02
-11.42
-9.19
-6.50
-3.54
-0.49
2.50
5.27
7.72
9.79
11.49
12.89
14.09
15.20
16.31
17.38
18.28
18.79
18.67
17.77
16.07
13.69
10.82
7.71
4.59
1.69
-0.75
-2.49
-3.34
-3.23
-2.28
-0.80
0.79
2.00
2.46
1.93
0.35
-2.16
-5.30
-8.66
-11.75
-14.14
-15.58
-16.07
-15.77
-14.94
-13.85
-12.68
-11.59
-10.74
-10.31
-10.41
-11.00
-11.86
-12.61
-12.86
-12.37
-11.13
-9.38
-7.51
-5.89
-4.76
-4.24
-4.33
-4.94
-5.95
-7.20
-8.48
-9.55
-10.22
-10.35
-9.92
-9.03
-7.82
-6.48
-5.14
-3.90
-2.83
-1.95
-1.25
-0.72
-0.32
-0.05
0.07
-0.01
-0.32
-0.85
-1.48
-1.99
-2.16
-1.81
-0.91
0.39
1.81
3.02
3.74
3.86
3.47
2.76
1.98
1.28
0.68
0.16
-0.35
-0.85
-1.34
-1.85
-2.51
-3.41
-4.54
-5.70
-6.56
-6.78
-6.31
-5.36
-4.44
-4.05
-4.43
-5.44
-6.55
-7.13
-6.70
-5.07
-2.39
1.03
4.85
8.79
12.71
16.49
20.00
23.04
25.38
26.84
27.38
27.15
26.49
25.74
25.12
24.56
23.74
22.16
19.44
15.46
10.54
5.34
0.65
-2.94
-5.14
-6.10
-6.25
-6.14
-6.32
-7.30
-9.45
-12.96
-17.68
-23.04
-28.07
-31.60
-32.57
-30.33
-24.85
-16.72
-6.92
3.33
12.85
20.61
25.89
28.33
28.03
25.48
21.37
16.41
11.01
5.32
-0.77
-7.25
-13.71
-19.22
-22.45
-22.11
-17.56
-9.17
1.56
12.46
21.34
26.77
28.54
27.50
25.10
22.70
21.02
20.09
19.48
18.72
17.60
16.23
14.81
13.47
12.11
10.49
8.46
6.09
3.65
1.48
-0.19
-1.42
-2.46
-3.63
-5.14
-6.95
-8.78
-10.25
-11.03
-11.01
-10.36
-9.51
-8.94
-9.01
-9.77
-10.94
-12.02
-12.51
-12.17
-11.10
-9.70
-8.45
-7.74
-7.68
-8.11
-8.68
-8.99
-8.77
-7.98
-6.82
-5.67
-4.95
-4.93
-5.64
-6.85
-8.28
-9.69
-10.98
-12.20
-13.45
-14.75
-16.00
-17.00
-17.54
-17.45
-16.65
-15.12
-12.90
-10.10
-6.89
-3.50
-0.20
2.81
5.45
7.78
9.89
11.85
13.69
15.34
16.74
17.81
18.49
18.70
18.37
17.43
15.87
13.77
11.30
8.70
6.18
3.93
2.06
0.62
-0.42
-1.16
-1.77
-2.39
-3.11
-3.92
-4.71
-5.36
-5.79
-5.99
-6.07
-6.18
-6.47
-7.06
-8.02
-9.37
-11.04
-12.87
-14.61
-15.98
-16.71
-16.65
-15.81
-14.33
-12.44
-10.33
-8.10
-5.65
-2.79
0.71
4.92
9.67
14.50
18.80
22.00
23.79
24.19
23.50
22.16
20.55
18.92
17.36
15.88
14.51
13.32
12.41
11.82
11.52
11.36
11.16
10.72
9.91
8.71
7.22
5.60
4.03
2.70
1.73
1.16
1.01
1.21
1.67
2.28
2.88
3.36
3.64
3.75
3.74
3.75
3.87
4.15
4.58
5.09
5.59
6.00
6.28
6.40
6.28
5.86
5.11
4.06
2.90
1.90
1.31
1.23
1.51
1.85
1.89
1.39
0.39
-0.89
-2.12
-2.97
-3.29
-3.04
-2.36
-1.49
-0.73
-0.39
-0.66
-1.56
-2.91
-4.40
-5.66
-6.48
-6.87
-7.10
-7.61
-8.88
-11.26
-14.84
-19.41
-24.45
-29.28
-33.14
-35.43
-35.80
-34.16
-30.74
-25.97
-20.42
-14.69
-9.30
-4.55
-0.48
3.08
6.43
9.76
13.10
16.29
19.09
21.29
22.84
23.81
24.35
24.56
24.47
24.10
23.54
22.96
22.57
22.49
22.71
23.06
23.27
23.11
22.44
21.25
19.60
17.60
15.36
12.96
10.51
8.13
5.97
4.16
2.85
2.07
1.81
1.95
2.33
2.71
2.87
2.65
1.95
0.82
-0.55
-1.90
-2.95
-3.50
-3.48
-2.98
-2.20
-1.44
-0.92
-0.81
-1.17
-1.99
-3.22
-4.76
-6.51
-8.29
-9.88
-11.00
-11.39
-10.89
-9.49
-7.35
-4.76
-2.08
0.42
2.56
4.34
5.86
7.24
8.51
9.55
10.12
9.94
8.82
6.71
3.75
0.23
-3.49
-7.04
-10.10
-12.46
-14.01
-14.78
-14.92
-14.67
-14.19
-13.59
-12.86
-11.92
-10.72
-9.23
-7.52
-5.69
-3.81
-1.97
-0.23
1.33
2.57
3.31
3.42
2.83
1.63
0.01
-1.80
-3.55
-5.10
-6.34
-7.28
-7.90
-8.23
-8.26
-7.97
-7.38
-6.55
-5.57
-4.63
-3.94
-3.66
-3.91
-4.66
-5.76
-6.96
-8.07
-8.92
-9.46
-9.69
-9.60
-9.17
-8.42
-7.37
-6.10
-4.76
-3.49
-2.45
-1.72
-1.41
-1.57
-2.22
-3.35
-4.86
-6.59
-8.33
-9.92
-11.25
-12.26
-12.92
-13.20
-12.99
-12.23
-10.90
-9.14
-7.23
-5.53
-4.34
-3.73
-3.57
-3.56
-3.43
-3.06
-2.58
-2.26
-2.35
-2.90
-3.71
-4.41
-4.64
-4.27
-3.42
-2.42
-1.66
-1.35
-1.47
-1.82
-2.08
-2.04
-1.62
-0.90
-0.05
0.80
1.58
2.23
2.70
2.87
2.62
1.85
0.57
-1.11
-2.96
-4.75
-6.27
-7.36
-7.89
-7.78
-7.04
-5.74
-4.11
-2.48
-1.15
-0.26
0.25
0.66
1.31
2.38
3.83
5.40
6.81
7.90
8.73
9.45
10.17
10.82
11.17
11.02
10.36
9.41
8.57
8.16
8.27
8.74
9.26
9.63
9.83
10.05
10.53
11.40
12.60
13.91
15.04
15.73
15.81
15.17
13.79
11.75
9.21
6.48
3.89
1.69
0.02
-1.16
-2.01
-2.74
-3.46
-4.28
-5.20
-6.18
-7.10
-7.77
-7.97
-7.52
-6.38
-4.66
-2.68
-0.79
0.70
1.63
2.02
2.01
1.79
1.53
1.32
1.16
1.01
0.79
0.45
-0.01
-0.51
-0.99
-1.38
-1.70
-1.97
-2.22
-2.45
-2.59
-2.61
-2.51
-2.38
-2.38
-2.62
-3.12
-3.81
-4.57
-5.31
-5.99
-6.62
-7.18
-7.62
-7.82
-7.68
-7.21
-6.58
-6.09
-6.07
-6.74
-8.04
-9.61
-10.81
-10.94
-9.41
-6.04
-1.14
4.54
10.08
14.68
17.90
19.78
20.67
21.05
21.28
21.47
21.53
21.28
20.57
19.37
17.69
15.53
12.89
9.78
6.31
2.71
-0.69
-3.60
-5.84
-7.44
-8.59
-9.50
-10.34
-11.20
-12.08
-12.95
-13.81
-14.64
-15.40
-16.03
-16.46
-16.64
-16.55
-16.22
-15.65
-14.82
-13.67
-12.17
-10.36
-8.34
-6.28
-4.30
-2.52
-1.04
0.06
0.68
0.80
0.52
0.07
-0.22
-0.05
0.70
1.94
3.40
4.75
5.79
6.48
6.93
7.31
7.75
8.29
8.92
9.57
10.22
10.88
11.57
12.32
13.15
14.05
15.00
15.99
17.02
18.11
19.27
20.48
21.64
22.58
23.12
23.16
22.69
21.89
21.05
20.46
20.34
20.71
21.37
22.00
22.19
21.62
20.14
17.80
14.89
11.77
8.85
6.45
4.72
3.65
3.10
2.78
2.35
1.44
-0.26
-2.88
-6.37
-10.44
-14.69
-18.68
-22.14
-24.98
-27.33
-29.30
-30.96
-32.14
-32.54
-31.76
-29.52
-25.70
-20.47
-14.15
-7.26
-0.33
6.10
11.59
15.84
18.74
20.41
21.10
21.10
20.57
19.47
17.62
14.74
10.57
4.99
-1.97
-10.00
-18.50
-26.54
-32.99
-36.71
-36.95
-33.58
-27.27
-19.32
-11.30
-4.63
-0.19
1.75
1.46
-0.49
-3.46
-6.84
-10.13
-12.88
-14.77
-15.59
-15.32
-14.12
-12.26
-10.06
-7.81
-5.70
-3.85
-2.29
-1.00
0.09
1.03
1.87
2.60
3.15
3.41
3.30
2.74
1.75
0.41
-1.13
-2.68
-4.06
-5.13
-5.80
-6.09
-6.09
-5.88
-5.55
-5.13
-4.60
-3.94
-3.14
-2.24
-1.32
-0.50
0.08
0.37
0.35
0.12
-0.19
-0.46
-0.64
-0.79
-0.99
-1.29
-1.70
-2.10
-2.40
-2.54
-2.52
-2.42
-2.31
-2.19
-2.01
-1.70
-1.26
-0.74
-0.23
0.21
0.58
0.97
1.47
2.15
3.01
3.99
4.96
5.79
6.34
6.51
6.23
5.48
4.34
2.99
1.70
0.72
0.24
0.30
0.79
1.53
2.34
3.06
3.61
3.98
4.19
4.24
4.16
3.97
3.71
3.45
3.25
3.08
2.89
2.59
2.08
1.37
0.49
-0.46
-1.38
-2.20
-2.89
-3.45
-3.88
-4.19
-4.34
-4.33
-4.14
-3.73
-3.07
-2.14
-0.97
0.35
1.66
2.79
3.66
4.26
4.69
5.06
5.44
5.80
6.02
5.98
5.59
4.88
4.01
3.22
2.78
2.91
3.70
5.05
6.69
8.21
9.21
9.40
8.66
7.08
4.96
2.66
0.59
-0.97
-1.84
-2.04
-1.71
-1.08
-0.41
0.10
0.34
0.24
-0.19
-0.93
-1.92
-3.06
-4.26
-5.40
-6.41
-7.27
-8.00
-8.61
-9.09
-9.40
-9.50
-9.34
-8.92
-8.25
-7.32
-6.10
-4.56
-2.69
-0.51
1.86
4.26
6.48
8.27
9.43
9.78
9.26
7.90
5.90
3.55
1.26
-0.57
-1.65
-1.82
-1.12
0.22
1.88
3.54
4.96
6.03
6.74
7.18
7.44
7.56
7.53
7.31
6.79
5.87
4.46
2.53
0.22
-2.22
-4.42
-5.98
-6.61
-6.22
-4.91
-2.98
-0.84
1.11
2.55
3.28
3.30
2.73
1.77
0.69
-0.26
-0.83
-0.83
-0.12
1.28
3.25
5.52
7.72
9.55
10.79
11.42
11.55
11.41
11.16
10.91
10.64
10.23
9.55
8.52
7.17
5.66
4.16
2.81
1.63
0.48
-0.82
-2.45
-4.45
-6.69
-8.88
-10.63
-11.59
-11.48
-10.25
-8.09
-5.39
-2.66
-0.38
1.11
1.71
1.55
0.93
0.15
-0.53
-0.96
-1.13
-1.07
-0.87
-0.57
-0.24
0.10
0.43
0.66
0.76
0.66
0.36
-0.09
-0.69
-1.44
-2.38
-3.52
-4.87
-6.31
-7.70
-8.86
-9.64
-9.96
-9.81
-9.20
-8.22
-6.99
-5.66
-4.37
-3.25
-2.39
-1.79
-1.38
-1.07
-0.70
-0.21
0.42
1.13
1.78
2.25
2.50
2.59
2.64
2.75
2.96
3.22
3.46
3.62
3.67
3.62
3.46
3.22
2.90
2.59
2.37
2.29
2.34
2.42
2.40
2.16
1.69
1.01
0.22
-0.55
-1.23
-1.76
-2.12
-2.34
-2.47
-2.54
-2.58
-2.57
-2.44
-2.16
-1.68
-1.05
-0.39
0.18
0.53
0.62
0.48
0.22
-0.05
-0.21
-0.22
-0.11
0.08
0.28
0.48
0.70
0.93
1.15
1.31
1.36
1.28
1.13
0.94
0.76
0.61
0.49
0.41
0.39
0.44
0.53
0.58
0.49
0.18
-0.33
-0.93
-1.48
-1.87
-2.08
-2.13
-2.08
-1.97
-1.79
-1.55
-1.30
-1.13
-1.16
-1.45
-1.99
-2.73
-3.56
-4.36
-5.01
-5.39
-5.38
-4.89
-3.90
-2.44
-0.68
1.13
2.74
3.91
4.54
4.63
4.29
3.71
3.06
2.52
2.21
2.18
2.38
2.64
2.75
2.49
1.77
0.68
-0.54
-1.54
-2.04
-1.92
-1.29
-0.42
0.41
0.99
1.27
1.31
1.26
1.19
1.09
0.86
0.39
-0.36
-1.32
-2.28
-3.01
-3.33
-3.15
-2.53
-1.60
-0.55
0.49
1.41
2.20
2.89
3.48
3.93
4.19
4.17
3.82
3.18
2.39
1.66
1.19
1.06
1.25
1.63
2.04
2.36
2.54
2.54
2.38
2.05
1.59
1.11
0.77
0.73
1.10
1.78
2.55
3.08
3.04
2.23
0.63
-1.62
-4.19
-6.68
-8.67
-9.84
-9.98
-9.04
-7.10
-4.32
-0.94
2.74
6.34
9.44
11.63
12.59
12.18
10.51
7.83
4.52
0.96
-2.55
-5.78
-8.52
-10.60
-11.86
-12.18
-11.55
-10.10
-8.07
-5.75
-3.44
-1.38
0.27
1.46
2.24
2.68
2.89
2.98
2.95
2.79
2.42
1.84
1.09
0.28
-0.44
-0.94
-1.14
-1.04
-0.69
-0.21
0.28
0.62
0.72
0.52
0.10
-0.40
-0.77
-0.85
-0.56
0.04
0.79
1.50
1.98
2.13
1.94
1.50
0.97
0.47
0.09
-0.16
-0.32
-0.47
-0.62
-0.76
-0.82
-0.74
-0.50
-0.07
0.51
1.22
1.95
2.58
2.94
2.87
2.30
1.30
0.06
-1.14
-2.08
-2.60
-2.67
-2.37
-1.79
-1.05
-0.27
0.43
0.89
1.00
0.70
0.05
-0.73
-1.37
-1.62
-1.42
-0.87
-0.21
0.31
0.54
0.49
0.28
0.09
0.03
0.12
0.29
0.42
0.45
0.35
0.17
-0.00
-0.09
-0.08
0.02
0.12
0.17
0.10
-0.07
-0.30
-0.52
-0.65
-0.64
-0.47
-0.19
0.10
0.29
0.31
0.18
-0.05
-0.27
-0.39
-0.42
-0.40
-0.41
-0.49
-0.64
-0.83
-0.99
-1.10
-1.15
-1.11
-0.94
-0.60
-0.14
0.38
0.79
0.96
0.84
0.52
0.18
-0.00
0.04
0.28
0.58
0.79
0.86
0.77
0.61
0.43
0.30
0.22
0.21
0.27
0.41
0.62
0.87
1.07
1.14
1.02
0.74
0.38
0.05
-0.17
-0.28
-0.32
-0.40
-0.54
-0.73
-0.87
-0.87
-0.69
-0.35
0.04
0.38
0.59
0.66
0.59
0.42
0.21
-0.03
-0.30
-0.60
-0.95
-1.34
-1.72
-1.99
-2.08
-1.93
-1.61
-1.26
-1.04
-1.01
-1.13
-1.24
-1.19
-0.92
-0.49
-0.06
0.22
0.29
0.18
-0.03
-0.26
-0.49
-0.70
-0.89
-1.03
-1.12
-1.21
-1.39
-1.74
-2.28
-2.90
-3.40
-3.64
-3.56
-3.28
-2.98
-2.84
-2.92
-3.15
-3.34
-3.34
-3.06
-2.51
-1.78
-0.98
-0.17
0.59
1.24
1.76
2.10
2.27
2.32
2.30
2.28
2.27
2.25
2.19
2.09
1.96
1.84
1.76
1.71
1.64
1.51
1.35
1.22
1.23
1.44
1.82
2.24
2.55
2.62
2.45
2.13
1.82
1.61
1.51
1.47
1.39
1.22
0.96
0.67
0.43
0.30
0.26
0.26
0.25
0.18
0.06
-0.06
-0.13
-0.14
-0.11
-0.07
-0.08
-0.15
-0.28
-0.41
-0.48
-0.46
-0.35
-0.19
-0.08
-0.08
-0.25
-0.54
-0.88
-1.14
-1.20
-1.03
-0.70
-0.36
-0.15
-0.16
-0.37
-0.71
-1.04
-1.26
-1.36
-1.32
-1.19
-1.05
-0.93
-0.90
-0.95
-1.09
-1.26
-1.41
-1.48
-1.38
-1.10
-0.64
-0.08
0.50
1.00
1.33
1.44
1.33
1.05
0.72
0.45
0.35
0.40
0.56
0.72
0.85
0.96
1.12
1.38
1.72
2.04
2.23
2.19
1.95
1.64
1.41
1.36
1.41
1.42
1.21
0.69
-0.08
-0.95
-1.70
-2.16
-2.29
-2.13
-1.77
-1.30
-0.79
-0.26
0.26
0.74
1.13
1.37
1.44
1.33
1.04
0.59
-0.05
-0.82
-1.68
-2.51
-3.16
-3.53
-3.61
-3.43
-3.09
-2.65
-2.15
-1.63
-1.12
-0.73
-0.52
-0.53
-0.70
-0.90
-0.98
-0.86
-0.55
-0.09
0.40
0.88
1.27
1.52
1.57
1.42
1.07
0.65
0.28
0.04
-0.04
-0.03
-0.05
-0.15
-0.32
-0.47
-0.49
-0.31
0.05
0.50
0.93
1.25
1.43
1.50
1.53
1.55
1.55
1.45
1.18
0.71
0.10
-0.53
-1.06
-1.41
-1.58
-1.67
-1.74
-1.84
-1.96
-2.04
-2.07
-1.99
-1.82
-1.55
-1.24
-0.96
-0.81
-0.90
-1.23
-1.73
-2.28
-2.74
-3.05
-3.21
-3.25
-3.19
-3.04
-2.80
-2.48
-2.12
-1.70
-1.21
-0.56
0.25
1.18
2.08
2.79
3.20
3.34
3.30
3.20
3.13
3.04
2.88
2.60
2.24
1.89
1.65
1.56
1.55
1.54
1.42
1.18
0.87
0.57
0.38
0.36
0.52
0.80
1.09
1.23
1.10
0.65
-0.05
-0.81
-1.39
-1.63
-1.48
-1.03
-0.47
0.05
0.42
0.62
0.69
0.68
0.58
0.42
0.21
0.03
-0.04
0.06
0.34
0.74
1.12
1.37
1.42
1.26
0.95
0.58
0.22
-0.08
-0.29
-0.37
-0.32
-0.15
0.09
0.25
0.19
-0.20
-0.85
-1.58
-2.11
-2.24
-1.93
-1.33
-0.71
-0.30
-0.21
-0.38
-0.66
-0.88
-0.97
-0.96
-0.95
-1.05
-1.26
-1.49
-1.59
-1.41
-0.92
-0.22
0.47
0.93
1.05
0.88
0.59
0.35
0.27
0.29
0.34
0.32
0.22
0.11
0.06
0.07
0.15
0.24
0.34
0.46
0.60
0.73
0.80
0.76
0.58
0.30
0.01
-0.23
-0.40
-0.51
-0.61
-0.72
-0.88
-1.08
-1.29
-1.46
-1.55
-1.55
-1.46
-1.34
-1.24
-1.17
-1.15
-1.15
-1.12
-1.02
-0.83
-0.55
-0.17
0.24
0.65
1.00
1.26
1.41
1.42
1.31
1.11
0.86
0.65
0.51
0.49
0.57
0.71
0.86
1.01
1.18
1.39
1.65
1.93
2.16
2.28
2.25
2.07
1.75
1.34
0.90
0.50
0.22
0.14
0.33
0.77
1.38
2.00
2.46
2.61
2.40
1.85
1.02
0.02
-1.05
-2.08
-2.96
-3.55
-3.76
-3.56
-3.00
-2.21
-1.34
-0.56
0.01
0.29
0.18
-0.33
-1.19
-2.26
-3.30
-4.06
-4.33
-4.06
-3.40
-2.62
-2.06
-1.95
-2.37
-3.18
-4.10
-4.83
-5.12
-4.88
-4.13
-3.02
-1.73
-0.44
0.73
1.69
2.42
2.92
3.23
3.35
3.29
3.06
2.68
2.26
1.95
1.85
2.01
2.35
2.71
2.91
2.87
2.57
2.09
1.51
0.84
0.11
-0.71
-1.56
-2.34
-2.90
-3.15
-3.00
-2.46
-1.54
-0.30
1.17
2.69
4.04
4.98
5.39
5.30
4.84
4.22
3.59
3.02
2.47
1.91
1.33
0.74
0.19
-0.28
-0.68
-1.01
-1.26
-1.43
-1.51
-1.51
-1.45
-1.37
-1.31
-1.28
-1.34
-1.52
-1.86
-2.32
-2.79
-3.14
-3.20
-2.93
-2.39
-1.74
-1.15
-0.73
-0.50
-0.38
-0.31
-0.26
-0.27
-0.37
-0.55
-0.75
-0.89
-0.94
-0.93
-0.97
-1.18
-1.58
-2.09
-2.57
-2.84
-2.83
-2.58
-2.21
-1.86
-1.64
-1.59
-1.69
-1.86
-2.05
-2.23
-2.39
-2.51
-2.59
-2.60
-2.53
-2.39
-2.20
-1.97
-1.70
-1.34
-0.83
-0.14
0.70
1.65
2.64
3.62
4.52
5.30
5.87
6.16
6.12
5.75
5.11
4.28
3.34
2.38
1.54
1.00
0.97
1.56
2.73
4.20
5.52
6.29
6.22
5.33
3.81
1.97
0.12
-1.57
-3.01
-4.20
-5.13
-5.80
-6.14
-6.11
-5.66
-4.75
-3.43
-1.79
-0.03
1.62
2.87
3.51
3.47
2.86
1.95
1.09
0.54
0.45
0.79
1.39
2.08
2.68
3.13
3.39
3.49
3.51
3.53
3.66
3.98
4.51
5.17
5.82
6.28
6.38
6.02
5.15
3.80
2.04
0.03
-2.02
-3.86
-5.27
-6.15
-6.49
-6.38
-5.97
-5.40
-4.78
-4.14
-3.49
-2.83
-2.15
-1.47
-0.84
-0.32
0.03
0.18
0.16
0.05
-0.09
-0.25
-0.45
-0.72
-1.03
-1.32
-1.47
-1.37
-1.04
-0.59
-0.18
0.06
0.08
-0.08
-0.34
-0.61
-0.87
-1.14
-1.41
-1.67
-1.88
-1.93
-1.74
-1.26
-0.55
0.28
1.03
1.54
1.78
1.80
1.77
1.79
1.89
1.92
1.70
1.11
0.20
-0.81
-1.66
-2.14
-2.25
-2.12
-1.95
-1.87
-1.86
-1.82
-1.63
-1.22
-0.62
0.08
0.81
1.49
2.03
2.36
2.39
2.08
1.52
0.89
0.35
0.02
-0.13
-0.21
-0.33
-0.51
-0.69
-0.81
-0.83
-0.78
-0.77
-0.80
-0.88
-0.90
-0.83
-0.66
-0.47
-0.36
-0.35
-0.40
-0.37
-0.20
0.12
0.45
0.62
0.47
-0.04
-0.83
-1.68
-2.29
-2.35
-1.67
-0.22
1.80
4.04
6.09
7.58
8.27
8.10
7.14
5.57
3.64
1.59
-0.29
-1.78
-2.70
-3.00
-2.75
-2.06
-1.14
-0.15
0.71
1.30
1.51
1.32
0.78
0.03
-0.78
-1.50
-2.03
-2.36
-2.51
-2.54
-2.54
-2.59
-2.72
-2.98
-3.30
-3.61
-3.78
-3.73
-3.44
-2.98
-2.51
-2.18
-2.07
-2.17
-2.36
-2.49
-2.41
-2.05
-1.39
-0.48
0.59
1.69
2.66
3.29
3.41
2.97
2.08
1.00
0.04
-0.57
-0.72
-0.47
0.04
0.64
1.23
1.74
2.10
2.27
2.22
1.95
1.56
1.15
0.85
0.69
0.61
0.51
0.30
-0.06
-0.53
-1.03
-1.47
-1.79
-1.98
-2.11
-2.25
-2.47
-2.79
-3.16
-3.50
-3.71
-3.73
-3.56
-3.23
-2.80
-2.35
-1.93
-1.59
-1.36
-1.24
-1.19
-1.10
-0.86
-0.32
0.55
1.68
2.91
3.98
4.72
5.04
4.96
4.57
4.00
3.32
2.57
1.79
1.03
0.39
-0.02
-0.12
0.11
0.57
1.14
1.67
2.02
2.14
2.00
1.66
1.21
0.73
0.29
-0.09
-0.42
-0.76
-1.13
-1.52
-1.86
-2.06
-2.04
-1.82
-1.50
-1.15
-0.84
-0.54
-0.16
0.33
0.88
1.38
1.70
1.81
1.77
1.70
1.70
1.78
1.86
1.85
1.72
1.49
1.24
1.00
0.77
0.52
0.25
-0.01
-0.20
-0.27
-0.22
-0.10
0.02
0.07
0.02
-0.10
-0.27
-0.45
-0.65
-0.90
-1.23
-1.64
-2.05
-2.36
-2.42
-2.19
-1.69
-1.06
-0.47
-0.06
0.11
0.06
-0.11
-0.30
-0.40
-0.33
-0.01
0.56
1.36
2.27
3.12
3.73
3.93
3.70
3.13
2.42
1.76
1.26
0.91
0.64
0.36
0.04
-0.31
-0.63
-0.91
-1.18
-1.45
-1.71
-1.92
-2.03
-2.03
-1.93
-1.78
-1.65
-1.55
-1.51
-1.50
-1.51
-1.52
-1.48
-1.39
-1.23
-1.04
-0.89
-0.84
-0.89
-1.02
-1.19
-1.34
-1.48
-1.60
-1.65
-1.59
-1.36
-0.95
-0.43
0.07
0.48
0.78
1.00
1.20
1.41
1.60
1.70
1.69
1.58
1.45
1.38
1.43
1.56
1.68
1.70
1.56
1.24
0.82
0.39
0.06
-0.09
-0.02
0.22
0.53
0.78
0.88
0.81
0.61
0.36
0.13
-0.04
-0.18
-0.33
-0.52
-0.73
-0.91
-1.00
-1.00
-0.92
-0.85
-0.88
-1.05
-1.31
-1.61
-1.84
-1.96
-1.95
-1.88
-1.79
-1.70
-1.59
-1.39
-1.07
-0.62
-0.11
0.36
0.71
0.89
0.90
0.79
0.65
0.52
0.44
0.36
0.23
0.04
-0.15
-0.23
-0.12
0.19
0.59
0.90
0.97
0.77
0.45
0.21
0.20
0.44
0.79
1.02
0.99
0.69
0.27
-0.05
-0.13
0.04
0.34
0.59
0.66
0.54
0.34
0.17
0.11
0.17
0.27
0.36
0.37
0.25
-0.02
-0.46
-1.06
-1.71
-2.28
-2.59
-2.56
-2.23
-1.74
-1.27
-0.96
-0.84
-0.85
-0.92
-0.99
-1.11
-1.31
-1.60
-1.90
-2.09
-2.10
-1.90
-1.57
-1.22
-0.90
-0.62
-0.35
-0.05
0.25
0.49
0.59
0.55
0.38
0.16
-0.06
-0.26
-0.45
-0.65
-0.90
-1.21
-1.58
-1.98
-2.38
-2.71
-2.92
-2.97
-2.86
-2.66
-2.44
-2.27
-2.20
-2.17
-2.11
-1.96
-1.68
-1.29
-0.87
-0.42
0.09
0.73
1.59
2.63
3.73
4.69
5.35
5.65
5.65
5.47
5.23
4.99
4.70
4.32
3.79
3.16
2.50
1.91
1.45
1.12
0.85
0.57
0.24
-0.13
-0.46
-0.69
-0.79
-0.77
-0.70
-0.62
-0.56
-0.47
-0.31
-0.07
0.22
0.48
0.63
0.67
0.65
0.65
0.72
0.87
1.02
1.10
1.04
0.81
0.45
0.04
-0.34
-0.62
-0.75
-0.75
-0.60
-0.30
0.16
0.82
1.70
2.71
3.73
4.55
4.98
4.91
4.36
3.45
2.35
1.20
0.05
-1.04
-2.02
-2.80
-3.21
-3.15
-2.56
-1.49
-0.11
1.41
2.84
4.01
4.74
4.94
4.53
3.56
2.13
0.48
-1.13
-2.46
-3.33
-3.70
-3.66
-3.36
-2.98
-2.63
-2.36
-2.16
-2.01
-1.85
-1.67
-1.43
-1.10
-0.66
-0.18
0.25
0.51
0.52
0.29
-0.04
-0.31
-0.38
-0.20
0.17
0.58
0.91
1.06
1.04
0.89
0.69
0.51
0.39
0.32
0.27
0.16
-0.05
-0.44
-0.98
-1.62
-2.25
-2.74
-2.94
-2.82
-2.36
-1.64
-0.81
-0.02
0.55
0.80
0.71
0.34
-0.16
-0.66
-1.02
-1.19
-1.23
-1.20
-1.22
-1.29
-1.36
-1.34
-1.13
-0.69
-0.10
0.52
1.00
1.29
1.39
1.40
1.43
1.52
1.66
1.78
1.83
1.78
1.63
1.42
1.17
0.91
0.65
0.40
0.16
-0.05
-0.24
-0.43
-0.58
-0.68
-0.70
-0.64
-0.55
-0.50
-0.54
-0.70
-0.91
-1.08
-1.15
-1.10
-0.99
-0.91
-0.93
-1.04
-1.21
-1.33
-1.33
-1.17
-0.86
-0.46
-0.03
0.37
0.72
1.01
1.27
1.48
1.61
1.64
1.57
1.42
1.27
1.19
1.21
1.29
1.30
1.13
0.73
0.19
-0.34
-0.64
-0.60
-0.21
0.37
0.93
1.31
1.40
1.19
0.78
0.27
-0.23
-0.64
-0.95
-1.13
-1.23
-1.24
-1.17
-0.99
-0.69
-0.30
0.12
0.44
0.57
0.49
0.23
-0.11
-0.41
-0.62
-0.70
-0.65
-0.46
-0.12
0.34
0.81
1.20
1.39
1.36
1.17
0.92
0.71
0.57
0.46
0.33
0.14
-0.11
-0.37
-0.56
-0.63
-0.57
-0.44
-0.30
-0.22
-0.22
-0.30
-0.40
-0.48
-0.53
-0.58
-0.70
-0.91
-1.16
-1.33
-1.31
-1.06
-0.65
-0.25
-0.02
0.01
-0.11
-0.21
-0.20
-0.05
0.13
0.25
0.26
0.23
0.29
0.52
0.88
1.25
1.47
1.47
1.28
0.98
0.70
0.44
0.19
-0.05
-0.25
-0.35
-0.24
0.07
0.53
1.02
1.45
1.74
1.90
1.92
1.80
1.52
1.09
0.58
0.14
-0.10
-0.07
0.18
0.52
0.80
0.88
0.72
0.37
-0.13
-0.72
-1.39
-2.12
-2.87
-3.56
-4.08
-4.42
-4.60
-4.76
-5.07
-5.61
-6.37
-7.25
-8.10
-8.78
-9.24
-9.44
-9.40
-9.09
-8.47
-7.53
-6.32
-4.95
-3.57
-2.25
-0.97
0.38
1.98
3.93
6.17
8.48
10.54
12.07
12.95
13.26
13.16
12.83
12.31
11.55
10.46
9.04
7.36
5.57
3.80
2.10
0.52
-0.90
-1.97
-2.46
-2.17
-1.05
0.68
2.61
4.30
5.41
5.81
5.55
4.77
3.53
1.85
-0.25
-2.65
-5.08
-7.11
-8.37
-8.70
-8.18
-7.16
-6.01
-5.05
-4.39
-3.99
-3.77
-3.65
-3.66
-3.85
-4.22
-4.73
-5.22
-5.50
-5.41
-4.93
-4.12
-3.18
-2.29
-1.61
-1.14
-0.83
-0.51
-0.07
0.58
1.46
2.52
3.65
4.73
5.63
6.25
6.57
6.62
6.47
6.19
5.83
5.35
4.65
3.68
2.40
0.90
-0.70
-2.21
-3.50
-4.47
-5.10
-5.35
-5.18
-4.53
-3.35
-1.67
0.37
2.49
4.37
5.75
6.48
6.55
6.06
5.14
3.88
2.40
0.81
-0.70
-1.90
-2.60
-2.75
-2.47
-1.99
-1.54
-1.29
-1.26
-1.39
-1.61
-1.84
-2.06
-2.26
-2.43
-2.55
-2.59
-2.49
-2.19
-1.65
-0.88
0.03
0.92
1.57
1.82
1.58
0.92
0.06
-0.73
-1.20
-1.15
-0.54
0.56
1.90
3.17
4.07
4.40
4.20
3.64
2.98
2.42
2.00
1.59
1.03
0.21
-0.83
-1.91
-2.85
-3.52
-3.96
-4.31
-4.66
-5.02
-5.26
-5.20
-4.74
-3.91
-2.92
-1.99
-1.32
-0.95
-0.80
-0.71
-0.61
-0.44
-0.21
0.09
0.51
1.08
1.75
2.42
2.89
2.97
2.57
1.69
0.49
-0.81
-1.93
-2.71
-3.02
-2.91
-2.48
-1.94
-1.44
-1.11
-0.94
-0.87
-0.80
-0.63
-0.36
-0.02
0.33
0.63
0.80
0.81
0.58
0.11
-0.57
-1.35
-2.12
-2.75
-3.18
-3.38
-3.38
-3.17
-2.74
-2.09
-1.25
-0.33
0.52
1.17
1.57
1.74
1.80
1.87
2.03
2.28
2.55
2.77
2.82
2.64
2.18
1.45
0.52
-0.49
-1.44
-2.21
-2.73
-3.00
-3.13
-3.24
-3.47
-3.89
-4.47
-5.11
-5.66
-6.00
-6.10
-6.02
-5.91
-5.92
-6.09
-6.32
-6.37
-5.95
-4.89
-3.30
-1.60
-0.50
-0.69
-2.51
-5.70
-9.34
-12.09
-12.56
-9.70
-3.07
7.13
20.12
34.64
49.18
62.19
72.35
78.85
81.58
81.02
77.95
73.10
66.84
59.19
50.03
39.39
27.71
15.77
4.54
-5.12
-12.64
-17.88
-21.01
-22.45
-22.68
-22.22
-21.62
-21.41
-22.03
-23.69
-26.22
-29.06
-31.38
-32.37
-31.55
-28.95
-25.08
-20.66
-16.41
-12.75
-9.77
-7.31
-5.15
-3.13
-1.19
0.65
2.36
3.90
5.20
6.15
6.61
6.40
5.41
3.64
1.23
-1.56
-4.36
-6.82
-8.67
-9.85
-10.47
-10.81
-11.11
-11.57
-12.23
-13.05
-13.93
-14.83
-15.68
-16.41
-16.91
-17.06
-16.79
-16.18
-15.34
-14.44
-13.50
-12.46
-11.16
-9.49
-7.50
-5.42
-3.60
-2.37
-1.94
-2.26
-3.12
-4.14
-5.00
-5.48
-5.54
-5.26
-4.79
-4.28
-3.85
-3.58
-3.49
-3.57
-3.73
-3.86
-3.81
-3.51
-2.95
-2.24
-1.49
-0.87
-0.47
-0.30
-0.34
-0.48
-0.62
-0.66
-0.57
-0.38
-0.18
-0.08
-0.18
-0.47
-0.94
-1.46
-1.90
-2.10
-1.97
-1.49
-0.78
-0.04
0.51
0.73
0.63
0.32
-0.01
-0.21
-0.27
-0.20
-0.10
-0.01
0.07
0.16
0.24
0.31
0.33
0.31
0.31
0.39
0.63
1.01
1.47
1.86
2.07
2.02
1.72
1.27
0.79
0.43
0.27
0.29
0.39
0.44
0.30
-0.06
-0.60
-1.21
-1.73
-2.03
-2.05
-1.80
-1.36
-0.88
-0.50
-0.30
-0.31
-0.48
-0.69
-0.84
-0.88
-0.81
-0.67
-0.50
-0.34
-0.19
-0.06
0.08
0.26
0.51
0.85
1.29
1.80
2.33
2.76
2.98
2.86
2.35
1.48
0.44
-0.55
-1.22
-1.43
-1.15
-0.45
0.50
1.54
2.57
3.49
4.24
4.74
4.96
4.88
4.57
4.11
3.54
2.80
1.82
0.54
-0.96
-2.45
-3.59
-4.04
-3.59
-2.25
-0.24
2.09
4.36
6.24
7.52
8.12
8.04
7.37
6.29
5.04
3.86
2.96
2.43
2.22
2.19
2.19
2.13
2.04
2.02
2.16
2.53
3.12
3.90
4.79
5.65
6.31
6.60
6.35
5.53
4.24
2.75
1.35
0.30
-0.23
-0.23
0.20
0.87
1.58
2.15
2.44
2.41
2.12
1.66
1.12
0.60
0.15
-0.18
-0.34
-0.29
-0.00
0.51
1.19
1.90
2.45
2.66
2.38
1.62
0.52
-0.65
-1.59
-2.06
-1.98
-1.46
-0.72
-0.00
0.51
0.74
0.67
0.32
-0.27
-1.09
-2.06
-3.10
-4.08
-4.89
-5.47
-5.79
-5.90
-5.84
-5.66
-5.37
-4.96
-4.42
-3.79
-3.16
-2.70
-2.61
-3.00
-3.87
-4.99
-6.01
-6.51
-6.21
-5.02
-3.14
-0.96
1.09
2.65
3.53
3.72
3.38
2.72
1.93
1.17
0.50
-0.02
-0.35
-0.43
-0.25
0.14
0.61
0.97
1.10
1.01
0.85
0.82
1.07
1.60
2.29
2.91
3.24
3.17
2.68
1.88
0.92
-0.00
-0.73
-1.16
-1.24
-1.02
-0.58
-0.04
0.49
0.93
1.23
1.36
1.30
1.08
0.74
0.34
-0.09
-0.51
-0.88
-1.15
-1.27
-1.19
-0.94
-0.61
-0.34
-0.21
-0.26
-0.41
-0.53
-0.48
-0.22
0.17
0.59
0.92
1.09
1.14
1.13
1.17
1.35
1.73
2.34
3.12
4.01
4.93
5.80
6.53
7.04
7.22
6.95
6.18
4.92
3.31
1.52
-0.24
-1.81
-3.11
-4.12
-4.83
-5.18
-5.14
-4.68
-3.89
-2.91
-1.96
-1.25
-0.87
-0.82
-1.03
-1.36
-1.71
-1.98
-2.14
-2.16
-2.04
-1.81
-1.46
-1.02
-0.60
-0.31
-0.29
-0.62
-1.31
-2.21
-3.10
-3.70
-3.82
-3.34
-2.27
-0.72
1.12
3.01
4.64
5.72
6.07
5.68
4.74
3.56
2.45
1.63
1.17
1.08
1.27
1.63
2.01
2.24
2.16
1.68
0.87
-0.07
-0.93
-1.53
-1.85
-1.97
-1.96
-1.85
-1.58
-1.15
-0.59
-0.06
0.28
0.38
0.29
0.17
0.17
0.35
0.67
1.00
1.20
1.18
0.89
0.32
-0.50
-1.48
-2.44
-3.14
-3.31
-2.81
-1.69
-0.19
1.28
2.36
2.83
2.71
2.21
1.64
1.21
1.02
0.98
0.95
0.84
0.64
0.41
0.22
0.13
0.10
0.05
-0.08
-0.35
-0.71
-1.10
-1.37
-1.42
-1.18
-0.70
-0.08
0.47
0.81
0.81
0.51
0.02
-0.46
-0.80
-0.90
-0.84
-0.75
-0.78
-0.97
-1.29
-1.57
-1.68
-1.54
-1.20
-0.83
-0.56
-0.47
-0.48
-0.45
-0.22
0.22
0.79
1.29
1.53
1.44
1.04
0.50
-0.04
-0.47
-0.80
-1.09
-1.41
-1.72
-1.89
-1.78
-1.27
-0.41
0.66
1.72
2.58
3.12
3.30
3.13
2.65
1.93
1.04
0.12
-0.69
-1.26
-1.54
-1.56
-1.39
-1.13
-0.84
-0.52
-0.17
0.22
0.63
1.05
1.44
1.79
2.08
2.29
2.39
2.33
2.08
1.64
1.07
0.46
-0.08
-0.45
-0.58
-0.48
-0.21
0.14
0.44
0.64
0.75
0.80
0.86
0.98
1.17
1.36
1.51
1.54
1.41
1.13
0.75
0.41
0.20
0.21
0.39
0.66
0.90
0.99
0.86
0.52
-0.04
-0.79
-1.65
-2.50
-3.18
-3.53
-3.49
-3.11
-2.51
-1.83
-1.16
-0.52
0.11
0.68
1.15
1.42
1.43
1.18
0.75
0.28
-0.09
-0.31
-0.36
-0.35
-0.37
-0.48
-0.64
-0.70
-0.51
0.04
0.89
1.81
2.56
2.91
2.83
2.44
1.96
1.54
1.25
1.02
0.76
0.40
-0.02
-0.39
-0.64
-0.76
-0.83
-0.94
-1.12
-1.33
-1.47
-1.48
-1.33
-1.10
-0.83
-0.58
-0.34
-0.07
0.23
0.52
0.74
0.82
0.78
0.66
0.55
0.48
0.44
0.38
0.25
0.04
-0.25
-0.57
-0.87
-1.12
-1.26
-1.27
-1.10
-0.77
-0.32
0.16
0.59
0.91
1.10
1.20
1.24
1.20
1.03
0.67
0.09
-0.66
-1.43
-2.07
-2.46
-2.58
-2.50
-2.36
-2.27
-2.24
-2.22
-2.12
-1.84
-1.33
-0.68
-0.00
0.54
0.83
0.86
0.69
0.46
0.29
0.21
0.17
0.08
-0.15
-0.52
-0.95
-1.34
-1.64
-1.87
-2.09
-2.38
-2.74
-3.12
-3.41
-3.51
-3.33
-2.83
-1.97
-0.78
0.63
2.08
3.34
4.20
4.54
4.40
3.90
3.24
2.62
2.14
1.84
1.68
1.62
1.62
1.66
1.74
1.84
1.91
1.86
1.61
1.14
0.51
-0.17
-0.73
-1.05
-1.06
-0.76
-0.22
0.44
1.06
1.53
1.78
1.81
1.71
1.57
1.42
1.25
1.01
0.69
0.33
0.07
-0.03
0.04
0.15
0.13
-0.15
-0.67
-1.33
-1.94
-2.32
-2.38
-2.11
-1.55
-0.78
0.06
0.83
1.36
1.55
1.38
0.97
0.52
0.21
0.11
0.17
0.22
0.14
-0.09
-0.43
-0.75
-1.01
-1.21
-1.38
-1.54
-1.61
-1.47
-0.99
-0.16
0.91
2.01
2.91
3.43
3.51
3.18
2.53
1.69
0.81
0.01
-0.66
-1.17
-1.52
-1.77
-1.92
-1.98
-1.96
-1.88
-1.80
-1.75
-1.72
-1.68
-1.55
-1.28
-0.94
-0.64
-0.51
-0.59
-0.79
-0.94
-0.89
-0.58
-0.06
0.55
1.11
1.57
1.87
1.99
1.86
1.44
0.72
-0.23
-1.24
-2.11
-2.65
-2.72
-2.30
-1.47
-0.46
0.48
1.10
1.31
1.18
0.92
0.74
0.79
1.05
1.38
1.59
1.57
1.27
0.74
0.01
-0.89
-1.94
-3.06
-4.13
-4.94
-5.32
-5.19
-4.64
-3.90
-3.23
-2.85
-2.83
-3.08
-3.33
-3.26
-2.65
-1.40
0.35
2.27
3.96
5.09
5.48
5.22
4.55
3.82
3.29
3.07
3.16
3.43
3.73
3.90
3.74
3.09
1.91
0.30
-1.38
-2.66
-3.12
-2.60
-1.20
0.68
2.57
4.07
4.93
5.09
4.54
3.34
1.64
-0.32
-2.16
-3.44
-3.84
-3.28
-2.02
-0.58
0.42
0.56
-0.27
-1.79
-3.50
-4.81
-5.24
-4.61
-2.98
-0.69
1.80
3.98
5.45
5.99
5.61
4.54
3.08
1.60
0.37
-0.45
-0.82
-0.84
-0.67
-0.57
-0.77
-1.42
-2.46
-3.63
-4.50
-4.67
-3.91
-2.28
-0.09
2.17
4.04
5.21
5.56
5.21
4.37
3.32
2.29
1.42
0.74
0.19
-0.36
-1.04
-1.95
-3.05
-4.18
-5.09
-5.51
-5.25
-4.28
-2.74
-0.87
1.02
2.68
3.94
4.68
4.83
4.36
3.33
1.91
0.37
-1.00
-1.92
-2.32
-2.29
-2.06
-1.92
-2.06
-2.56
-3.30
-4.07
-4.61
-4.67
-4.15
-3.05
-1.53
0.18
1.80
3.11
3.96
4.26
4.00
3.20
2.02
0.64
-0.66
-1.66
-2.24
-2.46
-2.46
-2.43
-2.47
-2.60
-2.77
-2.88
-2.81
-2.46
-1.73
-0.58
0.94
2.62
4.17
5.24
5.61
5.23
4.24
2.91
1.55
0.40
-0.39
-0.75
-0.72
-0.36
0.17
0.76
1.26
1.57
1.62
1.38
0.89
0.30
-0.20
-0.41
-0.22
0.32
1.02
1.62
1.90
1.76
1.26
0.51
-0.33
-1.16
-1.89
-2.47
-2.84
-2.95
-2.75
-2.30
-1.73
-1.22
-0.95
-1.02
-1.41
-2.00
-2.56
-2.91
-2.95
-2.68
-2.19
-1.58
-0.91
-0.20
0.57
1.40
2.25
3.06
3.72
4.15
4.30
4.20
3.94
3.64
3.39
3.17
2.88
2.41
1.67
0.70
-0.32
-1.17
-1.65
-1.67
-1.30
-0.71
-0.10
0.35
0.52
0.36
-0.16
-0.99
-2.05
-3.16
-4.12
-4.71
-4.78
-4.29
-3.36
-2.14
-0.82
0.46
1.62
2.62
3.44
4.05
4.40
4.45
4.20
3.66
2.88
1.97
1.03
0.18
-0.50
-0.96
-1.26
-1.47
-1.66
-1.87
-2.07
-2.23
-2.34
-2.42
-2.53
-2.75
-3.08
-3.51
-3.93
-4.22
-4.26
-3.97
-3.36
-2.49
-1.45
-0.37
0.68
1.61
2.38
2.96
3.31
3.42
3.35
3.21
3.17
3.37
3.79
4.29
4.66
4.75
4.57
4.27
4.05
4.03
4.15
4.25
4.17
3.87
3.42
2.92
2.43
1.86
1.11
0.12
-1.06
-2.27
-3.33
-4.16
-4.75
-5.19
-5.55
-5.83
-6.00
-5.98
-5.72
-5.23
-4.58
-3.86
-3.16
-2.55
-2.08
-1.77
-1.61
-1.57
-1.58
-1.52
-1.29
-0.82
-0.19
0.45
0.87
0.88
0.45
-0.31
-1.14
-1.75
-1.89
-1.48
-0.62
0.47
1.48
2.17
2.43
2.26
1.82
1.25
0.69
0.15
-0.38
-0.90
-1.34
-1.58
-1.49
-1.05
-0.39
0.32
0.89
1.23
1.37
1.44
1.56
1.78
2.03
2.20
2.18
1.95
1.61
1.31
1.19
1.35
1.86
2.69
3.77
4.97
6.07
6.81
6.99
6.54
5.50
4.08
2.46
0.81
-0.79
-2.27
-3.56
-4.52
-5.03
-5.05
-4.65
-3.99
-3.23
-2.46
-1.68
-0.88
-0.08
0.63
1.07
1.09
0.66
-0.12
-1.07
-1.95
-2.56
-2.83
-2.74
-2.38
-1.86
-1.33
-0.89
-0.65
-0.66
-0.91
-1.38
-2.00
-2.70
-3.41
-4.03
-4.50
-4.76
-4.78
-4.58
-4.20
-3.67
-3.02
-2.28
-1.50
-0.75
-0.10
0.40
0.75
1.01
1.24
1.47
1.70
1.86
1.88
1.75
1.47
1.11
0.76
0.50
0.35
0.35
0.47
0.71
1.05
1.44
1.81
2.06
2.10
1.88
1.46
0.95
0.53
0.30
0.25
0.30
0.31
0.21
0.04
-0.12
-0.20
-0.14
-0.01
0.13
0.16
0.04
-0.25
-0.62
-0.98
-1.17
-1.04
-0.52
0.36
1.45
2.50
3.27
3.59
3.43
2.92
2.22
1.52
0.94
0.51
0.18
-0.07
-0.30
-0.53
-0.79
-1.10
-1.50
-1.98
-2.52
-3.01
-3.34
-3.37
-3.09
-2.59
-2.04
-1.64
-1.55
-1.80
-2.36
-3.07
-3.82
-4.47
-4.90
-5.00
-4.69
-3.97
-2.99
-2.00
-1.30
-1.13
-1.53
-2.37
-3.43
-4.47
-5.29
-5.69
-5.50
-4.51
-2.60
0.23
3.84
7.91
12.10
16.09
19.65
22.60
24.85
26.35
27.06
27.02
26.28
24.90
22.88
20.19
16.78
12.66
7.96
2.93
-2.07
-6.64
-10.43
-13.20
-14.91
-15.65
-15.66
-15.24
-14.65
-14.10
-13.69
-13.43
-13.21
-12.86
-12.19
-11.14
-9.74
-8.18
-6.73
-5.64
-5.02
-4.86
-4.98
-5.10
-5.00
-4.51
-3.63
-2.48
-1.24
-0.13
0.68
1.10
1.12
0.81
0.24
-0.45
-1.14
-1.72
-2.10
-2.26
-2.23
-2.11
-2.02
-2.05
-2.23
-2.54
-2.87
-3.10
-3.10
-2.83
-2.29
-1.58
-0.85
-0.28
-0.01
-0.10
-0.50
-1.06
-1.57
-1.81
-1.68
-1.18
-0.48
0.24
0.80
1.15
1.36
1.57
1.90
2.44
3.20
4.09
4.99
5.73
6.20
6.28
5.93
5.16
4.00
2.56
0.99
-0.52
-1.75
-2.49
-2.61
-2.11
-1.06
0.32
1.83
3.24
4.35
4.98
5.03
4.45
3.37
2.04
0.75
-0.25
-0.88
-1.21
-1.41
-1.66
-2.05
-2.54
-3.00
-3.23
-3.01
-2.17
-0.68
1.34
3.57
5.64
7.15
7.87
7.72
6.79
5.23
3.27
1.13
-0.94
-2.73
-4.08
-4.90
-5.21
-5.06
-4.54
-3.73
-2.68
-1.50
-0.32
0.72
1.54
2.08
2.36
2.43
2.32
2.03
1.53
0.80
-0.15
-1.27
-2.46
-3.56
-4.42
-4.90
-4.97
-4.68
-4.12
-3.40
-2.57
-1.68
-0.75
0.16
0.95
1.50
1.76
1.78
1.67
1.60
1.69
1.96
2.34
2.72
2.98
3.04
2.83
2.32
1.55
0.60
-0.37
-1.18
-1.68
-1.83
-1.68
-1.37
-0.98
-0.54
-0.05
0.47
0.96
1.28
1.31
1.06
0.67
0.40
0.45
0.89
1.61
2.31
2.72
2.64
2.06
1.12
0.05
-0.90
-1.52
-1.71
-1.48
-0.92
-0.20
0.50
1.00
1.20
1.05
0.62
0.01
-0.62
-1.14
-1.44
-1.46
-1.20
-0.70
-0.05
0.61
1.16
1.51
1.65
1.65
1.61
1.63
1.77
2.01
2.24
2.39
2.33
2.04
1.49
0.71
-0.25
-1.31
-2.37
-3.28
-3.92
-4.22
-4.20
-3.91
-3.47
-2.93
-2.34
-1.68
-0.95
-0.14
0.68
1.41
1.91
2.11
2.00
1.66
1.24
0.90
0.75
0.80
0.95
1.09
1.07
0.85
0.44
-0.05
-0.50
-0.82
-0.97
-0.98
-0.90
-0.77
-0.58
-0.33
-0.03
0.24
0.37
0.28
-0.02
-0.41
-0.71
-0.80
-0.71
-0.60
-0.70
-1.14
-1.85
-2.60
-3.07
-3.02
-2.38
-1.29
-0.00
1.21
2.17
2.83
3.23
3.45
3.55
3.55
3.40
3.10
2.67
2.19
1.75
1.42
1.20
1.02
0.76
0.36
-0.17
-0.76
-1.26
-1.54
-1.56
-1.36
-1.08
-0.93
-1.04
-1.45
-2.10
-2.83
-3.47
-3.91
-4.09
-4.01
-3.68
-3.16
-2.52
-1.92
-1.50
-1.33
-1.42
-1.65
-1.90
-2.06
-2.09
-2.01
-1.86
-1.65
-1.33
-0.90
-0.32
0.38
1.17
2.01
2.89
3.79
4.67
5.48
6.16
6.65
6.88
6.76
6.27
5.42
4.28
3.00
1.77
0.76
0.08
-0.24
-0.26
-0.09
0.14
0.31
0.35
0.26
0.09
-0.10
-0.24
-0.32
-0.35
-0.38
-0.45
-0.61
-0.87
-1.24
-1.69
-2.16
-2.55
-2.80
-2.85
-2.71
-2.45
-2.09
-1.62
-1.03
-0.32
0.45
1.12
1.53
1.59
1.33
0.89
0.44
0.13
-0.01
-0.02
0.08
0.25
0.48
0.70
0.85
0.79
0.48
-0.03
-0.61
-1.12
-1.48
-1.65
-1.68
-1.61
-1.47
-1.25
-0.98
-0.72
-0.54
-0.47
-0.50
-0.58
-0.65
-0.68
-0.66
-0.62
-0.58
-0.54
-0.49
-0.42
-0.33
-0.21
-0.10
-0.04
-0.05
-0.12
-0.20
-0.21
-0.07
0.21
0.56
0.85
0.94
0.78
0.50
0.26
0.21
0.34
0.52
0.55
0.33
-0.06
-0.39
-0.45
-0.17
0.27
0.63
0.69
0.44
0.04
-0.26
-0.33
-0.19
-0.01
0.08
0.00
-0.17
-0.34
-0.44
-0.48
-0.49
-0.53
-0.61
-0.63
-0.53
-0.22
0.30
0.92
1.47
1.77
1.69
1.25
0.64
0.10
-0.14
0.03
0.56
1.31
2.09
2.71
3.05
3.01
2.53
1.64
0.49
-0.68
-1.62
-2.11
-2.11
-1.72
-1.12
-0.51
-0.01
0.29
0.34
0.10
-0.44
-1.24
-2.21
-3.19
-4.05
-4.72
-5.17
-5.43
-5.47
-5.21
-4.58
-3.57
-2.32
-1.02
0.07
0.79
1.11
1.14
1.06
1.01
1.03
1.04
0.98
0.82
0.67
0.75
1.25
2.24
3.63
5.16
6.55
7.53
7.98
7.86
7.21
6.08
4.48
2.41
-0.10
-2.91
-5.71
-8.08
-9.58
-9.85
-8.81
-6.72
-4.10
-1.52
0.61
2.22
3.54
4.92
6.50
8.18
9.62
10.47
10.58
10.03
9.05
7.89
6.61
5.11
3.21
0.80
-2.09
-5.26
-8.39
-11.12
-13.09
-14.05
-13.91
-12.87
-11.34
-9.88
-8.89
-8.50
-8.45
-8.25
-7.44
-5.83
-3.58
-1.13
1.07
2.75
3.89
4.68
5.31
5.84
6.26
6.53
6.76
7.17
7.98
9.28
10.87
12.38
13.44
13.89
13.83
13.58
13.42
13.46
13.55
13.37
12.61
11.15
9.09
6.74
4.46
2.55
1.16
0.28
-0.23
-0.53
-0.78
-1.04
-1.31
-1.54
-1.69
-1.75
-1.76
-1.79
-1.87
-2.03
-2.21
-2.35
-2.41
-2.34
-2.20
-2.06
-2.01
-2.16
-2.59
-3.37
-4.58
-6.22
-8.23
-10.41
-12.44
-14.00
-14.83
-14.92
-14.45
-13.80
-13.32
-13.26
-13.59
-14.14
-14.62
-14.76
-14.44
-13.64
-12.41
-10.90
-9.27
-7.70
-6.38
-5.44
-4.97
-4.92
-5.13
-5.36
-5.34
-4.85
-3.76
-2.06
0.14
2.63
5.18
7.58
9.71
11.53
13.07
14.31
15.18
15.54
15.34
14.64
13.70
12.89
12.54
12.76
13.42
14.19
14.68
14.53
13.54
11.61
8.80
5.34
1.63
-1.78
-4.30
-5.51
-5.28
-3.89
-1.82
0.34
2.19
3.51
4.31
4.67
4.66
4.31
3.63
2.61
1.31
-0.22
-1.86
-3.50
-5.01
-6.29
-7.27
-7.95
-8.35
-8.51
-8.42
-8.09
-7.55
-6.88
-6.19
-5.63
-5.27
-5.10
-5.05
-5.06
-5.11
-5.25
-5.59
-6.18
-6.95
-7.69
-8.14
-8.07
-7.35
-6.00
-4.19
-2.22
-0.42
0.90
1.51
1.34
0.52
-0.63
-1.69
-2.31
-2.28
-1.60
-0.40
1.15
2.97
4.96
7.07
9.12
10.85
11.96
12.21
11.52
10.00
7.92
5.64
3.52
1.88
0.88
0.56
0.81
1.39
2.02
2.44
2.43
1.90
0.87
-0.47
-1.89
-3.10
-3.89
-4.16
-3.94
-3.37
-2.66
-2.00
-1.54
-1.34
-1.36
-1.49
-1.62
-1.65
-1.56
-1.37
-1.15
-0.96
-0.83
-0.77
-0.80
-0.92
-1.14
-1.43
-1.70
-1.91
-2.07
-2.26
-2.58
-3.04
-3.50
-3.72
-3.44
-2.59
-1.30
0.09
1.21
1.76
1.69
1.12
0.30
-0.48
-1.01
-1.17
-0.97
-0.50
0.08
0.64
1.08
1.35
1.47
1.48
1.40
1.27
1.14
1.08
1.16
1.41
1.77
2.15
2.39
2.35
1.99
1.35
0.56
-0.19
-0.72
-0.94
-0.81
-0.43
0.04
0.48
0.81
1.05
1.25
1.46
1.65
1.77
1.75
1.59
1.31
0.99
0.64
0.27
-0.19
-0.74
-1.35
-1.94
-2.40
-2.65
-2.67
-2.48
-2.16
-1.76
-1.32
-0.90
-0.56
-0.35
-0.34
-0.56
-0.97
-1.45
-1.83
-1.92
-1.61
-0.90
0.10
1.20
2.19
2.95
3.40
3.62
3.73
3.89
4.23
4.77
5.47
6.19
6.85
7.37
7.74
7.95
7.93
7.60
6.89
5.82
4.51
3.18
1.97
0.96
0.07
-0.83
-1.82
-2.91
-4.01
-4.98
-5.70
-6.13
-6.29
-6.23
-5.99
-5.64
-5.23
-4.86
-4.58
-4.41
-4.30
-4.12
-3.79
-3.28
-2.66
-2.04
-1.55
-1.22
-1.03
-0.92
-0.89
-0.93
-1.07
-1.26
-1.39
-1.32
-0.93
-0.27
0.53
1.22
1.63
1.67
1.43
1.10
0.87
0.82
0.96
1.17
1.35
1.41
1.33
1.15
0.91
0.64
0.37
0.16
0.06
0.13
0.37
0.69
0.96
1.03
0.84
0.41
-0.16
-0.73
-1.19
-1.46
-1.44
-1.14
-0.58
0.10
0.71
1.07
1.09
0.84
0.52
0.34
0.44
0.78
1.18
1.47
1.56
1.52
1.44
1.43
1.48
1.49
1.38
1.16
0.93
0.82
0.91
1.14
1.36
1.44
1.31
1.05
0.80
0.64
0.57
0.52
0.42
0.26
0.09
-0.02
-0.04
-0.02
-0.01
-0.05
-0.12
-0.13
-0.00
0.26
0.58
0.81
0.83
0.58
0.15
-0.30
-0.63
-0.77
-0.78
-0.77
-0.81
-0.90
-0.93
-0.82
-0.59
-0.33
-0.19
-0.26
-0.51
-0.81
-0.98
-0.93
-0.66
-0.27
0.14
0.46
0.69
0.83
0.91
0.95
0.95
0.87
0.71
0.44
0.10
-0.25
-0.52
-0.62
-0.49
-0.16
0.30
0.81
1.30
1.77
2.22
2.66
3.07
3.38
3.53
3.51
3.35
3.14
2.99
2.99
3.16
3.43
3.66
3.64
3.21
2.30
1.00
-0.50
-1.93
-3.07
-3.82
-4.18
-4.28
-4.23
-4.20
-4.28
-4.53
-4.98
-5.56
-6.17
-6.64
-6.85
-6.72
-6.25
-5.49
-4.54
-3.46
-2.34
-1.25
-0.25
0.53
1.03
1.21
1.14
0.97
0.86
0.95
1.24
1.62
1.91
1.95
1.69
1.22
0.70
0.30
0.08
0.01
-0.05
-0.21
-0.51
-0.91
-1.31
-1.61
-1.73
-1.67
-1.49
-1.28
-1.14
-1.10
-1.12
-1.16
-1.18
-1.19
-1.24
-1.35
-1.51
-1.62
-1.56
-1.28
-0.80
-0.23
0.31
0.73
1.04
1.28
1.50
1.70
1.81
1.73
1.43
1.00
0.56
0.28
0.22
0.34
0.54
0.71
0.81
0.88
0.97
1.09
1.14
1.02
0.61
-0.07
-0.93
-1.80
-2.53
-3.05
-3.36
-3.55
-3.66
-3.72
-3.67
-3.42
-2.90
-2.07
-0.98
0.25
1.43
2.41
3.04
3.25
3.06
2.56
1.89
1.24
0.80
0.68
0.84
1.16
1.45
1.61
1.69
1.83
2.16
2.69
3.25
3.60
3.57
3.14
2.48
1.84
1.34
1.00
0.69
0.26
-0.32
-0.94
-1.45
-1.68
-1.61
-1.26
-0.74
-0.18
0.33
0.75
1.07
1.32
1.55
1.81
2.09
2.35
2.46
2.35
1.99
1.45
0.88
0.42
0.12
-0.06
-0.23
-0.46
-0.76
-1.06
-1.26
-1.30
-1.21
-1.10
-1.09
-1.25
-1.57
-1.94
-2.21
-2.25
-2.01
-1.49
-0.81
-0.10
0.51
0.93
1.13
1.12
0.99
0.84
0.76
0.82
1.03
1.33
1.64
1.87
1.96
1.91
1.73
1.48
1.19
0.92
0.70
0.55
0.45
0.34
0.14
-0.19
-0.65
-1.13
-1.49
-1.62
-1.47
-1.14
-0.79
-0.56
-0.58
-0.85
-1.28
-1.76
-2.18
-2.46
-2.59
-2.59
-2.48
-2.28
-1.96
-1.53
-1.01
-0.49
-0.06
0.16
0.16
-0.01
-0.23
-0.36
-0.29
0.01
0.52
1.12
1.66
2.00
2.02
1.71
1.14
0.51
-0.01
-0.27
-0.27
-0.11
0.08
0.20
0.24
0.26
0.31
0.43
0.61
0.84
1.13
1.46
1.82
2.09
2.13
1.81
1.14
0.23
-0.67
-1.37
-1.74
-1.77
-1.53
-1.14
-0.63
-0.04
0.59
1.20
1.71
2.02
2.14
2.12
2.04
1.98
1.94
1.86
1.66
1.34
0.91
0.48
0.16
-0.00
-0.03
0.01
0.03
-0.01
-0.06
-0.05
0.10
0.42
0.85
1.30
1.69
1.98
2.15
2.16
1.97
1.55
0.92
0.21
-0.42
-0.77
-0.80
-0.60
-0.37
-0.32
-0.56
-1.05
-1.69
-2.35
-2.96
-3.49
-3.89
-4.06
-3.93
-3.45
-2.67
-1.74
-0.83
-0.12
0.33
0.54
0.59
0.59
0.58
0.62
0.70
0.83
1.01
1.19
1.35
1.47
1.55
1.63
1.75
1.95
2.18
2.33
2.26
1.90
1.27
0.56
-0.00
-0.23
-0.11
0.26
0.65
0.86
0.75
0.32
-0.35
-1.11
-1.83
-2.40
-2.76
-2.89
-2.82
-2.61
-2.32
-2.02
-1.76
-1.57
-1.48
-1.52
-1.68
-1.93
-2.24
-2.54
-2.81
-3.01
-3.06
-2.89
-2.42
-1.66
-0.72
0.22
1.00
1.53
1.84
2.02
2.12
2.14
2.00
1.60
0.93
0.08
-0.79
-1.52
-1.98
-2.08
-1.82
-1.24
-0.46
0.33
0.93
1.17
1.00
0.50
-0.13
-0.65
-0.91
-0.91
-0.77
-0.70
-0.86
-1.28
-1.85
-2.42
-2.86
-3.16
-3.38
-3.64
-3.95
-4.20
-4.25
-3.93
-3.21
-2.18
-1.01
0.10
1.06
1.82
2.42
2.87
3.20
3.39
3.41
3.30
3.09
2.84
2.61
2.42
2.29
2.23
2.27
2.41
2.60
2.76
2.78
2.60
2.26
1.90
1.74
1.86
2.20
2.58
2.76
2.61
2.14
1.50
0.89
0.44
0.17
0.01
-0.17
-0.42
-0.75
-1.07
-1.29
-1.34
-1.18
-0.87
-0.47
-0.04
0.42
0.89
1.36
1.73
1.89
1.70
1.14
0.29
-0.61
-1.30
-1.60
-1.50
-1.14
-0.74
-0.49
-0.46
-0.56
-0.67
-0.67
-0.54
-0.32
-0.08
0.13
0.31
0.48
0.65
0.79
0.90
0.97
1.02
1.06
1.06
0.98
0.77
0.47
0.18
0.04
0.17
0.58
1.16
1.76
2.21
2.42
2.39
2.15
1.76
1.23
0.61
-0.06
-0.69
-1.20
-1.52
-1.64
-1.58
-1.44
-1.31
-1.28
-1.39
-1.60
-1.86
-2.13
-2.37
-2.60
-2.81
-3.00
-3.10
-3.04
-2.73
-2.17
-1.45
-0.69
-0.06
0.38
0.64
0.84
1.15
1.65
2.33
3.03
3.54
3.68
3.41
2.85
2.21
1.69
1.39
1.25
1.16
1.00
0.70
0.29
-0.18
-0.70
-1.24
-1.79
-2.26
-2.54
-2.51
-2.11
-1.38
-0.48
0.37
0.97
1.20
1.06
0.68
0.25
-0.07
-0.17
-0.10
0.02
-0.00
-0.24
-0.69
-1.23
-1.66
-1.87
-1.77
-1.37
-0.77
-0.07
0.59
1.09
1.33
1.25
0.91
0.41
-0.09
-0.44
-0.54
-0.42
-0.15
0.11
0.25
0.21
0.03
-0.13
-0.13
0.16
0.74
1.47
2.11
2.47
2.43
2.02
1.35
0.58
-0.16
-0.79
-1.29
-1.66
-1.92
-2.09
-2.20
-2.27
-2.31
-2.31
-2.22
-2.04
-1.74
-1.34
-0.85
-0.30
0.25
0.78
1.26
1.66
2.00
2.29
2.49
2.55
2.40
1.98
1.34
0.59
-0.14
-0.75
-1.24
-1.68
-2.16
-2.68
-3.19
-3.53
-3.55
-3.13
-2.28
-1.15
0.05
1.04
1.59
1.55
0.97
0.04
-0.96
-1.75
-2.16
-2.13
-1.72
-1.06
-0.32
0.35
0.83
1.01
0.85
0.39
-0.30
-1.06
-1.73
-2.18
-2.31
-2.11
-1.68
-1.14
-0.66
-0.33
-0.16
-0.07
0.04
0.26
0.64
1.17
1.80
2.49
3.17
3.77
4.23
4.47
4.45
4.15
3.53
2.58
1.33
-0.12
-1.58
-2.79
-3.53
-3.69
-3.29
-2.50
-1.51
-0.48
0.48
1.32
2.02
2.53
2.82
2.85
2.67
2.34
1.96
1.55
1.16
0.74
0.25
-0.31
-0.95
-1.57
-2.09
-2.40
-2.43
-2.19
-1.76
-1.28
-0.92
-0.79
-0.88
-1.11
-1.30
-1.30
-1.04
-0.55
0.05
0.59
0.93
1.02
0.86
0.48
-0.04
-0.68
-1.41
-2.16
-2.84
-3.31
-3.42
-3.09
-2.34
-1.29
-0.16
0.85
1.60
2.04
2.19
2.14
1.91
1.54
1.08
0.60
0.24
0.16
0.40
0.90
1.48
1.95
2.21
2.30
2.32
2.35
2.39
2.35
2.14
1.74
1.19
0.62
0.12
-0.28
-0.58
-0.79
-0.87
-0.79
-0.52
-0.10
0.35
0.71
0.87
0.81
0.63
0.42
0.24
0.13
0.03
-0.10
-0.31
-0.57
-0.85
-1.09
-1.26
-1.35
-1.39
-1.40
-1.39
-1.36
-1.30
-1.20
-1.08
-0.96
-0.88
-0.85
-0.84
-0.80
-0.66
-0.40
-0.04
0.30
0.53
0.59
0.53
0.45
0.46
0.63
0.90
1.17
1.32
1.27
1.04
0.72
0.43
0.28
0.33
0.55
0.88
1.17
1.32
1.25
0.99
0.60
0.16
-0.25
-0.60
-0.91
-1.20
-1.50
-1.80
-2.07
-2.28
-2.38
-2.34
-2.16
-1.88
-1.61
-1.46
-1.48
-1.67
-1.94
-2.19
-2.34
-2.34
-2.19
-1.90
-1.46
-0.92
-0.29
0.36
0.99
1.58
2.13
2.62
3.04
3.33
3.43
3.29
2.92
2.38
1.73
1.09
0.55
0.19
0.05
0.10
0.24
0.36
0.33
0.13
-0.17
-0.47
-0.66
-0.71
-0.62
-0.44
-0.19
0.13
0.52
0.97
1.41
1.76
1.92
1.87
1.63
1.29
0.96
0.72
0.60
0.54
0.42
0.15
-0.34
-0.99
-1.65
-2.16
-2.38
-2.31
-2.03
-1.65
-1.27
-0.91
-0.58
-0.27
-0.00
0.15
0.15
-0.02
-0.30
-0.56
-0.72
-0.73
-0.63
-0.45
-0.25
-0.05
0.14
0.24
0.19
-0.08
-0.54
-1.08
-1.51
-1.68
-1.54
-1.15
-0.69
-0.30
-0.08
-0.01
-0.03
-0.11
-0.19
-0.27
-0.32
-0.30
-0.21
-0.06
0.12
0.29
0.43
0.54
0.65
0.73
0.79
0.79
0.73
0.63
0.51
0.39
0.26
0.13
0.01
-0.08
-0.08
0.05
0.30
0.61
0.86
0.94
0.81
0.47
0.06
-0.31
-0.52
-0.56
-0.44
-0.27
-0.12
-0.08
-0.17
-0.42
-0.79
-1.20
-1.56
-1.78
-1.81
-1.65
-1.37
-0.98
-0.51
0.03
0.56
1.01
1.25
1.24
1.00
0.65
0.31
0.06
-0.08
-0.16
-0.20
-0.20
-0.12
0.07
0.38
0.74
1.09
1.35
1.47
1.43
1.23
0.90
0.49
0.07
-0.28
-0.50
-0.52
-0.30
0.13
0.66
1.12
1.31
1.12
0.55
-0.22
-0.96
-1.47
-1.63
-1.51
-1.20
-0.82
-0.46
-0.10
0.25
0.58
0.85
0.98
0.91
0.65
0.22
-0.28
-0.73
-1.03
-1.09
-0.92
-0.58
-0.15
0.27
0.61
0.83
0.93
0.94
0.89
0.80
0.70
0.63
0.59
0.59
0.59
0.56
0.46
0.32
0.16
-0.00
-0.16
-0.33
-0.52
-0.72
-0.85
-0.87
-0.70
-0.37
0.03
0.36
0.52
0.51
0.42
0.39
0.52
0.78
1.03
1.12
0.96
0.59
0.18
-0.10
-0.18
-0.08
0.07
0.16
0.16
0.11
0.10
0.17
0.28
0.38
0.42
0.38
0.29
0.16
0.03
-0.09
-0.16
-0.16
-0.07
0.06
0.12
0.04
-0.21
-0.54
-0.81
-0.91
-0.84
-0.67
-0.52
-0.43
-0.36
-0.22
0.09
0.57
1.13
1.59
1.82
1.73
1.37
0.87
0.36
-0.03
-0.26
-0.36
-0.38
-0.40
-0.40
-0.37
-0.23
0.05
0.42
0.78
1.01
1.04
0.88
0.58
0.28
0.08
0.03
0.11
0.27
0.43
0.53
0.54
0.48
0.36
0.20
0.03
-0.15
-0.32
-0.49
-0.61
-0.64
-0.54
-0.30
0.05
0.43
0.73
0.88
0.86
0.71
0.49
0.23
-0.06
-0.40
-0.74
-1.01
-1.13
-1.01
-0.69
-0.28
0.07
0.22
0.18
-0.01
-0.23
-0.37
-0.38
-0.30
-0.18
-0.10
-0.14
-0.32
-0.59
-0.85
-0.98
-0.91
-0.67
-0.36
-0.13
-0.05
-0.09
-0.14
-0.07
0.20
0.60
0.99
1.22
1.23
1.04
0.75
0.48
0.29
0.18
0.07
-0.06
-0.25
-0.45
-0.62
-0.70
-0.66
-0.52
-0.35
-0.21
-0.14
-0.14
-0.19
-0.23
-0.22
-0.17
-0.11
-0.09
-0.15
-0.30
-0.50
-0.70
-0.83
-0.85
-0.74
-0.53
-0.30
-0.17
-0.23
-0.53
-0.99
-1.45
-1.71
-1.65
-1.28
-0.71
-0.11
0.38
0.69
0.83
0.83
0.73
0.56
0.39
0.31
0.37
0.54
0.71
0.73
0.54
0.21
-0.07
-0.06
0.29
0.86
1.37
1.52
1.17
0.44
-0.41
-1.07
-1.34
-1.18
-0.74
-0.23
0.13
0.20
-0.00
-0.39
-0.82
-1.14
-1.30
-1.29
-1.16
-0.94
-0.66
-0.34
0.00
0.35
0.65
0.83
0.87
0.77
0.56
0.33
0.19
0.20
0.41
0.74
1.07
1.26
1.20
0.91
0.49
0.11
-0.10
-0.08
0.12
0.41
0.67
0.84
0.89
0.85
0.70
0.44
0.06
-0.41
-0.86
-1.17
-1.26
-1.13
-0.89
-0.67
-0.58
-0.64
-0.72
-0.70
-0.50
-0.17
0.15
0.29
0.20
-0.04
-0.26
-0.32
-0.19
0.05
0.30
0.45
0.52
0.57
0.69
0.89
1.10
1.22
1.17
0.97
0.68
0.39
0.15
-0.07
-0.31
-0.57
-0.82
-0.98
-0.99
-0.88
-0.75
-0.71
-0.81
-1.04
-1.30
-1.48
-1.54
-1.46
-1.28
-1.02
-0.69
-0.33
-0.00
0.20
0.25
0.18
0.11
0.15
0.35
0.65
0.91
1.03
1.00
0.90
0.82
0.78
0.77
0.74
0.68
0.60
0.56
0.57
0.62
0.64
0.58
0.45
0.28
0.09
-0.09
-0.28
-0.47
-0.64
-0.76
-0.80
-0.78
-0.76
-0.82
-1.01
-1.33
-1.71
-2.05
-2.28
-2.33
-2.20
-1.89
-1.45
-0.90
-0.30
0.28
0.78
1.15
1.40
1.57
1.68
1.76
1.78
1.71
1.51
1.20
0.85
0.55
0.34
0.24
0.24
0.29
0.35
0.39
0.40
0.38
0.31
0.20
0.07
-0.03
-0.07
0.00
0.18
0.40
0.57
0.60
0.44
0.15
-0.19
-0.45
-0.56
-0.54
-0.45
-0.38
-0.37
-0.43
-0.49
-0.48
-0.38
-0.19
0.04
0.25
0.37
0.37
0.28
0.13
-0.02
-0.13
-0.21
-0.26
-0.26
-0.21
-0.07
0.18
0.52
0.87
1.12
1.18
1.03
0.72
0.39
0.14
0.04
0.06
0.12
0.09
-0.07
-0.34
-0.64
-0.84
-0.85
-0.63
-0.23
0.24
0.64
0.85
0.80
0.50
0.05
-0.41
-0.74
-0.85
-0.73
-0.49
-0.24
-0.11
-0.19
-0.48
-0.92
-1.38
-1.72
-1.83
-1.66
-1.25
-0.68
-0.08
0.43
0.78
0.92
0.89
0.71
0.46
0.21
0.00
-0.11
-0.11
0.00
0.22
0.51
0.85
1.19
1.47
1.64
1.64
1.44
1.05
0.55
0.04
-0.39
-0.69
-0.86
-0.93
-0.96
-0.93
-0.83
-0.61
-0.30
0.03
0.23
0.22
-0.03
-0.41
-0.79
-1.01
-1.01
-0.80
-0.51
-0.27
-0.19
-0.29
-0.50
-0.70
-0.80
-0.76
-0.62
-0.45
-0.32
-0.23
-0.13
0.06
0.38
0.78
1.16
1.38
1.39
1.18
0.87
0.55
0.31
0.18
0.13
0.12
0.11
0.09
0.05
-0.01
-0.08
-0.21
-0.39
-0.63
-0.88
-1.10
-1.21
-1.20
-1.05
-0.85
-0.68
-0.63
-0.70
-0.86
-1.02
-1.16
-1.27
-1.42
-1.64
-1.93
-2.23
-2.49
-2.68
-2.84
-2.98
-3.10
-3.16
-3.09
-2.82
-2.33
-1.65
-0.85
-0.04
0.69
1.29
1.75
2.12
2.46
2.79
3.09
3.29
3.29
3.10
2.79
2.48
2.28
2.19
2.14
1.98
1.66
1.23
0.82
0.56
0.54
0.72
0.97
1.22
1.41
1.58
1.80
2.09
2.37
2.53
2.43
2.04
1.45
0.81
0.24
-0.22
-0.57
-0.87
-1.09
-1.20
-1.16
-1.00
-0.81
-0.73
-0.85
-1.13
-1.41
-1.51
-1.30
-0.79
-0.10
0.57
1.07
1.31
1.32
1.17
0.96
0.79
0.68
0.65
0.65
0.61
0.49
0.26
-0.05
-0.39
-0.68
-0.83
-0.77
-0.52
-0.15
0.21
0.44
0.47
0.33
0.09
-0.14
-0.30
-0.38
-0.41
-0.46
-0.55
-0.65
-0.72
-0.67
-0.46
-0.13
0.21
0.40
0.34
0.03
-0.40
-0.76
-0.91
-0.82
-0.59
-0.37
-0.26
-0.25
-0.27
-0.23
-0.10
0.09
0.25
0.35
0.40
0.44
0.49
0.56
0.59
0.55
0.46
0.35
0.28
0.30
0.37
0.46
0.50
0.50
0.48
0.49
0.55
0.62
0.65
0.56
0.38
0.14
-0.07
-0.19
-0.25
-0.28
-0.33
-0.42
-0.53
-0.60
-0.63
-0.62
-0.61
-0.63
-0.69
-0.78
-0.86
-0.89
-0.85
-0.74
-0.57
-0.35
-0.09
0.19
0.47
0.68
0.76
0.65
0.33
-0.11
-0.51
-0.73
-0.64
-0.27
0.24
0.71
0.95
0.92
0.67
0.34
0.07
-0.07
-0.05
0.07
0.25
0.39
0.45
0.36
0.10
-0.29
-0.71
-1.02
-1.13
-1.00
-0.72
-0.37
-0.09
0.05
0.02
-0.14
-0.40
-0.69
-0.95
-1.08
-1.01
-0.72
-0.21
0.39
0.94
1.29
1.35
1.12
0.68
0.19
-0.20
-0.40
-0.40
-0.26
-0.07
0.10
0.19
0.17
0.05
-0.17
-0.44
-0.67
-0.76
-0.68
-0.44
-0.16
0.03
0.04
-0.13
-0.42
-0.68
-0.84
-0.84
-0.75
-0.64
-0.53
-0.45
-0.38
-0.33
-0.33
-0.43
-0.64
-0.88
-1.04
-0.98
-0.61
0.03
0.82
1.55
2.07
2.29
2.23
1.98
1.65
1.33
1.08
0.88
0.71
0.52
0.33
0.15
0.04
0.05
0.15
0.29
0.37
0.34
0.21
0.05
-0.05
-0.09
-0.11
-0.20
-0.41
-0.71
-0.99
-1.12
-1.04
-0.82
-0.61
-0.52
-0.55
-0.60
-0.56
-0.35
-0.06
0.15
0.14
-0.11
-0.48
-0.76
-0.78
-0.52
-0.09
0.28
0.42
0.29
-0.03
-0.36
-0.54
-0.49
-0.23
0.13
0.47
0.68
0.73
0.64
0.44
0.20
-0.03
-0.23
-0.41
-0.60
-0.80
-0.99
-1.14
-1.21
-1.20
-1.16
-1.17
-1.27
-1.46
-1.69
-1.87
-1.99
-2.06
-2.14
-2.26
-2.42
-2.54
-2.53
-2.34
-1.93
-1.33
-0.58
0.23
1.07
1.89
2.63
3.25
3.67
3.82
3.65
3.19
2.58
1.99
1.60
1.48
1.60
1.80
1.92
1.86
1.64
1.38
1.19
1.13
1.16
1.21
1.19
1.10
0.97
0.85
0.78
0.71
0.62
0.47
0.28
0.07
-0.13
-0.31
-0.49
-0.65
-0.73
-0.68
-0.46
-0.07
0.41
0.85
1.15
1.25
1.15
0.91
0.60
0.26
-0.05
-0.30
-0.47
-0.51
-0.44
-0.23
0.09
0.51
0.96
1.31
1.45
1.33
0.97
0.50
0.09
-0.17
-0.24
-0.20
-0.18
-0.28
-0.55
-0.96
-1.46
-1.95
-2.36
-2.60
-2.65
-2.51
-2.25
-1.91
-1.52
-1.08
-0.60
-0.10
0.33
0.62
0.70
0.59
0.39
0.22
0.16
0.22
0.34
0.47
0.54
0.57
0.60
0.67
0.77
0.86
0.89
0.82
0.67
0.50
0.36
0.29
0.26
0.22
0.13
-0.03
-0.24
-0.45
-0.65
-0.82
-0.96
-1.06
-1.10
-1.06
-0.92
-0.71
-0.49
-0.32
-0.23
-0.20
-0.18
-0.11
0.01
0.11
0.14
0.03
-0.19
-0.43
-0.58
-0.54
-0.26
0.23
0.87
1.59
2.28
2.82
3.04
2.83
2.15
1.12
-0.04
-1.08
-1.85
-2.32
-2.58
-2.75
-2.86
-2.90
-2.80
-2.55
-2.20
-1.82
-1.49
-1.21
-0.93
-0.54
-0.00
0.64
1.27
1.74
1.92
1.83
1.54
1.19
0.87
0.63
0.42
0.23
0.10
0.14
0.46
1.05
1.77
2.40
2.71
2.61
2.19
1.66
1.19
0.86
0.62
0.33
-0.10
-0.66
-1.20
-1.53
-1.51
-1.19
-0.73
-0.38
-0.31
-0.55
-0.92
-1.20
-1.17
-0.78
-0.15
0.53
1.06
1.35
1.42
1.35
1.21
1.05
0.89
0.77
0.69
0.70
0.77
0.85
0.86
0.73
0.47
0.11
-0.22
-0.45
-0.53
-0.50
-0.44
-0.44
-0.55
-0.76
-1.00
-1.17
-1.19
-1.02
-0.72
-0.39
-0.14
-0.05
-0.13
-0.34
-0.60
-0.83
-1.00
-1.08
-1.06
-0.92
-0.66
-0.30
0.10
0.47
0.73
0.84
0.82
0.71
0.55
0.40
0.28
0.22
0.22
0.29
0.44
0.64
0.89
1.14
1.36
1.54
1.63
1.60
1.42
1.07
0.55
-0.05
-0.67
-1.19
-1.54
-1.68
-1.62
-1.38
-1.01
-0.58
-0.15
0.18
0.38
0.43
0.37
0.28
0.22
0.22
0.23
0.20
0.12
0.01
-0.06
-0.06
0.01
0.03
-0.06
-0.30
-0.63
-0.91
-1.01
-0.90
-0.64
-0.35
-0.12
0.02
0.13
0.26
0.44
0.58
0.61
0.48
0.20
-0.13
-0.36
-0.43
-0.33
-0.12
0.13
0.34
0.44
0.38
0.16
-0.19
-0.57
-0.88
-1.00
-0.93
-0.66
-0.26
0.23
0.78
1.36
1.90
2.27
2.39
2.22
1.85
1.44
1.13
1.01
1.06
1.19
1.23
1.10
0.74
0.22
-0.38
-0.95
-1.40
-1.71
-1.87
-1.91
-1.88
-1.80
-1.68
-1.52
-1.33
-1.12
-0.94
-0.82
-0.78
-0.83
-0.92
-1.01
-1.04
-0.99
-0.86
-0.67
-0.49
-0.41
-0.49
-0.77
-1.24
-1.82
-2.43
-2.93
-3.20
-3.18
-2.81
-2.15
-1.29
-0.39
0.39
0.90
1.10
1.06
0.96
0.97
1.15
1.46
1.72
1.78
1.54
1.06
0.45
-0.09
-0.47
-0.62
-0.59
-0.42
-0.21
-0.02
0.10
0.13
0.11
0.06
0.01
-0.04
-0.15
-0.35
-0.63
-0.91
-1.08
-1.05
-0.83
-0.52
-0.22
-0.02
0.09
0.18
0.31
0.46
0.56
0.53
0.33
0.05
-0.17
-0.21
-0.05
0.23
0.46
0.49
0.29
-0.07
-0.40
-0.56
-0.46
-0.15
0.25
0.56
0.64
0.47
0.10
-0.36
-0.79
-1.09
-1.21
-1.17
-0.99
-0.77
-0.57
-0.45
-0.41
-0.37
-0.28
-0.09
0.19
0.50
0.73
0.83
0.80
0.67
0.51
0.36
0.21
0.04
-0.15
-0.32
-0.44
-0.48
-0.41
-0.23
0.05
0.40
0.75
1.00
1.04
0.83
0.43
-0.02
-0.37
-0.51
-0.43
-0.23
-0.01
0.16
0.25
0.26
0.17
-0.05
-0.39
-0.79
-1.14
-1.34
-1.31
-1.09
-0.78
-0.48
-0.31
-0.30
-0.43
-0.68
-0.97
-1.24
-1.45
-1.57
-1.61
-1.62
-1.63
-1.65
-1.69
-1.68
-1.59
-1.40
-1.10
-0.73
-0.35
0.02
0.39
0.83
1.34
1.92
2.49
2.92
3.16
3.20
3.14
3.07
3.07
3.10
3.10
3.01
2.79
2.51
2.21
1.91
1.55
1.07
0.47
-0.14
-0.60
-0.77
-0.64
-0.30
0.06
0.27
0.30
0.20
0.07
-0.03
-0.08
-0.09
-0.08
-0.06
-0.03
-0.04
-0.14
-0.33
-0.56
-0.72
-0.72
-0.59
-0.39
-0.24
-0.16
-0.10
0.04
0.28
0.57
0.78
0.80
0.65
0.42
0.26
0.24
0.33
0.44
0.48
0.41
0.26
0.10
-0.05
-0.22
-0.46
-0.75
-1.03
-1.18
-1.13
-0.88
-0.55
-0.31
-0.27
-0.44
-0.70
-0.87
-0.81
-0.47
0.08
0.67
1.15
1.43
1.48
1.35
1.13
0.88
0.65
0.43
0.20
-0.05
-0.28
-0.42
-0.42
-0.26
-0.03
0.22
0.40
0.50
0.54
0.57
0.55
0.44
0.21
-0.12
-0.48
-0.73
-0.81
-0.70
-0.48
-0.26
-0.12
-0.08
-0.11
-0.16
-0.21
-0.26
-0.31
-0.38
-0.43
-0.43
-0.33
-0.15
0.07
0.29
0.46
0.59
0.68
0.78
0.89
1.01
1.10
1.13
1.08
0.96
0.84
0.75
0.71
0.69
0.62
0.48
0.34
0.25
0.30
0.51
0.77
0.96
0.97
0.75
0.38
-0.04
-0.39
-0.64
-0.77
-0.80
-0.79
-0.80
-0.88
-1.05
-1.28
-1.47
-1.50
-1.28
-0.83
-0.25
0.29
0.64
0.72
0.57
0.27
-0.08
-0.39
-0.60
-0.67
-0.57
-0.30
0.10
0.54
0.87
0.99
0.82
0.40
-0.16
-0.73
-1.20
-1.52
-1.71
-1.77
-1.71
-1.54
-1.26
-0.91
-0.55
-0.23
0.06
0.32
0.60
0.90
1.18
1.38
1.42
1.27
0.96
0.57
0.23
0.04
0.06
0.26
0.57
0.88
1.07
1.12
1.05
0.89
0.69
0.49
0.28
0.09
-0.06
-0.13
-0.10
0.01
0.12
0.15
0.07
-0.09
-0.25
-0.34
-0.32
-0.25
-0.21
-0.27
-0.47
-0.77
-1.09
-1.32
-1.34
-1.07
-0.51
0.21
0.88
1.26
1.19
0.71
0.03
-0.58
-0.91
-0.95
-0.81
-0.64
-0.52
-0.40
-0.16
0.23
0.70
1.08
1.21
1.03
0.65
0.25
-0.01
-0.05
0.08
0.26
0.39
0.43
0.40
0.37
0.38
0.44
0.49
0.47
0.34
0.08
-0.26
-0.60
-0.85
-0.97
-0.93
-0.78
-0.57
-0.33
-0.13
0.00
0.05
-0.01
-0.16
-0.37
-0.60
-0.80
-0.94
-1.00
-0.97
-0.86
-0.69
-0.46
-0.16
0.17
0.48
0.70
0.78
0.68
0.42
0.10
-0.17
-0.28
-0.21
0.02
0.32
0.61
0.83
0.93
0.89
0.72
0.42
0.03
-0.36
-0.64
-0.70
-0.54
-0.21
0.14
0.38
0.39
0.20
-0.15
-0.50
-0.74
-0.80
-0.70
-0.53
-0.38
-0.33
-0.41
-0.57
-0.74
-0.85
-0.88
-0.84
-0.74
-0.64
-0.54
-0.44
-0.33
-0.23
-0.13
-0.05
0.02
0.13
0.27
0.42
0.54
0.57
0.50
0.35
0.18
0.07
0.08
0.23
0.47
0.77
1.04
1.25
1.36
1.36
1.25
1.06
0.86
0.70
0.64
0.65
0.69
0.65
0.49
0.20
-0.16
-0.49
-0.73
-0.83
-0.85
-0.83
-0.82
-0.86
-0.90
-0.92
-0.86
-0.73
-0.59
-0.51
-0.55
-0.72
-0.96
-1.12
-1.06
-0.68
-0.03
0.73
1.40
1.76
1.73
1.34
0.73
0.10
-0.37
-0.58
-0.49
-0.16
0.26
0.64
0.85
0.85
0.68
0.44
0.23
0.09
0.02
-0.02
-0.05
-0.07
-0.09
-0.10
-0.13
-0.23
-0.44
-0.78
-1.18
-1.56
-1.80
-1.86
-1.74
-1.51
-1.30
-1.18
-1.19
-1.30
-1.42
-1.49
-1.47
-1.40
-1.31
-1.25
-1.25
-1.31
-1.42
-1.56
-1.71
-1.83
-1.86
-1.76
-1.51
-1.14
-0.69
-0.21
0.29
0.78
1.26
1.73
2.16
2.49
2.68
2.67
2.44
2.04
1.56
1.15
0.89
0.85
0.99
1.22
1.39
1.42
1.28
1.01
0.73
0.52
0.45
0.50
0.57
0.57
0.46
0.26
0.08
0.04
0.17
0.45
0.76
0.95
0.96
0.77
0.46
0.11
-0.17
-0.33
-0.32
-0.15
0.14
0.50
0.82
1.01
0.98
0.72
0.30
-0.15
-0.45
-0.51
-0.31
0.05
0.38
0.49
0.33
-0.06
-0.50
-0.83
-0.98
-0.97
-0.91
-0.89
-0.88
-0.84
-0.67
-0.38
-0.05
0.20
0.28
0.18
-0.04
-0.27
-0.43
-0.47
-0.36
-0.10
0.28
0.72
1.11
1.34
1.33
1.12
0.81
0.57
0.51
0.66
0.96
1.26
1.44
1.43
1.24
0.93
0.58
0.22
-0.13
-0.44
-0.68
-0.78
-0.72
-0.53
-0.30
-0.14
-0.13
-0.26
-0.43
-0.57
-0.61
-0.60
-0.61
-0.69
-0.84
-0.99
-1.08
-1.08
-0.99
-0.83
-0.62
-0.34
0.00
0.39
0.77
1.10
1.32
1.46
1.51
1.49
1.36
1.09
0.68
0.17
-0.32
-0.66
-0.78
-0.69
-0.46
-0.21
-0.05
-0.01
-0.06
-0.14
-0.20
-0.23
-0.24
-0.26
-0.32
-0.43
-0.59
-0.77
-0.89
-0.87
-0.66
-0.28
0.14
0.46
0.56
0.38
0.03
-0.35
-0.62
-0.71
-0.66
-0.53
-0.38
-0.25
-0.11
0.05
0.21
0.32
0.36
0.29
0.16
-0.02
-0.19
-0.31
-0.38
-0.38
-0.29
-0.12
0.13
0.41
0.67
0.82
0.80
0.58
0.17
-0.32
-0.77
-1.05
-1.07
-0.87
-0.54
-0.25
-0.12
-0.20
-0.44
-0.73
-0.98
-1.13
-1.19
-1.19
-1.15
-1.05
-0.87
-0.58
-0.21
0.18
0.50
0.70
0.75
0.71
0.63
0.58
0.58
0.64
0.73
0.83
0.87
0.82
0.67
0.46
0.25
0.10
0.02
-0.04
-0.15
-0.37
-0.68
-0.95
-1.02
-0.83
-0.40
0.09
0.44
0.52
0.35
0.05
-0.19
-0.28
-0.20
-0.05
0.07
0.11
0.07
-0.05
-0.25
-0.50
-0.80
-1.06
-1.16
-1.00
-0.58
0.01
0.63
1.14
1.46
1.59
1.56
1.38
1.09
0.69
0.29
-0.00
-0.06
0.15
0.57
1.05
1.43
1.61
1.57
1.33
0.94
0.45
-0.07
-0.55
-0.87
-0.99
-0.91
-0.74
-0.61
-0.62
-0.76
-0.93
-1.02
-0.98
-0.88
-0.84
-0.93
-1.15
-1.38
-1.51
-1.45
-1.22
-0.89
-0.55
-0.24
0.04
0.31
0.56
0.79
0.97
1.11
1.22
1.33
1.44
1.52
1.54
1.46
1.31
1.09
0.82
0.51
0.20
-0.07
-0.21
-0.17
0.01
0.25
0.43
0.47
0.37
0.20
0.11
0.15
0.33
0.53
0.62
0.53
0.28
-0.03
-0.27
-0.36
-0.31
-0.21
-0.12
-0.10
-0.13
-0.18
-0.21
-0.24
-0.27
-0.28
-0.20
0.02
0.37
0.75
1.00
0.98
0.68
0.20
-0.28
-0.61
-0.74
-0.70
-0.58
-0.45
-0.34
-0.22
-0.09
0.01
0.04
-0.05
-0.26
-0.56
-0.87
-1.13
-1.28
-1.30
-1.25
-1.16
-1.14
-1.23
-1.45
-1.73
-2.02
-2.25
-2.41
-2.56
-2.73
-2.91
-3.02
-2.98
-2.72
-2.28
-1.76
-1.29
-0.90
-0.55
-0.16
0.35
0.99
1.65
2.24
2.65
2.86
2.86
2.72
2.47
2.14
1.80
1.48
1.24
1.08
0.97
0.92
0.91
0.97
1.12
1.30
1.41
1.35
1.05
0.58
0.09
-0.25
-0.33
-0.21
-0.04
0.02
-0.10
-0.38
-0.70
-0.97
-1.14
-1.23
-1.26
-1.19
-0.99
-0.62
-0.13
0.36
0.69
0.80
0.73
0.60
0.57
0.73
1.02
1.31
1.45
1.34
1.00
0.53
0.08
-0.19
-0.23
-0.05
0.23
0.45
0.52
0.41
0.21
0.00
-0.14
-0.22
-0.31
-0.46
-0.66
-0.86
-0.95
-0.86
-0.59
-0.20
0.16
0.39
0.40
0.18
-0.18
-0.57
-0.88
-1.02
-0.94
-0.66
-0.23
0.28
0.74
1.06
1.16
1.03
0.74
0.38
0.09
-0.05
-0.08
-0.02
0.04
0.11
0.20
0.31
0.43
0.50
0.48
0.36
0.18
-0.00
-0.13
-0.22
-0.27
-0.31
-0.33
-0.29
-0.16
0.06
0.31
0.52
0.62
0.57
0.35
0.04
-0.27
-0.46
-0.48
-0.35
-0.14
0.01
0.05
0.01
-0.05
-0.02
0.10
0.27
0.38
0.39
0.32
0.25
0.25
0.31
0.40
0.47
0.52
0.59
0.70
0.85
0.94
0.90
0.71
0.43
0.22
0.15
0.22
0.30
0.24
-0.03
-0.43
-0.80
-0.99
-0.97
-0.81
-0.65
-0.59
-0.65
-0.75
-0.76
-0.63
-0.36
-0.06
0.13
0.15
-0.01
-0.25
-0.43
-0.43
-0.22
0.14
0.53
0.81
0.96
0.96
0.87
0.71
0.45
0.06
-0.43
-0.90
-1.18
-1.14
-0.76
-0.16
0.47
0.91
1.05
0.89
0.53
0.14
-0.19
-0.43
-0.59
-0.75
-0.93
-1.12
-1.27
-1.31
-1.20
-0.98
-0.72
-0.50
-0.33
-0.20
-0.04
0.20
0.50
0.78
0.95
0.98
0.88
0.76
0.69
0.70
0.74
0.72
0.60
0.41
0.24
0.22
0.37
0.65
0.91
1.05
1.05
0.97
0.93
1.00
1.17
1.32
1.34
1.15
0.81
0.47
0.32
0.48
0.91
1.46
1.88
1.96
1.60
0.85
-0.15
-1.21
-2.23
-3.17
-4.06
-4.95
-5.85
-6.72
-7.48
-8.01
-8.21
-8.02
-7.44
-6.57
-5.55
-4.58
-3.79
-3.20
-2.72
-2.18
-1.43
-0.45
0.70
1.86
2.90
3.77
4.51
5.20
5.86
6.47
6.96
7.29
7.48
7.60
7.72
7.84
7.89
7.77
7.41
6.79
6.00
5.17
4.38
3.68
3.02
2.31
1.45
0.40
-0.81
-2.10
-3.37
-4.50
-5.43
-6.13
-6.57
-6.77
-6.74
-6.51
-6.12
-5.63
-5.05
-4.38
-3.59
-2.63
-1.50
-0.23
1.12
2.45
3.69
4.73
5.51
5.97
6.07
5.84
5.35
4.75
4.19
3.77
3.58
3.57
3.65
3.72
3.67
3.45
3.08
2.60
2.03
1.37
0.53
-0.54
-1.87
-3.36
-4.80
-6.01
-6.84
-7.29
-7.40
-7.25
-6.86
-6.22
-5.36
-4.39
-3.49
-2.83
-2.47
-2.30
-2.15
-1.85
-1.35
-0.72
-0.11
0.34
0.57
0.57
0.43
0.26
0.16
0.15
0.22
0.30
0.28
0.12
-0.16
-0.46
-0.69
-0.77
-0.71
-0.54
-0.32
-0.08
0.17
0.36
0.46
0.43
0.30
0.15
0.06
0.08
0.15
0.17
0.06
-0.16
-0.38
-0.46
-0.32
0.03
0.45
0.82
1.02
1.04
0.93
0.78
0.63
0.50
0.36
0.24
0.12
0.03
0.02
0.07
0.19
0.34
0.48
0.55
0.53
0.41
0.24
0.09
0.02
0.04
0.11
0.17
0.17
0.13
0.08
0.04
0.02
-0.04
-0.15
-0.32
-0.52
-0.67
-0.76
-0.80
-0.80
-0.79
-0.73
-0.55
-0.23
0.23
0.71
1.09
1.26
1.18
0.93
0.60
0.30
0.08
-0.02
-0.05
-0.00
0.14
0.39
0.73
1.11
1.43
1.60
1.59
1.41
1.15
0.85
0.54
0.22
-0.10
-0.37
-0.53
-0.50
-0.28
0.08
0.44
0.66
0.64
0.38
-0.04
-0.47
-0.75
-0.80
-0.61
-0.31
-0.04
0.07
-0.03
-0.27
-0.53
-0.70
-0.72
-0.57
-0.32
-0.00
0.33
0.63
0.86
0.96
0.90
0.67
0.35
0.05
-0.13
-0.12
0.06
0.32
0.57
0.74
0.78
0.70
0.53
0.32
0.10
-0.10
-0.26
-0.38
-0.45
-0.49
-0.48
-0.45
-0.44
-0.51
-0.68
-0.97
-1.30
-1.57
-1.68
-1.61
-1.38
-1.04
-0.64
-0.21
0.22
0.57
0.78
0.74
0.43
-0.05
-0.56
-0.94
-1.06
-0.93
-0.62
-0.21
0.19
0.55
0.81
0.99
1.08
1.07
0.97
0.82
0.64
0.47
0.37
0.37
0.43
0.50
0.52
0.42
0.22
-0.05
-0.34
-0.59
-0.81
-0.98
-1.09
-1.09
-0.96
-0.72
-0.46
-0.28
-0.26
-0.37
-0.55
-0.70
-0.77
-0.78
-0.78
-0.81
-0.83
-0.76
-0.50
-0.02
0.63
1.30
1.83
2.10
2.08
1.83
1.47
1.09
0.78
0.54
0.39
0.32
0.34
0.45
0.58
0.64
0.57
0.35
0.04
-0.25
-0.43
-0.48
-0.43
-0.36
-0.30
-0.28
-0.26
-0.27
-0.34
-0.47
-0.63
-0.77
-0.82
-0.76
-0.65
-0.58
-0.62
-0.73
-0.86
-0.89
-0.78
-0.51
-0.15
0.25
0.66
1.01
1.27
1.39
1.35
1.18
0.95
0.78
0.70
0.72
0.80
0.88
0.93
0.96
0.97
0.92
0.78
0.48
0.06
-0.38
-0.68
-0.74
-0.55
-0.22
0.07
0.21
0.15
-0.05
-0.28
-0.46
-0.59
-0.70
-0.85
-1.07
-1.32
-1.50
-1.55
-1.42
-1.14
-0.75
-0.32
0.12
0.54
0.90
1.14
1.22
1.12
0.90
0.65
0.46
0.37
0.37
0.40
0.39
0.33
0.20
0.00
-0.23
-0.47
-0.66
-0.76
-0.75
-0.65
-0.53
-0.49
-0.57
-0.78
-1.07
-1.35
-1.55
-1.62
-1.60
-1.55
-1.61
-1.85
-2.31
-2.90
-3.47
-3.85
-3.91
-3.68
-3.25
-2.76
-2.27
-1.78
-1.22
-0.51
0.30
1.12
1.77
2.15
2.25
2.18
2.07
2.06
2.18
2.38
2.58
2.71
2.76
2.74
2.69
2.67
2.70
2.77
2.81
2.74
2.51
2.09
1.57
1.06
0.70
0.52
0.49
0.50
0.48
0.40
0.33
0.30
0.28
0.18
-0.04
-0.39
-0.76
-0.99
-0.99
-0.81
-0.56
-0.39
-0.35
-0.39
-0.36
-0.18
0.17
0.57
0.86
0.95
0.86
0.68
0.57
0.57
0.67
0.77
0.73
0.53
0.20
-0.14
-0.38
-0.46
-0.40
-0.28
-0.18
-0.15
-0.19
-0.24
-0.26
-0.21
-0.09
0.06
0.19
0.22
0.14
-0.05
-0.31
-0.59
-0.82
-0.94
-0.93
-0.80
-0.61
-0.43
-0.32
-0.34
-0.48
-0.66
-0.76
-0.69
-0.39
0.08
0.60
1.05
1.34
1.48
1.52
1.51
1.44
1.26
0.95
0.54
0.15
-0.07
-0.07
0.10
0.29
0.37
0.27
0.04
-0.24
-0.50
-0.70
-0.85
-0.95
-0.98
-0.92
-0.77
-0.61
-0.54
-0.59
-0.73
-0.85
-0.87
-0.73
-0.47
-0.19
0.03
0.12
0.08
-0.07
-0.27
-0.42
-0.45
-0.31
-0.03
0.27
0.49
0.52
0.40
0.23
0.14
0.17
0.29
0.39
0.38
0.23
0.03
-0.11
-0.11
0.01
0.18
0.27
0.25
0.12
-0.02
-0.13
-0.20
-0.29
-0.47
-0.76
-1.13
-1.46
-1.64
-1.58
-1.31
-0.91
-0.50
-0.21
-0.13
-0.29
-0.64
-1.09
-1.46
-1.64
-1.53
-1.13
-0.55
0.09
0.67
1.11
1.36
1.44
1.39
1.23
1.02
0.84
0.72
0.70
0.72
0.71
0.64
0.52
0.44
0.46
0.59
0.71
0.68
0.42
-0.03
-0.52
-0.85
-0.91
-0.75
-0.49
-0.30
-0.25
-0.30
-0.40
-0.48
-0.56
-0.68
-0.84
-0.98
-1.04
-0.96
-0.78
-0.58
-0.40
-0.27
-0.15
0.02
0.28
0.59
0.92
1.17
1.30
1.31
1.22
1.09
1.00
1.00
1.12
1.30
1.42
1.37
1.06
0.55
-0.02
-0.45
-0.63
-0.55
-0.33
-0.11
-0.00
-0.01
-0.10
-0.21
-0.31
-0.40
-0.47
-0.48
-0.39
-0.16
0.15
0.43
0.54
0.37
-0.05
-0.57
-1.01
-1.18
-1.02
-0.62
-0.14
0.25
0.49
0.63
0.77
1.00
1.30
1.55
1.59
1.34
0.86
0.33
-0.09
-0.29
-0.31
-0.27
-0.27
-0.31
-0.31
-0.19
0.08
0.42
0.67
0.68
0.43
-0.04
-0.56
-0.99
-1.23
-1.26
-1.15
-0.97
-0.80
-0.70
-0.65
-0.63
-0.61
-0.57
-0.54
-0.55
-0.60
-0.68
-0.77
-0.81
-0.82
-0.79
-0.74
-0.67
-0.52
-0.25
0.13
0.58
0.97
1.16
1.08
0.76
0.32
-0.08
-0.31
-0.33
-0.19
0.00
0.14
0.14
0.03
-0.15
-0.31
-0.39
-0.40
-0.39
-0.47
-0.67
-0.99
-1.35
-1.63
-1.76
-1.75
-1.70
-1.75
-1.98
-2.36
-2.76
-3.02
-3.02
-2.74
-2.23
-1.60
-0.91
-0.21
0.48
1.14
1.74
2.23
2.60
2.83
2.92
2.84
2.60
2.24
1.82
1.45
1.20
1.13
1.20
1.36
1.52
1.63
1.62
1.50
1.28
1.03
0.81
0.67
0.61
0.56
0.43
0.18
-0.13
-0.37
-0.43
-0.28
0.02
0.33
0.51
0.50
0.33
0.09
-0.16
-0.41
-0.68
-0.97
-1.17
-1.17
-0.86
-0.27
0.46
1.11
1.46
1.44
1.12
0.65
0.22
-0.09
-0.27
-0.35
-0.34
-0.23
0.00
0.35
0.72
1.01
1.09
0.93
0.61
0.27
0.01
-0.09
-0.06
0.02
0.07
0.06
-0.02
-0.14
-0.27
-0.39
-0.47
-0.52
-0.53
-0.54
-0.57
-0.65
-0.79
-0.98
-1.19
-1.40
-1.57
-1.68
-1.64
-1.41
-0.97
-0.38
0.21
0.63
0.80
0.72
0.54
0.44
0.52
0.76
1.04
1.21
1.19
1.01
0.78
0.60
0.50
0.46
0.40
0.28
0.14
0.03
0.00
0.03
0.05
0.00
-0.10
-0.18
-0.15
0.02
0.27
0.48
0.52
0.34
-0.01
-0.42
-0.77
-0.98
-1.05
-1.05
-1.05
-1.11
-1.23
-1.37
-1.41
-1.28
-0.94
-0.46
0.06
0.47
0.71
0.79
0.82
0.85
0.90
0.89
0.72
0.38
-0.04
-0.30
-0.24
0.16
0.75
1.26
1.46
1.27
0.82
0.29
-0.14
-0.40
-0.54
-0.60
-0.62
-0.58
-0.44
-0.23
-0.03
0.02
-0.13
-0.43
-0.72
-0.85
-0.75
-0.48
-0.22
-0.15
-0.33
-0.66
-0.97
-1.06
-0.87
-0.48
-0.02
0.37
0.63
0.80
0.93
1.11
1.33
1.56
1.72
1.76
1.70
1.56
1.44
1.39
1.43
1.48
1.43
1.19
0.74
0.20
-0.27
-0.53
-0.53
-0.38
-0.23
-0.20
-0.30
-0.45
-0.54
-0.51
-0.42
-0.38
-0.46
-0.63
-0.76
-0.74
-0.55
-0.31
-0.21
-0.38
-0.78
-1.26
-1.58
-1.58
-1.25
-0.72
-0.18
0.23
0.42
0.43
0.33
0.22
0.13
0.05
-0.09
-0.33
-0.66
-1.00
-1.18
-1.09
-0.70
-0.12
0.44
0.80
0.86
0.61
0.16
-0.40
-0.96
-1.45
-1.80
-1.96
-1.92
-1.71
-1.43
-1.23
-1.26
-1.58
-2.16
-2.82
-3.37
-3.64
-3.56
-3.19
-2.64
-2.06
-1.55
-1.10
-0.67
-0.21
0.30
0.86
1.40
1.91
2.36
2.72
2.97
3.08
3.02
2.80
2.47
2.09
1.74
1.48
1.32
1.27
1.32
1.43
1.57
1.68
1.67
1.47
1.08
0.56
0.04
-0.36
-0.55
-0.54
-0.37
-0.16
0.03
0.17
0.26
0.29
0.22
0.02
-0.31
-0.70
-0.98
-1.03
-0.76
-0.24
0.37
0.88
1.19
1.28
1.25
1.20
1.20
1.26
1.28
1.21
1.02
0.72
0.39
0.10
-0.11
-0.21
-0.25
-0.27
-0.29
-0.35
-0.48
-0.66
-0.86
-1.02
-1.06
-0.97
-0.75
-0.50
-0.32
-0.25
-0.29
-0.37
-0.42
-0.39
-0.32
-0.25
-0.23
-0.27
-0.32
-0.31
-0.23
-0.08
0.09
0.24
0.34
0.45
0.62
0.92
1.34
1.81
2.20
2.38
2.30
2.00
1.60
1.21
0.92
0.75
0.64
0.53
0.38
0.20
-0.01
-0.18
-0.31
-0.38
-0.42
-0.47
-0.52
-0.59
-0.64
-0.68
-0.69
-0.70
-0.69
-0.65
-0.52
-0.29
0.00
0.27
0.41
0.35
0.11
-0.22
-0.53
-0.74
-0.84
-0.88
-0.91
-0.95
-0.98
-0.94
-0.75
-0.39
0.08
0.57
0.96
1.21
1.29
1.25
1.17
1.10
1.06
1.01
0.88
0.63
0.25
-0.17
-0.50
-0.61
-0.45
-0.05
0.43
0.81
0.98
0.91
0.71
0.54
0.50
0.58
0.67
0.61
0.32
-0.16
-0.73
-1.24
-1.60
-1.79
-1.87
-1.86
-1.77
-1.63
-1.45
-1.31
-1.30
-1.45
-1.69
-1.92
-2.01
-1.92
-1.65
-1.26
-0.77
-0.19
0.45
1.09
1.61
1.92
1.95
1.76
1.47
1.23
1.12
1.16
1.28
1.38
1.40
1.33
1.18
1.00
0.84
0.71
0.63
0.60
0.62
0.68
0.74
0.75
0.64
0.40
0.04
-0.44
-0.95
-1.40
-1.69
-1.72
-1.46
-0.95
-0.37
0.04
0.10
-0.24
-0.84
-1.47
-1.91
-2.08
-2.03
-1.87
-1.68
-1.46
-1.14
-0.69
-0.14
0.37
0.69
0.74
0.57
0.29
0.06
-0.02
0.07
0.27
0.51
0.74
0.91
1.02
1.05
1.03
0.98
0.94
0.93
0.97
1.05
1.12
1.10
0.97
0.70
0.37
0.03
-0.27
-0.48
-0.61
-0.65
-0.64
-0.58
-0.52
-0.46
-0.45
-0.49
-0.59
-0.73
-0.89
-1.04
-1.14
-1.18
-1.15
-1.03
-0.84
-0.58
-0.30
-0.03
0.20
0.37
0.48
0.54
0.57
0.61
0.67
0.76
0.83
0.83
0.70
0.43
0.08
-0.24
-0.42
-0.38
-0.16
0.16
0.42
0.52
0.45
0.25
0.04
-0.12
-0.21
-0.29
-0.42
-0.61
-0.81
-0.93
-0.92
-0.76
-0.55
-0.40
-0.39
-0.52
-0.71
-0.88
-0.97
-0.98
-0.96
-0.93
-0.92
-0.93
-0.96
-0.98
-0.95
-0.81
-0.49
0.04
0.70
1.37
1.88
2.09
1.93
1.48
0.91
0.42
0.18
0.27
0.63
1.08
1.41
1.46
1.20
0.76
0.35
0.11
0.05
0.09
0.07
-0.09
-0.34
-0.56
-0.60
-0.47
-0.26
-0.13
-0.20
-0.44
-0.70
-0.77
-0.57
-0.14
0.35
0.70
0.78
0.57
0.14
-0.39
-0.93
-1.39
-1.68
-1.75
-1.55
-1.12
-0.54
0.05
0.54
0.85
1.00
1.05
1.05
1.06
1.09
1.10
1.10
1.08
1.09
1.12
1.16
1.11
0.90
0.52
0.02
-0.44
-0.69
-0.63
-0.28
0.22
0.65
0.88
0.83
0.60
0.33
0.14
0.09
0.17
0.30
0.38
0.36
0.24
0.05
-0.13
-0.28
-0.39
-0.50
-0.64
-0.79
-0.90
-0.91
-0.80
-0.59
-0.38
-0.26
-0.28
-0.42
-0.62
-0.77
-0.78
-0.61
-0.29
0.14
0.59
0.96
1.18
1.22
1.11
0.91
0.68
0.47
0.30
0.18
0.14
0.20
0.32
0.47
0.57
0.56
0.43
0.23
0.06
-0.00
0.09
0.28
0.51
0.67
0.69
0.56
0.30
-0.05
-0.41
-0.72
-0.94
-1.04
-1.02
-0.88
-0.68
-0.48
-0.34
-0.33
-0.49
-0.81
-1.21
-1.61
-1.88
-1.92
-1.65
-1.04
-0.17
0.77
1.55
1.98
1.98
1.62
1.08
0.57
0.20
-0.01
-0.15
-0.28
-0.43
-0.57
-0.68
-0.77
-0.90
-1.16
-1.54
-1.97
-2.31
-2.44
-2.32
-2.04
-1.74
-1.56
-1.61
-1.85
-2.14
-2.33
-2.31
-2.08
-1.74
-1.43
-1.26
-1.23
-1.27
-1.28
-1.23
-1.17
-1.20
-1.36
-1.60
-1.76
-1.65
-1.19
-0.44
0.46
1.34
2.08
2.65
3.07
3.35
3.49
3.48
3.33
3.11
2.91
2.78
2.76
2.78
2.74
2.53
2.09
1.44
0.69
0.05
-0.31
-0.33
-0.06
0.32
0.63
0.76
0.75
0.70
0.70
0.76
0.81
0.76
0.59
0.38
0.23
0.18
0.18
0.08
-0.23
-0.73
-1.28
-1.71
-1.90
-1.89
-1.78
-1.68
-1.60
-1.45
-1.15
-0.64
-0.03
0.54
0.96
1.21
1.36
1.52
1.74
1.97
2.10
2.00
1.66
1.16
0.68
0.36
0.27
0.31
0.32
0.18
-0.16
-0.61
-1.03
-1.28
-1.31
-1.15
-0.88
-0.58
-0.32
-0.15
-0.08
-0.05
0.00
0.18
0.55
1.07
1.58
1.85
1.69
1.06
0.10
-0.93
-1.75
-2.23
-2.38
-2.30
-2.09
-1.84
-1.53
-1.17
-0.75
-0.32
0.06
0.37
0.63
0.90
1.19
1.50
1.77
1.94
1.95
1.84
1.63
1.39
1.17
0.96
0.73
0.44
0.09
-0.31
-0.68
-0.93
-1.01
-0.92
-0.76
-0.63
-0.61
-0.68
-0.72
-0.60
-0.25
0.27
0.80
1.13
1.13
0.83
0.37
-0.04
-0.24
-0.17
0.11
0.46
0.76
0.94
0.99
0.90
0.74
0.53
0.31
0.07
-0.17
-0.40
-0.55
-0.52
-0.26
0.24
0.85
1.37
1.61
1.46
1.03
0.53
0.23
0.25
0.55
0.92
1.10
0.93
0.41
-0.28
-0.93
-1.37
-1.57
-1.62
-1.65
-1.76
-1.97
-2.21
-2.38
-2.38
-2.15
-1.68
-1.03
-0.30
0.35
0.77
0.89
0.70
0.34
-0.03
-0.25
-0.28
-0.16
-0.02
0.05
0.04
0.02
0.03
0.04
-0.01
-0.19
-0.45
-0.62
-0.49
0.05
0.95
1.96
2.76
3.08
2.82
2.09
1.08
0.05
-0.77
-1.24
-1.30
-0.99
-0.46
0.13
0.59
0.79
0.72
0.44
0.04
-0.36
-0.67
-0.85
-0.85
-0.69
-0.42
-0.14
0.04
0.03
-0.19
-0.55
-0.89
-1.05
-0.96
-0.62
-0.17
0.25
0.53
0.66
0.67
0.64
0.58
0.45
0.20
-0.14
-0.53
-0.88
-1.10
-1.19
-1.21
-1.24
-1.33
-1.51
-1.73
-1.92
-1.99
-1.84
-1.41
-0.74
0.05
0.76
1.22
1.37
1.28
1.11
0.98
0.95
0.94
0.88
0.73
0.55
0.42
0.39
0.39
0.33
0.16
-0.10
-0.34
-0.42
-0.27
0.04
0.38
0.65
0.76
0.76
0.72
0.67
0.65
0.63
0.60
0.55
0.47
0.35
0.17
-0.09
-0.42
-0.76
-1.09
-1.38
-1.66
-1.94
-2.20
-2.39
-2.44
-2.30
-2.02
-1.69
-1.38
-1.16
-0.99
-0.83
-0.62
-0.33
0.01
0.39
0.76
1.07
1.27
1.34
1.31
1.24
1.21
1.27
1.40
1.51
1.48
1.26
0.88
0.43
0.06
-0.16
-0.23
-0.22
-0.19
-0.19
-0.19
-0.14
0.01
0.21
0.39
0.48
0.41
0.25
0.08
-0.02
-0.02
0.00
-0.02
-0.15
-0.36
-0.56
-0.67
-0.64
-0.47
-0.21
0.07
0.32
0.51
0.61
0.60
0.51
0.42
0.40
0.46
0.58
0.66
0.61
0.41
0.14
-0.08
-0.15
-0.03
0.22
0.49
0.66
0.66
0.49
0.23
-0.03
-0.17
-0.14
0.01
0.19
0.28
0.24
0.12
0.05
0.14
0.38
0.69
0.87
0.81
0.51
0.09
-0.29
-0.51
-0.61
-0.71
-0.89
-1.17
-1.41
-1.43
-1.15
-0.65
-0.10
0.27
0.37
0.24
0.06
-0.05
-0.03
0.06
0.11
0.05
-0.09
-0.24
-0.29
-0.20
0.01
0.28
0.53
0.75
0.87
0.86
0.68
0.32
-0.11
-0.50
-0.71
-0.68
-0.43
-0.08
0.21
0.34
0.27
0.06
-0.23
-0.49
-0.66
-0.75
-0.76
-0.74
-0.72
-0.73
-0.77
-0.85
-0.93
-0.98
-0.96
-0.88
-0.73
-0.53
-0.32
-0.11
0.09
0.29
0.49
0.69
0.86
0.97
0.98
0.89
0.72
0.51
0.34
0.23
0.22
0.27
0.33
0.37
0.32
0.18
-0.01
-0.21
-0.35
-0.40
-0.34
-0.20
-0.01
0.14
0.23
0.24
0.18
0.10
0.05
0.03
0.05
0.04
-0.06
-0.28
-0.58
-0.89
-1.11
-1.21
-1.21
-1.19
-1.23
-1.34
-1.44
-1.42
-1.18
-0.71
-0.12
0.38
0.65
0.64
0.45
0.25
0.20
0.35
0.64
0.93
1.12
1.15
1.07
1.00
0.99
1.06
1.16
1.22
1.18
1.03
0.83
0.63
0.50
0.47
0.53
0.66
0.81
0.94
1.05
1.11
1.10
0.98
0.72
0.36
-0.02
-0.33
-0.48
-0.47
-0.40
-0.40
-0.55
-0.84
-1.15
-1.36
-1.42
-1.38
-1.35
-1.42
-1.55
-1.65
-1.56
-1.22
-0.71
-0.19
0.15
0.21
0.01
-0.27
-0.45
-0.39
-0.08
0.36
0.76
1.00
1.02
0.86
0.61
0.33
0.07
-0.16
-0.34
-0.43
-0.38
-0.19
0.10
0.36
0.49
0.40
0.15
-0.14
-0.31
-0.25
-0.02
0.23
0.31
0.15
-0.22
-0.65
-0.95
-1.00
-0.84
-0.57
-0.32
-0.16
-0.13
-0.18
-0.27
-0.38
-0.52
-0.68
-0.86
-1.03
-1.14
-1.16
-1.08
-0.92
-0.68
-0.40
-0.07
0.28
0.64
0.98
1.27
1.53
1.73
1.86
1.87
1.72
1.40
0.97
0.53
0.19
0.01
-0.05
-0.06
-0.07
-0.06
0.02
0.22
0.53
0.86
1.07
1.09
0.94
0.72
0.53
0.44
0.41
0.35
0.16
-0.15
-0.54
-0.89
-1.08
-1.03
-0.77
-0.40
-0.06
0.11
0.02
-0.32
-0.82
-1.30
-1.63
-1.68
-1.47
-1.09
-0.69
-0.38
-0.19
-0.10
-0.03
0.08
0.23
0.36
0.42
0.41
0.37
0.40
0.55
0.83
1.15
1.43
1.60
1.63
1.54
1.36
1.12
0.85
0.61
0.46
0.49
0.69
0.97
1.19
1.23
1.04
0.68
0.27
-0.09
-0.34
-0.46
-0.47
-0.40
-0.25
-0.03
0.20
0.37
0.41
0.29
0.01
-0.35
-0.70
-0.91
-0.90
-0.66
-0.24
0.21
0.55
0.69
0.58
0.28
-0.10
-0.47
-0.76
-0.95
-1.05
-1.07
-1.00
-0.84
-0.57
-0.25
0.03
0.19
0.17
-0.00
-0.27
-0.51
-0.65
-0.64
-0.47
-0.19
0.18
0.57
0.90
1.11
1.15
1.02
0.76
0.46
0.18
-0.04
-0.21
-0.31
-0.34
-0.29
-0.17
-0.02
0.11
0.16
0.10
-0.07
-0.36
-0.79
-1.31
-1.85
-2.24
-2.32
-2.03
-1.44
-0.77
-0.28
-0.13
-0.33
-0.73
-1.08
-1.20
-1.04
-0.64
-0.11
0.43
0.94
1.38
1.74
1.96
1.98
1.79
1.42
0.97
0.58
0.38
0.39
0.59
0.85
1.04
1.07
0.91
0.63
0.30
0.03
-0.14
-0.19
-0.13
-0.00
0.15
0.27
0.28
0.15
-0.09
-0.37
-0.62
-0.77
-0.81
-0.77
-0.70
-0.60
-0.50
-0.42
-0.40
-0.51
-0.76
-1.10
-1.42
-1.61
-1.61
-1.44
-1.17
-0.87
-0.55
-0.23
0.06
0.30
0.44
0.49
0.51
0.57
0.74
1.03
1.35
1.55
1.53
1.28
0.85
0.41
0.05
-0.16
-0.24
-0.24
-0.17
-0.03
0.20
0.51
0.84
1.09
1.19
1.12
0.91
0.58
0.16
-0.29
-0.69
-0.92
-0.89
-0.59
-0.14
0.28
0.49
0.44
0.19
-0.14
-0.40
-0.56
-0.62
-0.64
-0.68
-0.74
-0.83
-0.90
-0.91
-0.81
-0.60
-0.28
0.08
0.41
0.64
0.75
0.78
0.77
0.75
0.73
0.73
0.73
0.73
0.73
0.73
0.71
0.65
0.54
0.41
0.30
0.23
0.25
0.32
0.39
0.38
0.25
-0.03
-0.42
-0.88
-1.30
-1.63
-1.78
-1.72
-1.47
-1.10
-0.76
-0.57
-0.56
-0.71
-0.90
-1.01
-1.01
-0.93
-0.86
-0.86
-0.90
-0.91
-0.83
-0.63
-0.36
-0.12
0.08
0.24
0.43
0.68
0.98
1.25
1.44
1.54
1.58
1.60
1.59
1.48
1.22
0.80
0.34
-0.05
-0.25
-0.28
-0.23
-0.21
-0.28
-0.38
-0.42
-0.35
-0.19
-0.04
0.04
0.03
0.03
0.15
0.41
0.75
1.00
1.03
0.78
0.29
-0.30
-0.82
-1.16
-1.25
-1.10
-0.81
-0.50
-0.29
-0.26
-0.39
-0.58
-0.71
-0.70
-0.55
-0.31
-0.04
0.22
0.49
0.73
0.90
0.92
0.75
0.43
0.07
-0.19
-0.31
-0.33
-0.36
-0.46
-0.61
-0.65
-0.44
0.06
0.72
1.30
1.54
1.34
0.80
0.13
-0.40
-0.68
-0.68
-0.53
-0.34
-0.16
0.01
0.21
0.40
0.54
0.52
0.31
-0.07
-0.53
-1.00
-1.40
-1.70
-1.88
-1.94
-1.88
-1.69
-1.38
-0.98
-0.51
-0.02
0.45
0.83
1.05
1.10
1.00
0.84
0.72
0.69
0.77
0.92
1.07
1.20
1.27
1.26
1.16
1.00
0.82
0.69
0.67
0.75
0.87
0.94
0.88
0.67
0.36
0.02
-0.26
-0.43
-0.45
-0.34
-0.14
0.08
0.26
0.30
0.16
-0.17
-0.59
-1.00
-1.27
-1.34
-1.22
-0.97
-0.66
-0.36
-0.09
0.14
0.34
0.49
0.60
0.64
0.61
0.54
0.42
0.26
0.02
-0.27
-0.58
-0.84
-0.96
-0.87
-0.58
-0.19
0.20
0.46
0.54
0.47
0.29
0.06
-0.19
-0.43
-0.63
-0.77
-0.79
-0.71
-0.56
-0.42
-0.36
-0.40
-0.51
-0.63
-0.74
-0.85
-0.96
-1.04
-1.03
-0.85
-0.51
-0.04
0.40
0.68
0.73
0.59
0.38
0.22
0.23
0.42
0.72
1.02
1.21
1.23
1.08
0.79
0.43
0.07
-0.24
-0.44
-0.50
-0.41
-0.23
-0.03
0.14
0.23
0.26
0.29
0.34
0.46
0.60
0.73
0.80
0.79
0.68
0.45
0.09
-0.36
-0.84
-1.25
-1.51
-1.59
-1.53
-1.40
-1.29
-1.25
-1.32
-1.44
-1.56
-1.60
-1.46
-1.12
-0.61
-0.04
0.45
0.73
0.79
0.70
0.59
0.56
0.62
0.76
0.90
1.03
1.15
1.27
1.35
