1528332495.00
64.000000
-0.00
-0.00
-0.00
-0.00
-0.00
-0.00
-0.00
-0.00
-0.00
-0.01
-0.00
0.00
0.01
0.01
-0.00
-0.03
-0.05
-0.05
-0.00
0.13
0.36
0.66
1.01
1.37
1.72
2.06
2.40
2.77
3.24
3.80
4.42
5.06
5.67
6.21
6.69
7.15
7.64
8.30
9.14
10.10
11.08
11.94
12.62
13.14
13.64
14.27
15.43
17.16
19.39
21.86
24.27
26.42
28.34
30.32
32.66
36.07
40.61
46.11
52.04
57.79
62.93
67.44
71.74
76.37
82.39
90.00
98.95
108.49
117.63
125.63
132.28
139.05
144.14
149.93
157.49
167.87
181.28
196.35
209.78
216.76
212.33
192.98
158.67
111.92
57.27
-0.70
-59.01
-116.77
-174.49
-232.81
-291.58
-349.04
-403.24
-452.32
-495.19
-531.43
-560.75
-582.55
-595.92
-599.95
-593.80
-577.21
-549.78
-510.66
-458.66
-393.06
-314.74
-227.01
-135.38
-46.16
35.02
104.64
161.53
206.23
239.91
263.73
278.66
285.85
286.87
283.56
277.59
270.02
261.17
250.78
238.44
224.05
208.06
191.38
175.09
160.08
146.81
135.14
124.52
114.24
103.79
93.05
82.28
71.98
62.58
54.34
47.21
40.91
35.11
29.55
24.14
19.02
14.49
10.71
7.71
5.38
3.49
1.82
0.26
-1.22
-2.62
-4.01
-5.49
-7.11
-8.80
-10.32
-11.40
-11.87
-11.78
-11.35
-10.85
-10.46
-10.15
-9.80
-9.33
-8.79
-8.32
-8.09
-8.15
-8.38
-8.59
-8.61
-8.34
-7.80
-7.07
-6.23
-5.33
-4.44
-3.64
-3.08
-2.87
-3.04
-3.46
-3.90
-4.13
-3.97
-3.47
-2.78
-2.16
-1.75
-1.60
-1.63
-1.69
-1.67
-1.55
-1.42
-1.36
-1.45
-1.63
-1.79
-1.83
-1.68
-1.42
-1.15
-0.99
-0.96
-1.04
-1.12
-1.12
-1.02
-0.84
-0.63
-0.42
-0.23
-0.08
0.03
0.09
0.11
0.13
0.19
0.33
0.57
0.85
1.12
1.33
1.45
1.49
1.47
1.41
1.34
1.25
1.12
0.95
0.68
0.27
-0.31
-1.03
-1.82
-2.58
-3.20
-3.59
-3.70
-3.51
-2.99
-2.19
-1.15
0.02
1.19
2.26
3.17
3.86
4.46
5.05
5.63
6.14
6.50
6.63
6.51
6.23
5.74
5.04
4.14
3.03
1.79
0.50
-0.68
-1.66
-2.44
-3.06
-3.60
-4.08
-4.49
-4.71
-4.67
-4.37
-3.92
-3.49
-3.23
-3.14
-3.10
-2.99
-2.74
-2.46
-2.31
-2.42
-2.74
-3.10
-3.25
-3.07
-2.59
-1.99
-1.43
-1.03
-0.81
-0.70
-0.66
-0.69
-0.76
-0.84
-0.84
-0.71
-0.44
-0.10
0.20
0.37
0.41
0.37
0.32
0.28
0.21
0.03
-0.31
-0.82
-1.44
-2.06
-2.57
-2.85
-2.85
-2.55
-2.04
-1.40
-0.72
-0.07
0.53
1.06
1.47
1.68
1.61
1.23
0.63
0.00
-0.43
-0.54
-0.34
-0.01
0.25
0.25
-0.02
-0.49
-1.01
-1.44
-1.70
-1.75
-1.59
-1.26
-0.80
-0.31
0.09
0.32
0.33
0.18
-0.01
-0.11
-0.04
0.21
0.55
0.87
1.09
1.19
1.21
1.17
1.10
0.98
0.81
0.62
0.47
0.40
0.46
0.59
0.72
0.76
0.68
0.54
0.39
0.27
0.16
0.02
-0.16
-0.35
-0.46
-0.44
-0.29
-0.11
-0.07
-0.30
-0.83
-1.54
-2.19
-2.57
-2.54
-2.14
-1.56
-0.99
-0.58
-0.34
-0.17
0.03
0.32
0.63
0.85
0.86
0.66
0.37
0.14
0.08
0.22
0.51
0.86
1.21
1.49
1.65
1.69
1.59
1.37
1.05
0.66
0.24
-0.16
-0.50
-0.69
-0.70
-0.52
-0.24
-0.01
0.05
-0.12
-0.46
-0.84
-1.10
-1.16
-1.02
-0.79
-0.59
-0.50
-0.48
-0.42
-0.17
0.30
0.92
1.49
1.78
1.68
1.23
0.64
0.14
-0.11
-0.11
0.03
0.19
0.31
0.39
0.46
0.53
0.54
0.44
0.23
-0.02
-0.21
-0.24
-0.10
0.13
0.32
0.39
0.30
0.09
-0.17
-0.42
-0.62
-0.75
-0.84
-0.92
-1.02
-1.16
-1.29
-1.36
-1.25
-0.93
-0.44
0.12
0.60
0.88
0.90
0.70
0.37
0.03
-0.24
-0.36
-0.31
-0.13
0.15
0.44
0.68
0.78
0.70
0.47
0.12
-0.23
-0.51
-0.71
-0.88
-1.11
-1.46
-1.95
-2.48
-2.96
-3.27
-3.40
-3.38
-3.30
-3.24
-3.27
-3.34
-3.43
-3.45
-3.37
-3.13
-2.73
-2.18
-1.50
-0.74
0.05
0.80
1.42
1.82
1.97
1.90
1.77
1.75
1.98
2.50
3.20
3.87
4.32
4.41
4.16
3.68
3.13
2.65
2.29
2.06
1.87
1.68
1.42
1.09
0.67
0.21
-0.25
-0.62
-0.86
-0.92
-0.80
-0.53
-0.20
0.15
0.44
0.66
0.81
0.89
0.88
0.78
0.62
0.44
0.30
0.25
0.31
0.42
0.51
0.55
0.53
0.52
0.56
0.66
0.78
0.84
0.80
0.65
0.45
0.25
0.08
-0.09
-0.26
-0.45
-0.62
-0.72
-0.73
-0.67
-0.58
-0.51
-0.50
-0.54
-0.60
-0.66
-0.70
-0.71
-0.67
-0.61
-0.49
-0.31
-0.04
0.31
0.71
1.08
1.35
1.43
1.30
1.01
0.68
0.41
0.27
0.27
0.36
0.52
0.71
0.91
1.08
1.18
1.11
0.83
0.38
-0.14
-0.58
-0.85
-0.92
-0.85
-0.73
-0.61
-0.51
-0.42
-0.28
-0.12
0.06
0.19
0.24
0.18
0.03
-0.17
-0.38
-0.57
-0.68
-0.70
-0.62
-0.44
-0.18
0.12
0.39
0.53
0.50
0.29
-0.01
-0.28
-0.39
-0.29
-0.03
0.31
0.63
0.89
1.04
1.11
1.08
0.95
0.73
0.49
0.30
0.21
0.21
0.25
0.24
0.16
0.00
-0.19
-0.39
-0.59
-0.78
-0.95
-1.03
-1.00
-0.86
-0.65
-0.46
-0.39
-0.46
-0.63
-0.83
-0.95
-0.89
-0.60
-0.11
0.52
1.15
1.63
1.84
1.77
1.47
1.08
0.72
0.46
0.32
0.24
0.21
0.22
0.28
0.41
0.59
0.75
0.82
0.77
0.61
0.41
0.27
0.23
0.25
0.26
0.16
-0.04
-0.30
-0.49
-0.55
-0.49
-0.40
-0.40
-0.55
-0.83
-1.16
-1.43
-1.58
-1.59
-1.49
-1.31
-1.11
-0.92
-0.77
-0.67
-0.59
-0.47
-0.23
0.13
0.57
0.97
1.23
1.28
1.12
0.83
0.54
0.34
0.30
0.43
0.70
1.02
1.30
1.47
1.47
1.31
1.05
0.78
0.58
0.50
0.57
0.72
0.88
0.96
0.94
0.83
0.68
0.56
0.45
0.33
0.18
-0.01
-0.19
-0.30
-0.31
-0.25
-0.20
-0.24
-0.41
-0.68
-1.01
-1.35
-1.67
-1.94
-2.08
-2.02
-1.73
-1.25
-0.67
-0.13
0.30
0.60
0.83
1.04
1.23
1.36
1.38
1.28
1.13
1.04
1.08
1.25
1.47
1.64
1.67
1.57
1.37
1.15
0.97
0.87
0.86
0.95
1.09
1.21
1.22
1.03
0.64
0.15
-0.30
-0.60
-0.74
-0.77
-0.79
-0.80
-0.76
-0.60
-0.33
-0.06
0.06
-0.08
-0.48
-0.98
-1.42
-1.65
-1.63
-1.40
-1.04
-0.60
-0.14
0.28
0.56
0.59
0.37
-0.03
-0.42
-0.64
-0.59
-0.31
0.08
0.44
0.67
0.75
0.74
0.68
0.62
0.57
0.52
0.47
0.42
0.38
0.36
0.39
0.47
0.61
0.75
0.86
0.87
0.77
0.62
0.52
0.54
0.69
0.84
0.81
0.46
-0.19
-0.97
-1.61
-1.89
-1.76
-1.36
-0.96
-0.78
-0.93
-1.34
-1.84
-2.27
-2.57
-2.73
-2.78
-2.68
-2.37
-1.83
-1.11
-0.40
0.11
0.26
0.08
-0.27
-0.59
-0.76
-0.77
-0.71
-0.70
-0.82
-1.05
-1.33
-1.62
-1.88
-2.13
-2.34
-2.49
-2.51
-2.36
-2.01
-1.53
-1.01
-0.55
-0.22
-0.01
0.11
0.22
0.39
0.62
0.92
1.24
1.55
1.83
2.09
2.34
2.57
2.76
2.87
2.85
2.67
2.32
1.87
1.42
1.15
1.15
1.45
1.92
2.37
2.61
2.57
2.32
2.01
1.80
1.73
1.72
1.61
1.33
0.87
0.37
-0.00
-0.16
-0.08
0.14
0.41
0.66
0.85
0.97
1.00
0.90
0.64
0.28
-0.12
-0.44
-0.59
-0.59
-0.50
-0.41
-0.39
-0.43
-0.50
-0.53
-0.48
-0.35
-0.20
-0.11
-0.16
-0.38
-0.78
-1.25
-1.69
-1.97
-2.04
-1.88
-1.55
-1.14
-0.75
-0.44
-0.26
-0.20
-0.18
-0.15
-0.05
0.12
0.32
0.47
0.55
0.58
0.66
0.86
1.19
1.55
1.82
1.90
1.77
1.54
1.33
1.21
1.18
1.18
1.14
1.02
0.84
0.63
0.40
0.13
-0.20
-0.61
-1.05
-1.45
-1.75
-1.92
-1.96
-1.91
-1.80
-1.69
-1.58
-1.51
-1.45
-1.36
-1.17
-0.89
-0.52
-0.16
0.10
0.20
0.14
-0.04
-0.27
-0.49
-0.67
-0.77
-0.75
-0.61
-0.39
-0.18
-0.11
-0.20
-0.41
-0.56
-0.48
-0.07
0.62
1.40
2.12
2.66
3.08
3.45
3.82
4.14
4.31
4.21
3.82
3.21
2.55
2.00
1.65
1.52
1.52
1.55
1.50
1.24
0.65
-0.31
-1.58
-2.97
-4.16
-4.86
-4.93
-4.41
-3.55
-2.66
-1.99
-1.66
-1.59
-1.62
-1.62
-1.48
-1.23
-0.92
-0.57
-0.16
0.34
1.01
1.81
2.67
3.47
4.14
4.65
5.06
5.46
5.88
6.30
6.60
6.69
6.54
6.21
5.83
5.50
5.25
4.99
4.62
4.11
3.48
2.82
2.22
1.66
1.01
0.17
-0.94
-2.21
-3.46
-4.41
-4.89
-4.86
-4.47
-3.96
-3.59
-3.54
-3.84
-4.40
-4.99
-5.41
-5.53
-5.33
-4.90
-4.40
-3.95
-3.62
-3.43
-3.38
-3.49
-3.77
-4.20
-4.70
-5.13
-5.37
-5.33
-5.02
-4.49
-3.89
-3.32
-2.89
-2.63
-2.56
-2.61
-2.70
-2.71
-2.57
-2.24
-1.78
-1.27
-0.83
-0.48
-0.24
-0.05
0.11
0.29
0.51
0.78
1.13
1.53
1.94
2.25
2.39
2.31
2.06
1.76
1.55
1.51
1.64
1.89
2.16
2.34
2.40
2.29
2.01
1.62
1.18
0.78
0.50
0.36
0.31
0.25
0.10
-0.16
-0.45
-0.67
-0.72
-0.58
-0.30
-0.02
0.14
0.13
-0.07
-0.38
-0.78
-1.19
-1.59
-1.95
-2.22
-2.36
-2.35
-2.20
-1.95
-1.67
-1.43
-1.26
-1.17
-1.11
-1.04
-0.91
-0.69
-0.38
0.00
0.43
0.84
1.19
1.42
1.49
1.40
1.20
1.00
0.92
1.01
1.28
1.61
1.86
1.91
1.74
1.39
0.98
0.60
0.29
0.02
-0.24
-0.54
-0.86
-1.16
-1.38
-1.48
-1.47
-1.40
-1.33
-1.32
-1.35
-1.42
-1.47
-1.46
-1.38
-1.24
-1.06
-0.80
-0.42
0.09
0.72
1.35
1.87
2.14
2.14
1.92
1.57
1.22
0.92
0.71
0.56
0.47
0.47
0.56
0.75
0.99
1.18
1.27
1.25
1.19
1.17
1.20
1.24
1.17
0.92
0.47
-0.05
-0.48
-0.72
-0.74
-0.62
-0.49
-0.42
-0.45
-0.59
-0.82
-1.15
-1.59
-2.14
-2.73
-3.28
-3.67
-3.85
-3.82
-3.69
-3.57
-3.57
-3.68
-3.77
-3.69
-3.32
-2.65
-1.84
-1.12
-0.69
-0.61
-0.79
-1.02
-1.12
-0.99
-0.64
-0.13
0.45
1.09
1.78
2.54
3.32
4.03
4.51
4.64
4.37
3.79
3.04
2.32
1.75
1.32
0.97
0.60
0.21
-0.16
-0.39
-0.44
-0.35
-0.25
-0.26
-0.40
-0.61
-0.78
-0.83
-0.79
-0.74
-0.75
-0.79
-0.78
-0.63
-0.30
0.18
0.70
1.18
1.56
1.81
1.93
1.92
1.79
1.61
1.46
1.42
1.53
1.74
1.96
2.10
2.13
2.08
2.02
1.97
1.92
1.82
1.63
1.39
1.17
1.06
1.09
1.21
1.33
1.34
1.19
0.91
0.57
0.27
0.07
-0.03
-0.07
-0.10
-0.16
-0.30
-0.50
-0.76
-1.03
-1.22
-1.28
-1.18
-0.93
-0.58
-0.17
0.24
0.61
0.88
1.01
0.95
0.72
0.34
-0.11
-0.56
-0.99
-1.37
-1.72
-2.03
-2.25
-2.38
-2.47
-2.59
-2.87
-3.38
-4.14
-5.11
-6.17
-7.15
-7.82
-7.94
-7.29
-5.76
-3.45
-0.67
2.19
4.71
6.63
7.84
8.40
8.38
7.86
6.91
5.62
4.19
2.90
2.03
1.72
1.93
2.43
2.91
3.11
2.92
2.41
1.77
1.20
0.81
0.63
0.57
0.57
0.55
0.48
0.36
0.18
-0.07
-0.36
-0.61
-0.71
-0.61
-0.29
0.11
0.39
0.39
0.05
-0.53
-1.13
-1.54
-1.66
-1.48
-1.14
-0.77
-0.49
-0.33
-0.27
-0.30
-0.43
-0.67
-1.00
-1.36
-1.63
-1.69
-1.52
-1.18
-0.81
-0.52
-0.35
-0.27
-0.14
0.12
0.56
1.10
1.64
2.06
2.25
2.17
1.86
1.41
0.95
0.61
0.47
0.51
0.66
0.81
0.89
0.85
0.72
0.50
0.21
-0.12
-0.46
-0.75
-0.91
-0.88
-0.67
-0.35
-0.02
0.23
0.36
0.38
0.33
0.30
0.32
0.44
0.60
0.73
0.74
0.55
0.18
-0.28
-0.72
-0.99
-1.04
-0.90
-0.65
-0.37
-0.14
0.04
0.17
0.28
0.40
0.53
0.68
0.83
0.96
1.01
0.97
0.81
0.60
0.41
0.33
0.39
0.59
0.84
1.06
1.15
1.10
0.94
0.73
0.54
0.38
0.22
-0.00
-0.32
-0.73
-1.17
-1.53
-1.73
-1.73
-1.55
-1.27
-0.98
-0.74
-0.58
-0.51
-0.53
-0.65
-0.86
-1.13
-1.41
-1.61
-1.65
-1.50
-1.17
-0.73
-0.26
0.15
0.47
0.69
0.84
0.92
0.93
0.89
0.80
0.70
0.65
0.67
0.75
0.85
0.92
0.92
0.84
0.68
0.48
0.21
-0.12
-0.49
-0.84
-1.08
-1.17
-1.11
-0.97
-0.84
-0.76
-0.75
-0.79
-0.86
-0.97
-1.12
-1.26
-1.34
-1.29
-1.11
-0.84
-0.56
-0.37
-0.27
-0.24
-0.19
-0.07
0.11
0.30
0.47
0.62
0.77
0.95
1.13
1.27
1.30
1.18
0.96
0.70
0.49
0.35
0.25
0.14
-0.02
-0.20
-0.34
-0.41
-0.42
-0.43
-0.54
-0.77
-1.04
-1.19
-1.08
-0.71
-0.23
0.14
0.21
-0.06
-0.52
-0.94
-1.13
-1.07
-0.87
-0.72
-0.72
-0.87
-1.06
-1.15
-1.09
-0.92
-0.70
-0.48
-0.23
0.10
0.53
1.00
1.38
1.54
1.42
1.07
0.62
0.23
-0.01
-0.10
-0.07
-0.01
0.03
0.03
-0.00
-0.02
0.00
0.10
0.28
0.47
0.61
0.59
0.37
0.01
-0.36
-0.62
-0.67
-0.52
-0.27
-0.04
0.07
0.05
-0.04
-0.17
-0.31
-0.48
-0.69
-0.90
-1.05
-1.08
-0.95
-0.70
-0.40
-0.17
-0.08
-0.15
-0.32
-0.50
-0.57
-0.44
-0.09
0.38
0.85
1.15
1.18
0.95
0.56
0.17
-0.13
-0.31
-0.41
-0.46
-0.46
-0.37
-0.16
0.13
0.40
0.54
0.49
0.28
0.02
-0.15
-0.15
0.04
0.35
0.70
0.99
1.16
1.17
0.96
0.55
-0.02
-0.64
-1.17
-1.48
-1.53
-1.34
-1.02
-0.70
-0.50
-0.47
-0.55
-0.65
-0.68
-0.58
-0.39
-0.16
-0.01
0.04
0.02
0.05
0.21
0.52
0.89
1.15
1.16
0.86
0.36
-0.15
-0.50
-0.56
-0.35
0.02
0.42
0.72
0.85
0.76
0.47
0.03
-0.45
-0.87
-1.09
-1.05
-0.75
-0.27
0.24
0.65
0.88
0.91
0.80
0.63
0.45
0.28
0.09
-0.14
-0.38
-0.58
-0.70
-0.75
-0.77
-0.85
-1.04
-1.26
-1.42
-1.37
-1.08
-0.61
-0.14
0.22
0.42
0.55
0.73
1.00
1.33
1.54
1.52
1.24
0.82
0.44
0.23
0.21
0.30
0.41
0.54
0.69
0.88
1.04
1.06
0.84
0.39
-0.14
-0.54
-0.66
-0.50
-0.16
0.19
0.45
0.61
0.70
0.77
0.78
0.68
0.46
0.17
-0.07
-0.16
-0.09
0.07
0.17
0.10
-0.21
-0.68
-1.19
-1.61
-1.82
-1.79
-1.52
-1.07
-0.54
-0.04
0.34
0.51
0.47
0.24
-0.07
-0.36
-0.53
-0.54
-0.41
-0.21
-0.01
0.10
0.13
0.08
0.02
-0.01
0.01
0.08
0.18
0.28
0.37
0.40
0.36
0.22
-0.00
-0.24
-0.39
-0.38
-0.22
0.01
0.19
0.24
0.17
0.06
0.03
0.13
0.29
0.41
0.38
0.15
-0.20
-0.56
-0.83
-0.94
-0.90
-0.74
-0.54
-0.32
-0.09
0.14
0.38
0.63
0.88
1.11
1.27
1.34
1.31
1.18
0.98
0.77
0.55
0.36
0.21
0.11
0.07
0.11
0.20
0.28
0.29
0.21
0.10
0.02
0.05
0.19
0.36
0.45
0.41
0.26
0.08
-0.05
-0.10
-0.07
-0.03
-0.02
-0.08
-0.20
-0.35
-0.52
-0.68
-0.81
-0.87
-0.87
-0.82
-0.77
-0.73
-0.69
-0.63
-0.49
-0.26
0.00
0.24
0.39
0.42
0.31
0.12
-0.09
-0.25
-0.29
-0.17
0.10
0.43
0.71
0.82
0.71
0.41
0.06
-0.20
-0.28
-0.18
0.04
0.28
0.46
0.56
0.56
0.46
0.26
-0.05
-0.41
-0.76
-0.99
-1.05
-0.97
-0.82
-0.71
-0.74
-0.94
-1.24
-1.59
-1.90
-2.12
-2.25
-2.29
-2.22
-2.05
-1.80
-1.54
-1.36
-1.34
-1.49
-1.77
-2.07
-2.29
-2.36
-2.28
-2.09
-1.83
-1.51
-1.12
-0.63
-0.05
0.57
1.15
1.63
1.98
2.21
2.37
2.48
2.58
2.64
2.62
2.50
2.29
2.01
1.71
1.44
1.20
0.99
0.79
0.63
0.59
0.73
1.06
1.50
1.90
2.06
1.92
1.52
1.02
0.64
0.50
0.60
0.80
0.95
0.93
0.74
0.47
0.24
0.14
0.17
0.29
0.46
0.65
0.83
0.97
1.04
0.97
0.74
0.38
-0.05
-0.47
-0.78
-0.94
-0.92
-0.74
-0.44
-0.10
0.18
0.33
0.29
0.09
-0.20
-0.43
-0.52
-0.42
-0.20
0.01
0.07
-0.09
-0.47
-0.94
-1.34
-1.50
-1.36
-0.98
-0.54
-0.22
-0.14
-0.28
-0.49
-0.60
-0.48
-0.16
0.23
0.56
0.70
0.65
0.48
0.26
0.08
-0.03
-0.03
0.11
0.38
0.79
1.26
1.70
2.01
2.13
2.05
1.77
1.35
0.84
0.30
-0.18
-0.51
-0.66
-0.64
-0.55
-0.48
-0.55
-0.78
-1.11
-1.45
-1.71
-1.83
-1.84
-1.80
-1.76
-1.73
-1.68
-1.59
-1.40
-1.11
-0.74
-0.30
0.18
0.66
1.07
1.37
1.49
1.41
1.16
0.82
0.48
0.22
0.07
0.04
0.09
0.18
0.26
0.34
0.42
0.51
0.61
0.67
0.65
0.54
0.32
0.06
-0.20
-0.40
-0.51
-0.52
-0.48
-0.39
-0.30
-0.24
-0.19
-0.15
-0.11
-0.06
-0.00
0.04
0.06
0.06
0.06
0.06
0.04
-0.05
-0.22
-0.45
-0.66
-0.77
-0.74
-0.56
-0.30
-0.04
0.13
0.18
0.09
-0.07
-0.24
-0.33
-0.31
-0.16
0.01
0.13
0.11
-0.03
-0.20
-0.30
-0.25
-0.05
0.20
0.40
0.51
0.53
0.51
0.51
0.54
0.57
0.55
0.44
0.26
0.07
-0.06
-0.09
-0.02
0.12
0.29
0.42
0.44
0.27
-0.09
-0.60
-1.15
-1.59
-1.78
-1.67
-1.36
-0.98
-0.69
-0.57
-0.61
-0.71
-0.78
-0.73
-0.54
-0.23
0.18
0.64
1.11
1.50
1.76
1.83
1.68
1.37
0.98
0.61
0.37
0.31
0.43
0.66
0.89
0.97
0.83
0.45
-0.07
-0.60
-1.02
-1.24
-1.26
-1.11
-0.83
-0.47
-0.04
0.38
0.71
0.86
0.74
0.40
-0.02
-0.37
-0.53
-0.49
-0.35
-0.22
-0.17
-0.16
-0.14
-0.05
0.08
0.19
0.20
0.12
0.04
0.04
0.15
0.32
0.46
0.48
0.38
0.25
0.14
0.06
-0.01
-0.13
-0.31
-0.47
-0.51
-0.38
-0.13
0.12
0.26
0.27
0.19
0.12
0.13
0.21
0.30
0.33
0.30
0.24
0.17
0.10
-0.02
-0.18
-0.36
-0.49
-0.50
-0.37
-0.16
0.02
0.06
-0.07
-0.35
-0.67
-0.92
-1.03
-0.96
-0.70
-0.29
0.22
0.76
1.21
1.44
1.38
1.08
0.68
0.36
0.26
0.36
0.57
0.72
0.73
0.64
0.53
0.49
0.50
0.49
0.35
0.04
-0.38
-0.81
-1.12
-1.26
-1.20
-0.97
-0.65
-0.32
-0.06
0.06
0.04
-0.08
-0.20
-0.23
-0.12
0.10
0.31
0.41
0.29
-0.07
-0.57
-1.09
-1.47
-1.58
-1.38
-0.93
-0.33
0.25
0.68
0.89
0.89
0.76
0.60
0.52
0.55
0.66
0.76
0.77
0.65
0.44
0.24
0.14
0.20
0.38
0.59
0.74
0.76
0.63
0.40
0.13
-0.12
-0.30
-0.38
-0.35
-0.21
0.02
0.25
0.42
0.44
0.28
-0.04
-0.43
-0.79
-1.02
-1.09
-0.99
-0.79
-0.57
-0.41
-0.36
-0.41
-0.50
-0.58
-0.58
-0.50
-0.38
-0.25
-0.15
-0.08
0.01
0.15
0.29
0.37
0.30
0.07
-0.25
-0.52
-0.57
-0.35
0.05
0.45
0.67
0.61
0.35
0.02
-0.21
-0.25
-0.10
0.14
0.37
0.54
0.62
0.60
0.53
0.43
0.33
0.27
0.28
0.35
0.44
0.49
0.43
0.26
0.00
-0.27
-0.47
-0.56
-0.54
-0.46
-0.42
-0.47
-0.66
-0.96
-1.29
-1.54
-1.63
-1.52
-1.21
-0.77
-0.29
0.14
0.48
0.70
0.82
0.83
0.69
0.39
-0.07
-0.57
-0.96
-1.09
-0.87
-0.38
0.17
0.56
0.62
0.36
-0.11
-0.61
-1.02
-1.29
-1.45
-1.54
-1.60
-1.61
-1.60
-1.58
-1.61
-1.74
-1.93
-2.10
-2.17
-2.10
-1.94
-1.77
-1.66
-1.58
-1.44
-1.19
-0.82
-0.38
0.02
0.35
0.64
0.94
1.30
1.72
2.12
2.45
2.64
2.72
2.70
2.62
2.47
2.29
2.14
2.06
2.11
2.24
2.37
2.39
2.23
1.88
1.43
0.98
0.62
0.38
0.19
0.01
-0.19
-0.37
-0.48
-0.50
-0.45
-0.38
-0.33
-0.31
-0.28
-0.20
-0.06
0.09
0.17
0.15
0.05
-0.04
-0.04
0.06
0.18
0.22
0.13
-0.07
-0.28
-0.43
-0.50
-0.50
-0.46
-0.38
-0.20
0.11
0.54
0.96
1.26
1.35
1.24
1.02
0.79
0.54
0.23
-0.20
-0.75
-1.27
-1.55
-1.44
-0.94
-0.24
0.39
0.73
0.70
0.39
-0.02
-0.35
-0.51
-0.51
-0.45
-0.40
-0.41
-0.47
-0.52
-0.51
-0.42
-0.28
-0.18
-0.18
-0.33
-0.58
-0.85
-1.06
-1.14
-1.10
-0.97
-0.83
-0.69
-0.58
-0.49
-0.39
-0.28
-0.15
-0.01
0.13
0.28
0.44
0.64
0.87
1.12
1.36
1.52
1.56
1.48
1.32
1.14
0.98
0.84
0.70
0.55
0.39
0.25
0.17
0.11
0.03
-0.11
-0.33
-0.56
-0.73
-0.79
-0.75
-0.67
-0.58
-0.51
-0.45
-0.39
-0.35
-0.40
-0.58
-0.90
-1.25
-1.51
-1.54
-1.29
-0.77
-0.05
0.71
1.38
1.83
2.01
1.95
1.74
1.49
1.26
1.07
0.86
0.60
0.31
0.08
0.02
0.17
0.45
0.71
0.77
0.53
-0.01
-0.71
-1.39
-1.84
-1.98
-1.83
-1.52
-1.22
-1.05
-1.03
-1.11
-1.18
-1.18
-1.14
-1.11
-1.14
-1.19
-1.15
-0.91
-0.46
0.11
0.60
0.80
0.62
0.14
-0.45
-0.89
-1.03
-0.86
-0.50
-0.10
0.23
0.46
0.64
0.81
0.97
1.06
1.03
0.86
0.61
0.38
0.26
0.30
0.49
0.74
0.98
1.16
1.28
1.37
1.46
1.57
1.65
1.64
1.48
1.15
0.72
0.29
-0.04
-0.24
-0.35
-0.45
-0.59
-0.77
-0.89
-0.88
-0.71
-0.41
-0.10
0.12
0.18
0.07
-0.15
-0.41
-0.63
-0.77
-0.77
-0.64
-0.42
-0.17
0.02
0.08
0.01
-0.14
-0.24
-0.24
-0.11
0.05
0.17
0.17
0.09
0.01
0.00
0.08
0.16
0.15
-0.04
-0.37
-0.74
-1.00
-1.08
-0.96
-0.69
-0.34
0.01
0.33
0.60
0.78
0.85
0.81
0.67
0.48
0.29
0.17
0.18
0.31
0.49
0.62
0.60
0.36
-0.04
-0.48
-0.80
-0.91
-0.78
-0.48
-0.13
0.15
0.30
0.34
0.30
0.23
0.17
0.10
0.03
-0.04
-0.10
-0.12
-0.06
0.09
0.28
0.44
0.48
0.33
-0.02
-0.52
-1.05
-1.52
-1.80
-1.85
-1.67
-1.31
-0.88
-0.47
-0.15
0.05
0.15
0.17
0.17
0.15
0.15
0.19
0.29
0.49
0.75
1.05
1.30
1.49
1.59
1.65
1.69
1.70
1.66
1.55
1.37
1.17
1.00
0.90
0.81
0.66
0.35
-0.16
-0.82
-1.48
-2.00
-2.27
-2.29
-2.16
-2.00
-1.91
-1.95
-2.08
-2.27
-2.51
-2.79
-3.08
-3.31
-3.38
-3.23
-2.87
-2.40
-1.97
-1.71
-1.60
-1.55
-1.40
-1.06
-0.54
0.07
0.63
1.08
1.48
1.91
2.45
3.07
3.65
4.05
4.20
4.12
3.89
3.57
3.18
2.71
2.14
1.55
1.07
0.78
0.73
0.83
0.97
1.03
1.02
0.96
0.89
0.83
0.75
0.61
0.38
0.14
-0.08
-0.23
-0.27
-0.19
-0.02
0.21
0.44
0.61
0.67
0.63
0.55
0.49
0.50
0.54
0.54
0.45
0.27
0.10
0.02
0.10
0.28
0.49
0.64
0.72
0.78
0.83
0.88
0.89
0.81
0.61
0.28
-0.16
-0.68
-1.19
-1.59
-1.78
-1.70
-1.41
-1.05
-0.81
-0.79
-0.95
-1.14
-1.21
-1.08
-0.79
-0.47
-0.20
-0.01
0.11
0.20
0.26
0.25
0.15
-0.02
-0.19
-0.24
-0.12
0.19
0.59
1.00
1.31
1.47
1.48
1.35
1.12
0.81
0.45
0.09
-0.19
-0.36
-0.39
-0.30
-0.17
-0.04
0.02
-0.01
-0.17
-0.43
-0.78
-1.14
-1.41
-1.54
-1.47
-1.26
-0.98
-0.72
-0.55
-0.47
-0.44
-0.39
-0.27
-0.03
0.34
0.81
1.31
1.77
2.11
2.28
2.28
2.12
1.88
1.62
1.38
1.17
0.94
0.62
0.18
-0.37
-0.92
-1.32
-1.48
-1.39
-1.14
-0.89
-0.76
-0.77
-0.85
-0.86
-0.71
-0.42
-0.07
0.21
0.34
0.33
0.20
-0.00
-0.23
-0.46
-0.66
-0.76
-0.71
-0.49
-0.13
0.24
0.52
0.66
0.68
0.66
0.65
0.64
0.58
0.45
0.26
0.09
0.02
0.06
0.12
0.11
-0.04
-0.34
-0.69
-0.97
-1.09
-1.04
-0.88
-0.68
-0.51
-0.41
-0.36
-0.34
-0.32
-0.31
-0.31
-0.34
-0.41
-0.45
-0.45
-0.37
-0.25
-0.16
-0.16
-0.28
-0.48
-0.68
-0.81
-0.82
-0.74
-0.59
-0.43
-0.26
-0.12
-0.04
-0.04
-0.13
-0.26
-0.38
-0.41
-0.34
-0.21
-0.10
-0.11
-0.24
-0.43
-0.56
-0.54
-0.33
0.03
0.44
0.79
0.99
0.99
0.84
0.61
0.39
0.26
0.24
0.29
0.33
0.33
0.30
0.31
0.40
0.54
0.61
0.48
0.09
-0.49
-1.07
-1.47
-1.58
-1.42
-1.11
-0.77
-0.50
-0.31
-0.17
-0.06
0.00
-0.01
-0.09
-0.24
-0.39
-0.49
-0.49
-0.38
-0.18
0.07
0.31
0.51
0.63
0.67
0.62
0.50
0.35
0.22
0.14
0.14
0.20
0.29
0.33
0.26
0.06
-0.22
-0.49
-0.65
-0.67
-0.59
-0.48
-0.41
-0.40
-0.40
-0.36
-0.28
-0.21
-0.21
-0.33
-0.52
-0.69
-0.76
-0.72
-0.64
-0.58
-0.57
-0.53
-0.35
-0.03
0.37
0.68
0.80
0.72
0.56
0.48
0.60
0.90
1.25
1.49
1.53
1.36
1.03
0.61
0.18
-0.21
-0.49
-0.64
-0.63
-0.47
-0.25
-0.03
0.13
0.23
0.27
0.29
0.29
0.25
0.14
-0.05
-0.29
-0.53
-0.68
-0.68
-0.50
-0.21
0.08
0.27
0.30
0.19
-0.00
-0.20
-0.38
-0.55
-0.75
-0.98
-1.22
-1.40
-1.45
-1.35
-1.13
-0.86
-0.62
-0.49
-0.49
-0.59
-0.72
-0.80
-0.79
-0.72
-0.67
-0.70
-0.86
-1.13
-1.43
-1.69
-1.86
-1.94
-1.95
-1.91
-1.82
-1.65
-1.38
-1.05
-0.69
-0.37
-0.10
0.17
0.51
0.95
1.47
1.94
2.25
2.30
2.09
1.71
1.28
0.94
0.76
0.74
0.83
0.97
1.08
1.15
1.18
1.19
1.20
1.22
1.21
1.14
1.03
0.92
0.91
1.04
1.31
1.62
1.84
1.84
1.59
1.20
0.82
0.61
0.61
0.77
0.93
0.93
0.71
0.32
-0.08
-0.35
-0.45
-0.42
-0.35
-0.32
-0.36
-0.41
-0.43
-0.40
-0.36
-0.38
-0.45
-0.55
-0.56
-0.41
-0.12
0.18
0.33
0.20
-0.15
-0.59
-0.88
-0.91
-0.66
-0.30
0.01
0.15
0.16
0.15
0.26
0.52
0.84
1.07
1.10
0.92
0.62
0.34
0.15
0.08
0.08
0.08
0.06
0.03
0.02
0.05
0.07
0.04
-0.10
-0.34
-0.62
-0.82
-0.87
-0.75
-0.46
-0.12
0.19
0.36
0.36
0.18
-0.13
-0.50
-0.84
-1.07
-1.16
-1.10
-0.92
-0.66
-0.38
-0.14
0.03
0.11
0.13
0.14
0.15
0.17
0.15
0.07
-0.12
-0.37
-0.64
-0.83
-0.90
-0.81
-0.54
-0.11
0.44
1.01
1.47
1.67
1.53
1.10
0.52
0.02
-0.25
-0.28
-0.17
-0.07
-0.08
-0.23
-0.42
-0.57
-0.61
-0.53
-0.39
-0.28
-0.26
-0.36
-0.55
-0.76
-0.91
-0.95
-0.86
-0.67
-0.44
-0.26
-0.17
-0.15
-0.17
-0.21
-0.23
-0.21
-0.14
0.02
0.31
0.72
1.20
1.61
1.84
1.79
1.46
0.97
0.46
0.04
-0.22
-0.36
-0.41
-0.42
-0.40
-0.38
-0.34
-0.27
-0.16
0.00
0.24
0.53
0.84
1.07
1.17
1.08
0.81
0.40
-0.06
-0.49
-0.80
-0.90
-0.79
-0.50
-0.16
0.10
0.19
0.09
-0.13
-0.38
-0.57
-0.66
-0.62
-0.48
-0.27
-0.01
0.24
0.48
0.67
0.85
1.04
1.20
1.30
1.24
0.94
0.40
-0.28
-0.93
-1.38
-1.51
-1.35
-0.97
-0.53
-0.19
-0.03
-0.05
-0.16
-0.26
-0.30
-0.25
-0.12
0.03
0.18
0.33
0.46
0.51
0.43
0.20
-0.16
-0.53
-0.83
-0.95
-0.92
-0.76
-0.55
-0.32
-0.07
0.20
0.46
0.65
0.69
0.54
0.23
-0.16
-0.50
-0.67
-0.61
-0.34
0.06
0.48
0.79
0.93
0.89
0.73
0.51
0.25
-0.01
-0.26
-0.45
-0.51
-0.42
-0.17
0.13
0.36
0.43
0.32
0.08
-0.18
-0.37
-0.47
-0.50
-0.49
-0.48
-0.48
-0.48
-0.47
-0.49
-0.54
-0.63
-0.75
-0.82
-0.78
-0.59
-0.28
0.06
0.34
0.50
0.55
0.56
0.58
0.63
0.66
0.61
0.44
0.21
0.02
-0.06
-0.02
0.08
0.17
0.19
0.17
0.16
0.22
0.32
0.39
0.37
0.20
-0.08
-0.40
-0.66
-0.81
-0.85
-0.82
-0.74
-0.67
-0.63
-0.63
-0.65
-0.69
-0.73
-0.78
-0.82
-0.86
-0.88
-0.84
-0.73
-0.52
-0.26
0.01
0.24
0.39
0.45
0.42
0.32
0.17
-0.01
-0.20
-0.36
-0.43
-0.39
-0.25
-0.04
0.15
0.24
0.17
-0.07
-0.46
-0.92
-1.35
-1.67
-1.84
-1.88
-1.86
-1.86
-1.90
-1.98
-2.06
-2.12
-2.17
-2.25
-2.36
-2.46
-2.42
-2.12
-1.52
-0.69
0.17
0.89
1.35
1.58
1.67
1.75
1.86
1.96
2.03
2.06
2.14
2.38
2.80
3.34
3.81
4.00
3.83
3.35
2.72
2.13
1.70
1.44
1.30
1.23
1.20
1.24
1.36
1.50
1.60
1.57
1.39
1.09
0.75
0.42
0.16
-0.03
-0.17
-0.25
-0.28
-0.26
-0.21
-0.17
-0.14
-0.16
-0.19
-0.24
-0.30
-0.36
-0.42
-0.52
-0.69
-0.95
-1.31
-1.72
-2.05
-2.18
-2.01
-1.50
-0.76
0.05
0.74
1.16
1.29
1.16
0.89
0.63
0.48
0.49
0.66
0.91
1.13
1.23
1.16
0.92
0.60
0.28
0.06
-0.01
0.06
0.21
0.38
0.49
0.49
0.39
0.20
-0.04
-0.30
-0.58
-0.82
-0.99
-1.02
-0.89
-0.63
-0.34
-0.17
-0.22
-0.50
-0.94
-1.37
-1.65
-1.70
-1.54
-1.25
-0.91
-0.58
-0.27
0.03
0.31
0.54
0.68
0.72
0.69
0.65
0.67
0.81
1.02
1.22
1.31
1.23
0.97
0.61
0.28
0.08
0.06
0.20
0.44
0.66
0.81
0.83
0.75
0.59
0.37
0.13
-0.13
-0.34
-0.44
-0.41
-0.29
-0.15
-0.12
-0.24
-0.46
-0.67
-0.72
-0.56
-0.28
-0.00
0.11
-0.02
-0.37
-0.85
-1.32
-1.70
-1.96
-2.07
-2.04
-1.86
-1.51
-1.01
-0.40
0.21
0.73
1.06
1.17
1.06
0.82
0.55
0.34
0.25
0.30
0.48
0.76
1.09
1.41
1.62
1.66
1.46
1.05
0.49
-0.10
-0.55
-0.75
-0.62
-0.22
0.34
0.86
1.16
1.17
0.88
0.44
-0.01
-0.32
-0.44
-0.40
-0.27
-0.13
-0.02
0.03
0.03
-0.03
-0.17
-0.39
-0.67
-0.97
-1.23
-1.38
-1.38
-1.24
-0.98
-0.67
-0.35
-0.10
0.04
0.05
-0.01
-0.09
-0.12
-0.06
0.08
0.26
0.42
0.54
0.60
0.66
0.74
0.87
1.02
1.15
1.22
1.22
1.13
0.95
0.68
0.31
-0.11
-0.53
-0.84
-0.97
-0.89
-0.66
-0.36
-0.08
0.12
0.23
0.26
0.21
0.06
-0.18
-0.50
-0.81
-1.03
-1.10
-1.02
-0.90
-0.85
-0.94
-1.19
-1.47
-1.66
-1.66
-1.43
-1.05
-0.65
-0.34
-0.19
-0.15
-0.12
-0.03
0.15
0.40
0.64
0.81
0.89
0.91
0.91
0.88
0.79
0.64
0.43
0.20
0.05
0.01
0.09
0.26
0.44
0.60
0.71
0.76
0.77
0.72
0.61
0.43
0.21
-0.03
-0.24
-0.41
-0.52
-0.60
-0.63
-0.63
-0.58
-0.47
-0.31
-0.17
-0.12
-0.26
-0.62
-1.16
-1.75
-2.25
-2.55
-2.61
-2.43
-2.06
-1.58
-1.05
-0.56
-0.22
-0.08
-0.17
-0.43
-0.71
-0.89
-0.89
-0.71
-0.44
-0.19
-0.05
-0.04
-0.16
-0.38
-0.65
-0.95
-1.26
-1.54
-1.75
-1.90
-1.99
-2.01
-1.98
-1.88
-1.68
-1.38
-0.99
-0.50
0.04
0.62
1.21
1.73
2.13
2.34
2.34
2.17
1.92
1.68
1.52
1.45
1.45
1.46
1.44
1.38
1.29
1.21
1.14
1.08
1.06
1.09
1.16
1.28
1.38
1.41
1.33
1.14
0.93
0.80
0.85
1.07
1.35
1.57
1.61
1.43
1.11
0.78
0.56
0.56
0.76
1.07
1.36
1.48
1.41
1.18
0.89
0.64
0.44
0.26
0.02
-0.28
-0.57
-0.75
-0.72
-0.54
-0.31
-0.20
-0.31
-0.63
-1.05
-1.44
-1.70
-1.81
-1.79
-1.64
-1.36
-0.92
-0.36
0.20
0.65
0.88
0.86
0.67
0.42
0.21
0.08
-0.02
-0.10
-0.19
-0.24
-0.22
-0.07
0.17
0.46
0.75
0.95
1.00
0.87
0.57
0.17
-0.18
-0.36
-0.31
-0.08
0.21
0.39
0.39
0.20
-0.06
-0.26
-0.30
-0.18
0.03
0.19
0.20
0.03
-0.29
-0.68
-1.06
-1.36
-1.57
-1.66
-1.60
-1.38
-1.01
-0.55
-0.09
0.26
0.44
0.48
0.44
0.42
0.46
0.56
0.64
0.68
0.63
0.51
0.35
0.19
0.09
0.08
0.18
0.40
0.64
0.81
0.84
0.70
0.46
0.19
-0.05
-0.27
-0.47
-0.68
-0.81
-0.79
-0.51
-0.01
0.56
0.98
1.06
0.78
0.29
-0.17
-0.38
-0.27
0.02
0.30
0.36
0.14
-0.30
-0.80
-1.21
-1.46
-1.54
-1.50
-1.38
-1.19
-0.89
-0.50
-0.08
0.27
0.45
0.43
0.25
0.07
-0.00
0.09
0.33
0.60
0.80
0.85
0.75
0.54
0.31
0.16
0.18
0.40
0.73
1.03
1.15
1.01
0.67
0.30
0.09
0.14
0.41
0.71
0.85
0.71
0.30
-0.26
-0.80
-1.21
-1.39
-1.36
-1.16
-0.87
-0.61
-0.45
-0.44
-0.55
-0.73
-0.88
-0.98
-1.00
-0.93
-0.79
-0.60
-0.36
-0.11
0.09
0.23
0.31
0.38
0.52
0.73
1.00
1.22
1.33
1.30
1.20
1.13
1.15
1.24
1.31
1.22
0.91
0.43
-0.07
-0.43
-0.54
-0.42
-0.16
0.08
0.19
0.12
-0.08
-0.32
-0.49
-0.55
-0.54
-0.50
-0.50
-0.55
-0.64
-0.72
-0.76
-0.79
-0.86
-1.02
-1.31
-1.72
-2.16
-2.54
-2.74
-2.67
-2.32
-1.77
-1.17
-0.70
-0.50
-0.60
-0.92
-1.35
-1.74
-2.00
-2.15
-2.23
-2.34
-2.49
-2.67
-2.79
-2.75
-2.50
-2.05
-1.47
-0.85
-0.28
0.21
0.64
1.04
1.40
1.73
2.00
2.23
2.42
2.60
2.78
2.92
2.99
2.94
2.76
2.49
2.20
1.90
1.64
1.39
1.13
0.87
0.61
0.36
0.16
0.03
-0.03
-0.01
0.07
0.24
0.49
0.81
1.14
1.42
1.57
1.53
1.32
1.01
0.70
0.51
0.47
0.58
0.76
0.91
0.95
0.86
0.64
0.33
0.02
-0.23
-0.36
-0.35
-0.20
0.04
0.31
0.54
0.65
0.58
0.33
-0.05
-0.46
-0.77
-0.88
-0.79
-0.56
-0.33
-0.21
-0.26
-0.47
-0.75
-0.99
-1.11
-1.13
-1.08
-1.04
-1.06
-1.13
-1.21
-1.21
-1.09
-0.85
-0.54
-0.23
0.04
0.25
0.43
0.61
0.77
0.90
0.96
0.95
0.87
0.78
0.69
0.61
0.55
0.49
0.44
0.40
0.37
0.39
0.46
0.61
0.84
1.11
1.33
1.36
1.14
0.72
0.24
-0.11
-0.21
-0.07
0.15
0.26
0.12
-0.25
-0.70
-1.06
-1.18
-1.04
-0.75
-0.46
-0.29
-0.31
-0.52
-0.86
-1.27
-1.66
-1.96
-2.07
-1.93
-1.49
-0.79
0.07
0.91
1.53
1.82
1.76
1.45
1.01
0.58
0.23
0.02
-0.04
0.09
0.38
0.74
1.06
1.20
1.12
0.87
0.57
0.36
0.28
0.28
0.27
0.18
0.01
-0.17
-0.26
-0.24
-0.16
-0.13
-0.27
-0.59
-1.03
-1.41
-1.57
-1.43
-1.07
-0.65
-0.37
-0.36
-0.62
-1.03
-1.41
-1.63
-1.60
-1.36
-0.97
-0.51
-0.10
0.22
0.40
0.44
0.41
0.36
0.38
0.49
0.66
0.86
1.02
1.09
1.03
0.79
0.37
-0.14
-0.60
-0.83
-0.74
-0.32
0.27
0.83
1.17
1.24
1.11
0.91
0.73
0.59
0.44
0.25
0.04
-0.12
-0.11
0.11
0.45
0.74
0.81
0.57
0.07
-0.51
-0.99
-1.24
-1.26
-1.14
-1.00
-0.90
-0.85
-0.80
-0.69
-0.52
-0.35
-0.22
-0.19
-0.25
-0.31
-0.32
-0.23
-0.06
0.13
0.27
0.27
0.15
-0.05
-0.24
-0.34
-0.30
-0.12
0.18
0.51
0.81
1.00
1.00
0.82
0.50
0.13
-0.16
-0.31
-0.28
-0.13
0.07
0.27
0.39
0.40
0.29
0.06
-0.22
-0.48
-0.64
-0.68
-0.63
-0.57
-0.55
-0.61
-0.70
-0.77
-0.79
-0.75
-0.64
-0.46
-0.22
0.07
0.38
0.66
0.84
0.91
0.91
0.90
0.95
1.06
1.18
1.23
1.14
0.95
0.71
0.55
0.53
0.66
0.88
1.09
1.17
1.08
0.85
0.54
0.21
-0.07
-0.28
-0.41
-0.44
-0.35
-0.17
0.07
0.26
0.31
0.15
-0.18
-0.56
-0.83
-0.88
-0.71
-0.45
-0.25
-0.28
-0.55
-0.96
-1.35
-1.55
-1.50
-1.23
-0.88
-0.56
-0.33
-0.18
-0.07
0.07
0.24
0.40
0.51
0.55
0.52
0.46
0.41
0.42
0.49
0.65
0.85
1.05
1.15
1.10
0.90
0.59
0.23
-0.12
-0.40
-0.61
-0.72
-0.70
-0.50
-0.13
0.38
0.90
1.29
1.45
1.33
0.96
0.46
-0.08
-0.57
-0.96
-1.23
-1.39
-1.48
-1.52
-1.57
-1.63
-1.68
-1.69
-1.59
-1.33
-0.91
-0.38
0.17
0.61
0.86
0.89
0.74
0.52
0.35
0.29
0.34
0.43
0.50
0.48
0.41
0.33
0.30
0.36
0.47
0.59
0.64
0.61
0.49
0.32
0.11
-0.12
-0.36
-0.58
-0.75
-0.82
-0.80
-0.72
-0.65
-0.68
-0.87
-1.18
-1.53
-1.82
-1.97
-1.97
-1.90
-1.85
-1.92
-2.12
-2.42
-2.77
-3.09
-3.34
-3.47
-3.47
-3.28
-2.90
-2.33
-1.66
-0.99
-0.42
-0.00
0.27
0.49
0.74
1.10
1.56
2.07
2.56
2.97
3.26
3.45
3.55
3.59
3.59
3.52
3.38
3.17
2.92
2.68
2.51
2.39
2.26
2.04
1.68
1.22
0.78
0.50
0.47
0.66
0.96
1.18
1.20
0.96
0.50
-0.09
-0.70
-1.25
-1.65
-1.87
-1.89
-1.73
-1.42
-1.03
-0.60
-0.20
0.12
0.31
0.32
0.18
-0.02
-0.18
-0.23
-0.16
0.01
0.20
0.36
0.49
0.59
0.67
0.70
0.64
0.48
0.28
0.13
0.10
0.21
0.39
0.54
0.58
0.49
0.32
0.17
0.09
0.10
0.17
0.25
0.28
0.22
0.05
-0.24
-0.60
-0.97
-1.25
-1.34
-1.23
-0.97
-0.70
-0.54
-0.56
-0.75
-1.00
-1.22
-1.31
-1.27
-1.11
-0.89
-0.63
-0.36
-0.10
0.13
0.27
0.30
0.17
-0.06
-0.30
-0.45
-0.41
-0.16
0.23
0.63
0.94
1.08
1.07
0.97
0.86
0.78
0.70
0.57
0.36
0.08
-0.19
-0.36
-0.34
-0.10
0.29
0.68
0.92
0.91
0.63
0.20
-0.25
-0.60
-0.76
-0.75
-0.65
-0.50
-0.39
-0.37
-0.44
-0.62
-0.84
-1.06
-1.20
-1.23
-1.12
-0.91
-0.64
-0.34
-0.06
0.15
0.25
0.26
0.21
0.17
0.19
0.29
0.41
0.50
0.52
0.49
0.43
0.42
0.45
0.49
0.52
0.50
0.45
0.40
0.37
0.35
0.35
0.37
0.44
0.58
0.79
0.99
1.11
1.09
0.93
0.66
0.36
0.06
-0.22
-0.48
-0.70
-0.86
-0.93
-0.90
-0.77
-0.58
-0.39
-0.26
-0.25
-0.40
-0.68
-0.98
-1.18
-1.12
-0.76
-0.14
0.54
1.05
1.23
1.02
0.54
-0.02
-0.44
-0.60
-0.46
-0.06
0.48
1.01
1.39
1.53
1.40
1.07
0.66
0.28
-0.02
-0.23
-0.38
-0.47
-0.46
-0.30
-0.00
0.37
0.68
0.82
0.73
0.45
0.07
-0.30
-0.56
-0.71
-0.76
-0.77
-0.78
-0.84
-0.99
-1.21
-1.45
-1.61
-1.61
-1.40
-1.05
-0.65
-0.35
-0.20
-0.21
-0.32
-0.44
-0.49
-0.43
-0.26
-0.01
0.26
0.51
0.69
0.77
0.72
0.56
0.37
0.21
0.17
0.32
0.64
1.03
1.36
1.47
1.28
0.82
0.25
-0.24
-0.51
-0.54
-0.44
-0.35
-0.36
-0.46
-0.56
-0.56
-0.45
-0.25
-0.09
-0.05
-0.16
-0.39
-0.64
-0.80
-0.84
-0.75
-0.59
-0.44
-0.37
-0.42
-0.60
-0.87
-1.12
-1.24
-1.14
-0.78
-0.23
0.39
0.90
1.18
1.20
1.01
0.71
0.44
0.25
0.14
0.10
0.10
0.13
0.20
0.31
0.44
0.58
0.71
0.82
0.92
0.98
0.96
0.83
0.56
0.21
-0.15
-0.40
-0.45
-0.30
0.00
0.34
0.57
0.62
0.47
0.16
-0.22
-0.58
-0.84
-0.96
-0.96
-0.88
-0.77
-0.71
-0.71
-0.77
-0.86
-0.95
-1.00
-1.01
-0.93
-0.75
-0.44
-0.01
0.48
0.91
1.18
1.29
1.29
1.30
1.41
1.58
1.70
1.64
1.34
0.88
0.42
0.13
0.06
0.14
0.25
0.26
0.16
0.00
-0.11
-0.12
-0.06
0.01
-0.01
-0.14
-0.33
-0.50
-0.59
-0.56
-0.45
-0.34
-0.29
-0.29
-0.30
-0.28
-0.25
-0.24
-0.33
-0.52
-0.75
-0.93
-1.00
-0.94
-0.80
-0.65
-0.53
-0.42
-0.28
-0.07
0.24
0.59
0.95
1.27
1.48
1.54
1.40
1.08
0.63
0.15
-0.25
-0.49
-0.56
-0.50
-0.37
-0.25
-0.16
-0.12
-0.09
-0.02
0.11
0.30
0.49
0.62
0.64
0.57
0.44
0.33
0.25
0.19
0.09
-0.06
-0.23
-0.32
-0.28
-0.14
-0.02
-0.05
-0.32
-0.79
-1.35
-1.81
-2.06
-2.07
-1.90
-1.64
-1.35
-1.06
-0.76
-0.43
-0.11
0.16
0.31
0.30
0.15
-0.05
-0.21
-0.20
-0.01
0.33
0.67
0.91
1.00
1.00
1.02
1.13
1.35
1.60
1.76
1.76
1.56
1.22
0.79
0.34
-0.08
-0.45
-0.74
-0.90
-0.91
-0.77
-0.50
-0.17
0.16
0.40
0.47
0.34
0.05
-0.30
-0.60
-0.78
-0.80
-0.70
-0.54
-0.40
-0.32
-0.31
-0.38
-0.50
-0.66
-0.77
-0.78
-0.64
-0.36
-0.02
0.29
0.50
0.60
0.61
0.57
0.50
0.44
0.39
0.39
0.46
0.62
0.81
0.96
1.01
0.92
0.76
0.61
0.51
0.48
0.48
0.47
0.44
0.41
0.40
0.42
0.42
0.35
0.17
-0.09
-0.38
-0.61
-0.73
-0.75
-0.72
-0.73
-0.80
-0.94
-1.11
-1.24
-1.31
-1.29
-1.20
-1.06
-0.92
-0.81
-0.75
-0.73
-0.71
-0.61
-0.36
0.04
0.51
0.92
1.16
1.17
1.00
0.76
0.56
0.45
0.43
0.44
0.44
0.43
0.45
0.56
0.74
0.93
1.05
1.04
0.89
0.63
0.34
0.08
-0.07
-0.09
0.00
0.14
0.24
0.25
0.13
-0.08
-0.34
-0.58
-0.78
-0.92
-1.06
-1.21
-1.38
-1.55
-1.68
-1.77
-1.80
-1.78
-1.69
-1.50
-1.18
-0.70
-0.11
0.47
0.93
1.16
1.12
0.84
0.42
0.02
-0.23
-0.28
-0.15
0.09
0.29
0.37
0.32
0.18
0.03
-0.09
-0.21
-0.37
-0.63
-0.95
-1.26
-1.44
-1.48
-1.46
-1.50
-1.75
-2.18
-2.70
-3.14
-3.36
-3.32
-3.11
-2.83
-2.56
-2.30
-1.99
-1.59
-1.10
-0.59
-0.16
0.13
0.33
0.55
0.90
1.42
2.05
2.64
3.05
3.23
3.21
3.11
3.01
2.92
2.79
2.58
2.30
2.04
1.92
1.97
2.12
2.24
2.18
1.89
1.46
1.04
0.79
0.74
0.87
1.06
1.21
1.29
1.29
1.24
1.17
1.06
0.92
0.76
0.57
0.39
0.21
0.03
-0.15
-0.31
-0.41
-0.43
-0.42
-0.47
-0.67
-1.05
-1.51
-1.86
-1.95
-1.76
-1.37
-0.94
-0.59
-0.34
-0.10
0.20
0.56
0.90
1.09
1.05
0.82
0.53
0.32
0.28
0.38
0.56
0.73
0.83
0.84
0.78
0.68
0.59
0.53
0.52
0.55
0.58
0.59
0.55
0.44
0.30
0.14
0.00
-0.11
-0.24
-0.39
-0.60
-0.82
-0.96
-0.95
-0.75
-0.40
-0.05
0.19
0.21
0.02
-0.32
-0.72
-1.08
-1.36
-1.51
-1.52
-1.38
-1.10
-0.68
-0.19
0.30
0.68
0.88
0.84
0.62
0.31
0.04
-0.08
0.00
0.25
0.58
0.88
1.11
1.25
1.32
1.30
1.17
0.91
0.52
0.06
-0.37
-0.64
-0.69
-0.54
-0.26
-0.01
0.11
0.02
-0.27
-0.67
-1.06
-1.33
-1.41
-1.28
-1.01
-0.67
-0.37
-0.22
-0.27
-0.49
-0.81
-1.11
-1.25
-1.17
-0.87
-0.42
0.05
0.41
0.59
0.59
0.47
0.33
0.25
0.29
0.41
0.57
0.68
0.72
0.68
0.63
0.64
0.74
0.88
0.97
0.94
0.79
0.58
0.46
0.51
0.73
1.01
1.16
1.04
0.63
0.01
-0.64
-1.16
-1.48
-1.59
-1.50
-1.27
-0.93
-0.56
-0.26
-0.11
-0.18
-0.42
-0.74
-1.02
-1.15
-1.14
-1.02
-0.87
-0.74
-0.63
-0.51
-0.37
-0.20
-0.06
0.04
0.07
0.08
0.15
0.33
0.61
0.93
1.18
1.24
1.10
0.80
0.46
0.19
0.05
0.07
0.19
0.36
0.55
0.76
0.95
1.11
1.18
1.12
0.89
0.52
0.09
-0.31
-0.55
-0.54
-0.30
0.10
0.49
0.76
0.83
0.73
0.55
0.39
0.30
0.23
0.09
-0.24
-0.78
-1.46
-2.09
-2.47
-2.43
-1.95
-1.14
-0.25
0.46
0.82
0.80
0.54
0.23
0.02
-0.04
-0.01
0.00
-0.04
-0.10
-0.11
0.02
0.27
0.53
0.65
0.56
0.31
0.07
-0.02
0.10
0.33
0.49
0.44
0.17
-0.17
-0.39
-0.38
-0.20
0.01
0.09
0.02
-0.09
-0.11
0.05
0.34
0.58
0.64
0.46
0.09
-0.32
-0.67
-0.90
-1.03
-1.10
-1.13
-1.14
-1.10
-1.00
-0.86
-0.67
-0.45
-0.21
0.04
0.30
0.55
0.80
1.02
1.19
1.28
1.24
1.09
0.84
0.55
0.30
0.12
0.03
0.02
0.07
0.16
0.26
0.36
0.42
0.42
0.33
0.14
-0.11
-0.35
-0.55
-0.65
-0.66
-0.61
-0.58
-0.61
-0.70
-0.84
-0.96
-1.03
-1.04
-1.04
-1.05
-1.08
-1.08
-1.00
-0.86
-0.72
-0.70
-0.90
-1.30
-1.80
-2.23
-2.49
-2.54
-2.44
-2.24
-1.99
-1.69
-1.35
-1.01
-0.76
-0.66
-0.70
-0.82
-0.94
-1.01
-1.06
-1.14
-1.31
-1.54
-1.76
-1.89
-1.89
-1.76
-1.51
-1.15
-0.67
-0.05
0.67
1.41
2.03
2.47
2.72
2.87
3.03
3.26
3.49
3.59
3.43
3.00
2.37
1.74
1.26
0.98
0.87
0.82
0.76
0.64
0.47
0.26
0.03
-0.19
-0.34
-0.37
-0.26
-0.04
0.24
0.51
0.74
0.93
1.08
1.17
1.17
1.06
0.87
0.68
0.55
0.46
0.38
0.24
0.07
-0.05
-0.00
0.27
0.69
1.09
1.27
1.15
0.78
0.29
-0.14
-0.40
-0.45
-0.32
-0.10
0.13
0.28
0.33
0.27
0.14
-0.04
-0.20
-0.32
-0.39
-0.46
-0.54
-0.66
-0.78
-0.86
-0.85
-0.75
-0.60
-0.50
-0.51
-0.62
-0.74
-0.77
-0.59
-0.19
0.35
0.87
1.22
1.28
1.05
0.62
0.14
-0.20
-0.29
-0.14
0.15
0.42
0.54
0.49
0.39
0.35
0.48
0.71
0.92
0.96
0.76
0.37
-0.08
-0.47
-0.71
-0.80
-0.77
-0.66
-0.50
-0.32
-0.15
-0.05
-0.06
-0.18
-0.38
-0.62
-0.85
-1.08
-1.28
-1.45
-1.53
-1.49
-1.33
-1.09
-0.85
-0.66
-0.53
-0.44
-0.34
-0.21
-0.03
0.18
0.42
0.66
0.89
1.05
1.10
1.00
0.78
0.54
0.40
0.44
0.67
0.99
1.27
1.39
1.31
1.07
0.78
0.53
0.34
0.18
-0.01
-0.25
-0.52
-0.76
-0.89
-0.89
-0.80
-0.71
-0.69
-0.78
-0.94
-1.10
-1.17
-1.15
-1.06
-0.98
-0.97
-1.03
-1.12
-1.13
-0.99
-0.68
-0.26
0.15
0.43
0.55
0.55
0.52
0.58
0.77
1.06
1.34
1.53
1.55
1.40
1.13
0.83
0.57
0.41
0.32
0.30
0.29
0.27
0.24
0.22
0.26
0.38
0.57
0.77
0.92
0.97
0.89
0.71
0.47
0.22
0.01
-0.15
-0.27
-0.36
-0.42
-0.45
-0.43
-0.37
-0.34
-0.39
-0.57
-0.88
-1.24
-1.54
-1.70
-1.68
-1.49
-1.19
-0.83
-0.46
-0.07
0.31
0.66
0.90
0.98
0.87
0.63
0.35
0.15
0.11
0.22
0.43
0.58
0.54
0.25
-0.24
-0.79
-1.23
-1.44
-1.42
-1.27
-1.14
-1.16
-1.39
-1.76
-2.17
-2.47
-2.60
-2.56
-2.41
-2.28
-2.21
-2.22
-2.24
-2.17
-1.94
-1.51
-0.93
-0.29
0.30
0.74
0.97
1.04
1.04
1.11
1.37
1.85
2.47
3.08
3.48
3.59
3.40
2.96
2.38
1.77
1.22
0.81
0.60
0.62
0.85
1.20
1.54
1.77
1.84
1.77
1.60
1.37
1.12
0.87
0.62
0.42
0.28
0.22
0.24
0.30
0.34
0.30
0.12
-0.19
-0.59
-0.97
-1.22
-1.29
-1.18
-0.98
-0.82
-0.80
-0.94
-1.16
-1.33
-1.34
-1.14
-0.76
-0.30
0.14
0.48
0.69
0.79
0.81
0.81
0.82
0.86
0.90
0.92
0.88
0.76
0.58
0.40
0.26
0.18
0.19
0.27
0.41
0.60
0.78
0.87
0.81
0.57
0.20
-0.17
-0.43
-0.48
-0.33
-0.05
0.25
0.45
0.49
0.37
0.16
-0.12
-0.40
-0.67
-0.92
-1.17
-1.43
-1.72
-2.02
-2.27
-2.37
-2.25
-1.83
-1.14
-0.29
0.57
1.25
1.63
1.70
1.52
1.24
1.00
0.85
0.77
0.71
0.61
0.47
0.33
0.25
0.28
0.38
0.49
0.52
0.41
0.20
-0.04
-0.19
-0.20
-0.07
0.16
0.39
0.54
0.56
0.44
0.22
-0.03
-0.22
-0.33
-0.37
-0.42
-0.52
-0.66
-0.78
-0.81
-0.70
-0.48
-0.26
-0.14
-0.22
-0.52
-0.93
-1.33
-1.57
-1.54
-1.22
-0.66
0.01
0.64
1.09
1.30
1.30
1.16
0.99
0.83
0.69
0.54
0.40
0.31
0.34
0.53
0.86
1.22
1.49
1.55
1.37
1.03
0.63
0.25
-0.07
-0.34
-0.54
-0.65
-0.64
-0.47
-0.22
-0.00
0.05
-0.12
-0.49
-0.94
-1.32
-1.56
-1.63
-1.60
-1.54
-1.51
-1.50
-1.47
-1.37
-1.18
-0.93
-0.70
-0.57
-0.58
-0.65
-0.66
-0.51
-0.12
0.40
0.90
1.20
1.25
1.12
0.97
0.95
1.10
1.32
1.49
1.49
1.34
1.09
0.81
0.53
0.25
-0.01
-0.24
-0.38
-0.41
-0.37
-0.33
-0.35
-0.45
-0.58
-0.68
-0.69
-0.60
-0.43
-0.23
-0.04
0.09
0.14
0.04
-0.21
-0.59
-1.02
-1.42
-1.72
-1.88
-1.89
-1.76
-1.49
-1.10
-0.68
-0.30
-0.08
-0.07
-0.27
-0.60
-0.99
-1.33
-1.57
-1.68
-1.66
-1.54
-1.35
-1.14
-0.93
-0.71
-0.52
-0.37
-0.32
-0.39
-0.57
-0.77
-0.89
-0.84
-0.56
-0.10
0.42
0.90
1.24
1.38
1.34
1.15
0.89
0.66
0.55
0.62
0.83
1.10
1.34
1.46
1.44
1.28
1.05
0.80
0.60
0.50
0.54
0.73
1.05
1.46
1.88
2.23
2.44
2.47
2.30
1.96
1.50
1.04
0.68
0.53
0.58
0.77
1.00
1.11
1.04
0.75
0.31
-0.15
-0.51
-0.68
-0.61
-0.35
-0.03
0.24
0.35
0.26
0.02
-0.27
-0.49
-0.58
-0.54
-0.45
-0.37
-0.36
-0.43
-0.56
-0.73
-0.89
-1.03
-1.13
-1.18
-1.17
-1.09
-0.91
-0.66
-0.34
0.01
0.35
0.66
0.94
1.17
1.36
1.49
1.50
1.36
1.08
0.68
0.27
-0.07
-0.24
-0.24
-0.10
0.10
0.30
0.46
0.56
0.64
0.68
0.70
0.66
0.55
0.35
0.07
-0.24
-0.52
-0.67
-0.66
-0.46
-0.14
0.17
0.35
0.30
0.01
-0.42
-0.83
-1.11
-1.22
-1.19
-1.15
-1.18
-1.28
-1.36
-1.30
-0.99
-0.45
0.18
0.77
1.18
1.37
1.39
1.36
1.37
1.45
1.58
1.68
1.69
1.62
1.49
1.36
1.25
1.12
0.90
0.51
-0.04
-0.67
-1.19
-1.46
-1.41
-1.11
-0.72
-0.44
-0.37
-0.50
-0.70
-0.83
-0.82
-0.73
-0.65
-0.65
-0.76
-0.89
-0.98
-0.98
-0.95
-0.96
-1.09
-1.30
-1.49
-1.53
-1.35
-0.97
-0.48
-0.04
0.26
0.39
0.36
0.22
0.06
-0.06
-0.07
0.09
0.40
0.78
1.11
1.29
1.28
1.14
0.97
0.84
0.73
0.60
0.37
0.07
-0.24
-0.42
-0.41
-0.24
-0.04
0.05
-0.03
-0.23
-0.43
-0.50
-0.42
-0.26
-0.15
-0.18
-0.38
-0.68
-0.97
-1.16
-1.18
-1.04
-0.79
-0.51
-0.24
-0.03
0.14
0.24
0.31
0.33
0.32
0.30
0.31
0.39
0.56
0.77
0.95
1.00
0.87
0.61
0.30
0.09
0.04
0.12
0.26
0.39
0.49
0.60
0.78
1.04
1.29
1.41
1.30
0.93
0.42
-0.08
-0.42
-0.57
-0.54
-0.44
-0.36
-0.31
-0.34
-0.42
-0.57
-0.79
-1.06
-1.34
-1.56
-1.63
-1.51
-1.20
-0.77
-0.30
0.09
0.33
0.40
0.33
0.21
0.16
0.21
0.36
0.51
0.57
0.50
0.34
0.22
0.22
0.41
0.71
0.99
1.12
1.03
0.77
0.45
0.16
-0.03
-0.17
-0.30
-0.50
-0.74
-0.98
-1.16
-1.22
-1.19
-1.11
-1.04
-1.00
-0.99
-0.97
-0.95
-0.94
-0.94
-0.94
-0.94
-0.88
-0.75
-0.55
-0.28
0.04
0.41
0.83
1.27
1.67
1.90
1.88
1.58
1.05
0.42
-0.18
-0.63
-0.92
-1.03
-0.99
-0.84
-0.61
-0.33
-0.05
0.19
0.37
0.49
0.56
0.58
0.52
0.38
0.17
-0.04
-0.18
-0.18
-0.06
0.10
0.18
0.10
-0.14
-0.48
-0.81
-1.07
-1.19
-1.20
-1.14
-1.07
-1.05
-1.09
-1.19
-1.26
-1.20
-0.90
-0.36
0.34
1.01
1.42
1.48
1.21
0.74
0.28
-0.04
-0.17
-0.15
-0.04
0.10
0.27
0.46
0.65
0.80
0.86
0.77
0.56
0.26
-0.06
-0.35
-0.61
-0.84
-1.07
-1.31
-1.53
-1.71
-1.78
-1.73
-1.57
-1.38
-1.30
-1.42
-1.80
-2.36
-2.95
-3.40
-3.59
-3.51
-3.27
-2.96
-2.65
-2.30
-1.84
-1.18
-0.36
0.53
1.35
1.99
2.42
2.69
2.87
3.01
3.13
3.22
3.26
3.25
3.21
3.12
2.96
2.70
2.37
2.02
1.72
1.53
1.47
1.45
1.38
1.20
0.93
0.65
0.45
0.37
0.38
0.36
0.23
-0.05
-0.44
-0.82
-1.07
-1.13
-1.00
-0.76
-0.49
-0.24
-0.03
0.14
0.25
0.29
0.26
0.17
0.08
0.03
0.08
0.23
0.44
0.64
0.77
0.78
0.67
0.50
0.36
0.32
0.40
0.57
0.77
0.90
0.94
0.88
0.73
0.53
0.34
0.15
-0.00
-0.15
-0.34
-0.59
-0.91
-1.22
-1.42
-1.41
-1.15
-0.71
-0.24
0.12
0.28
0.22
0.01
-0.24
-0.42
-0.47
-0.38
-0.21
-0.01
0.12
0.17
0.16
0.15
0.17
0.21
0.21
0.11
-0.08
-0.29
-0.42
-0.38
-0.16
0.16
0.47
0.67
0.69
0.59
0.41
0.25
0.17
0.20
0.31
0.44
0.50
0.44
0.26
0.06
-0.10
-0.17
-0.15
-0.12
-0.15
-0.27
-0.46
-0.65
-0.78
-0.83
-0.85
-0.85
-0.87
-0.85
-0.76
-0.56
-0.22
0.21
0.66
1.08
1.40
1.57
1.54
1.34
0.98
0.58
0.20
-0.09
-0.26
-0.32
-0.32
-0.29
-0.26
-0.24
-0.23
-0.20
-0.15
-0.06
0.06
0.15
0.19
0.19
0.20
0.29
0.49
0.78
1.06
1.22
1.18
0.94
0.57
0.19
-0.13
-0.35
-0.48
-0.56
-0.64
-0.73
-0.83
-0.93
-0.98
-0.95
-0.79
-0.52
-0.16
0.22
0.55
0.77
0.87
0.87
0.80
0.69
0.58
0.48
0.39
0.33
0.31
0.34
0.40
0.46
0.47
0.40
0.26
0.08
-0.08
-0.20
-0.29
-0.39
-0.55
-0.74
-0.88
-0.91
-0.78
-0.56
-0.36
-0.28
-0.38
-0.60
-0.82
-0.93
-0.90
-0.80
-0.73
-0.74
-0.80
-0.81
-0.67
-0.35
0.07
0.46
0.70
0.73
0.59
0.34
0.06
-0.17
-0.33
-0.40
-0.38
-0.28
-0.12
0.05
0.19
0.26
0.27
0.25
0.24
0.28
0.35
0.42
0.46
0.41
0.28
0.09
-0.10
-0.26
-0.40
-0.56
-0.77
-1.00
-1.15
-1.11
-0.83
-0.38
0.04
0.22
0.07
-0.34
-0.83
-1.19
-1.28
-1.14
-0.89
-0.68
-0.56
-0.52
-0.46
-0.30
-0.04
0.28
0.57
0.78
0.88
0.88
0.81
0.69
0.55
0.44
0.39
0.43
0.53
0.62
0.64
0.55
0.38
0.21
0.12
0.12
0.20
0.28
0.31
0.28
0.20
0.10
0.01
-0.02
0.02
0.12
0.26
0.37
0.38
0.26
0.00
-0.31
-0.60
-0.79
-0.89
-0.94
-1.03
-1.20
-1.42
-1.55
-1.48
-1.12
-0.51
0.19
0.81
1.22
1.40
1.40
1.30
1.14
0.90
0.55
0.15
-0.16
-0.25
-0.06
0.33
0.72
0.92
0.85
0.58
0.27
0.09
0.09
0.23
0.38
0.41
0.25
-0.06
-0.42
-0.73
-0.88
-0.84
-0.65
-0.38
-0.15
-0.00
0.03
-0.02
-0.16
-0.37
-0.64
-0.99
-1.35
-1.65
-1.81
-1.78
-1.56
-1.20
-0.77
-0.38
-0.06
0.16
0.30
0.40
0.48
0.56
0.62
0.66
0.66
0.64
0.66
0.73
0.84
0.91
0.86
0.63
0.25
-0.16
-0.47
-0.57
-0.47
-0.24
0.02
0.21
0.32
0.37
0.41
0.45
0.50
0.56
0.60
0.63
0.60
0.48
0.25
-0.09
-0.49
-0.85
-1.09
-1.17
-1.14
-1.05
-0.97
-0.89
-0.80
-0.64
-0.43
-0.19
0.03
0.20
0.32
0.43
0.51
0.57
0.55
0.45
0.26
0.02
-0.22
-0.44
-0.59
-0.63
-0.52
-0.24
0.16
0.58
0.87
0.95
0.78
0.45
0.11
-0.13
-0.20
-0.12
0.05
0.24
0.38
0.44
0.43
0.35
0.18
-0.06
-0.36
-0.68
-0.96
-1.15
-1.22
-1.17
-1.08
-1.01
-1.03
-1.14
-1.31
-1.45
-1.49
-1.33
-0.96
-0.44
0.12
0.61
0.92
1.00
0.89
0.65
0.33
-0.01
-0.33
-0.58
-0.73
-0.77
-0.71
-0.61
-0.50
-0.43
-0.40
-0.39
-0.36
-0.30
-0.23
-0.18
-0.22
-0.36
-0.59
-0.85
-1.05
-1.12
-1.03
-0.82
-0.60
-0.46
-0.44
-0.50
-0.49
-0.27
0.23
0.96
1.75
2.38
2.67
2.56
2.15
1.62
1.15
0.86
0.75
0.75
0.78
0.79
0.80
0.85
0.95
1.07
1.16
1.17
1.11
1.02
0.95
0.95
1.02
1.13
1.22
1.26
1.22
1.09
0.90
0.68
0.49
0.37
0.33
0.35
0.39
0.41
0.39
0.31
0.20
0.04
-0.15
-0.38
-0.58
-0.70
-0.69
-0.57
-0.40
-0.28
-0.30
-0.46
-0.71
-0.94
-1.04
-0.98
-0.80
-0.58
-0.39
-0.26
-0.13
0.03
0.26
0.53
0.74
0.79
0.66
0.38
0.08
-0.10
-0.08
0.16
0.56
0.97
1.27
1.37
1.20
0.81
0.28
-0.24
-0.61
-0.73
-0.59
-0.27
0.10
0.36
0.44
0.32
0.08
-0.16
-0.32
-0.34
-0.26
-0.18
-0.19
-0.36
-0.65
-0.96
-1.20
-1.32
-1.33
-1.29
-1.25
-1.19
-1.03
-0.71
-0.23
0.31
0.75
0.98
0.94
0.72
0.43
0.18
0.04
-0.02
0.00
0.08
0.22
0.40
0.62
0.82
0.98
1.07
1.09
1.03
0.89
0.67
0.39
0.08
-0.20
-0.39
-0.48
-0.47
-0.37
-0.20
0.01
0.19
0.25
0.12
-0.21
-0.63
-0.98
-1.12
-1.02
-0.79
-0.62
-0.67
-0.98
-1.39
-1.69
-1.68
-1.31
-0.69
-0.05
0.43
0.64
0.64
0.56
0.50
0.52
0.59
0.61
0.55
0.40
0.25
0.18
0.23
0.38
0.56
0.69
0.76
0.79
0.79
0.80
0.79
0.72
0.59
0.42
0.26
0.19
0.22
0.33
0.46
0.52
0.45
0.24
-0.06
-0.39
-0.69
-0.93
-1.12
-1.28
-1.38
-1.38
-1.22
-0.90
-0.48
-0.07
0.23
0.41
0.51
0.60
0.73
0.85
0.86
0.70
0.34
-0.09
-0.48
-0.67
-0.62
-0.35
0.04
0.46
0.82
1.04
1.10
0.97
0.72
0.41
0.15
0.01
0.00
0.09
0.18
0.20
0.11
-0.06
-0.24
-0.38
-0.47
-0.50
-0.50
-0.46
-0.41
-0.35
-0.34
-0.39
-0.54
-0.75
-0.97
-1.11
-1.14
-1.02
-0.79
-0.49
-0.19
0.05
0.20
0.25
0.22
0.17
0.14
0.18
0.29
0.44
0.59
0.69
0.73
0.71
0.65
0.59
0.56
0.58
0.62
0.62
0.53
0.36
0.15
-0.05
-0.19
-0.28
-0.37
-0.50
-0.66
-0.80
-0.84
-0.78
-0.66
-0.61
-0.69
-0.90
-1.15
-1.32
-1.33
-1.21
-1.08
-1.06
-1.21
-1.48
-1.72
-1.81
-1.68
-1.40
-1.07
-0.81
-0.68
-0.66
-0.71
-0.77
-0.79
-0.76
-0.71
-0.69
-0.73
-0.84
-0.99
-1.10
-1.08
-0.93
-0.68
-0.44
-0.30
-0.29
-0.34
-0.35
-0.20
0.12
0.59
1.11
1.63
2.09
2.46
2.69
2.73
2.55
2.15
1.61
1.05
0.58
0.25
0.08
0.03
0.07
0.15
0.26
0.39
0.49
0.52
0.44
0.26
0.04
-0.13
-0.16
0.01
0.38
0.85
1.32
1.64
1.75
1.62
1.31
0.92
0.57
0.33
0.22
0.17
0.12
0.05
-0.01
0.04
0.26
0.62
1.02
1.31
1.36
1.16
0.79
0.38
0.03
-0.23
-0.40
-0.48
-0.46
-0.35
-0.12
0.17
0.43
0.61
0.67
0.63
0.54
0.42
0.26
0.02
-0.30
-0.65
-0.95
-1.09
-1.07
-0.94
-0.79
-0.66
-0.57
-0.42
-0.13
0.33
0.90
1.45
1.81
1.91
1.76
1.48
1.19
0.97
0.84
0.71
0.49
0.14
-0.29
-0.69
-0.94
-0.94
-0.71
-0.34
0.06
0.37
0.53
0.54
0.40
0.16
-0.13
-0.41
-0.64
-0.80
-0.92
-1.01
-1.10
-1.19
-1.24
-1.24
-1.19
-1.11
-1.05
-1.07
-1.21
-1.46
-1.77
-2.01
-2.07
-1.82
-1.25
-0.45
0.37
1.00
1.28
1.21
0.93
0.63
0.50
0.64
0.99
1.43
1.79
1.94
1.84
1.54
1.17
0.86
0.71
0.70
0.75
0.74
0.58
0.27
-0.12
-0.47
-0.69
-0.75
-0.67
-0.53
-0.40
-0.35
-0.39
-0.55
-0.84
-1.23
-1.69
-2.12
-2.41
-2.47
-2.27
-1.82
-1.23
-0.61
-0.07
0.36
0.67
0.88
1.04
1.16
1.26
1.36
1.46
1.55
1.59
1.51
1.29
0.93
0.52
0.16
-0.07
-0.14
-0.07
0.10
0.34
0.63
0.94
1.23
1.40
1.39
1.17
0.78
0.31
-0.13
-0.52
-0.83
-1.06
-1.17
-1.15
-1.01
-0.85
-0.75
-0.79
-0.99
-1.25
-1.42
-1.39
-1.13
-0.72
-0.26
0.18
0.58
0.97
1.34
1.62
1.74
1.62
1.31
0.92
0.60
0.47
0.49
0.55
0.53
0.36
0.07
-0.22
-0.42
-0.49
-0.48
-0.43
-0.38
-0.33
-0.25
-0.14
0.00
0.13
0.23
0.28
0.30
0.26
0.15
-0.05
-0.32
-0.58
-0.76
-0.81
-0.72
-0.59
-0.49
-0.49
-0.57
-0.67
-0.71
-0.64
-0.47
-0.24
-0.00
0.21
0.38
0.48
0.52
0.48
0.39
0.30
0.27
0.35
0.52
0.72
0.88
0.93
0.86
0.73
0.58
0.44
0.29
0.08
-0.24
-0.67
-1.14
-1.55
-1.81
-1.86
-1.72
-1.48
-1.27
-1.21
-1.32
-1.56
-1.78
-1.88
-1.79
-1.54
-1.25
-1.04
-0.95
-0.95
-0.95
-0.86
-0.71
-0.57
-0.52
-0.61
-0.79
-0.97
-1.07
-1.07
-0.99
-0.90
-0.82
-0.74
-0.59
-0.34
0.01
0.40
0.74
0.98
1.08
1.09
1.08
1.11
1.24
1.43
1.65
1.79
1.79
1.58
1.21
0.74
0.28
-0.09
-0.33
-0.42
-0.40
-0.29
-0.14
-0.01
0.07
0.05
-0.03
-0.09
-0.02
0.25
0.68
1.17
1.53
1.63
1.47
1.17
0.92
0.88
1.05
1.36
1.62
1.74
1.67
1.52
1.38
1.34
1.35
1.31
1.10
0.71
0.22
-0.21
-0.45
-0.46
-0.34
-0.24
-0.27
-0.46
-0.72
-0.92
-0.97
-0.87
-0.71
-0.55
-0.46
-0.45
-0.48
-0.53
-0.57
-0.60
-0.60
-0.55
-0.43
-0.25
-0.04
0.13
0.23
0.24
0.21
0.18
0.19
0.24
0.30
0.32
0.29
0.21
0.11
0.04
0.01
0.05
0.17
0.34
0.53
0.67
0.69
0.56
0.30
-0.01
-0.26
-0.38
-0.39
-0.36
-0.40
-0.57
-0.85
-1.12
-1.29
-1.29
-1.14
-0.91
-0.69
-0.54
-0.49
-0.53
-0.62
-0.75
-0.87
-0.94
-0.96
-0.90
-0.76
-0.54
-0.25
0.10
0.53
1.00
1.46
1.82
1.98
1.92
1.65
1.26
0.86
0.52
0.29
0.17
0.12
0.15
0.24
0.44
0.71
1.02
1.31
1.48
1.50
1.36
1.08
0.72
0.34
0.00
-0.25
-0.40
-0.48
-0.53
-0.58
-0.68
-0.83
-1.02
-1.24
-1.48
-1.75
-2.04
-2.34
-2.58
-2.70
-2.61
-2.27
-1.67
-0.88
-0.01
0.78
1.35
1.60
1.53
1.24
0.87
0.60
0.51
0.61
0.82
1.03
1.12
1.09
0.98
0.87
0.83
0.83
0.83
0.76
0.61
0.43
0.28
0.24
0.29
0.41
0.55
0.66
0.71
0.68
0.56
0.37
0.15
-0.06
-0.19
-0.22
-0.20
-0.19
-0.25
-0.41
-0.65
-0.90
-1.12
-1.28
-1.34
-1.28
-1.10
-0.79
-0.40
-0.01
0.26
0.37
0.36
0.29
0.25
0.28
0.32
0.28
0.13
-0.09
-0.24
-0.19
0.08
0.50
0.87
1.02
0.88
0.51
0.06
-0.30
-0.49
-0.46
-0.27
-0.02
0.21
0.33
0.29
0.10
-0.16
-0.40
-0.52
-0.46
-0.30
-0.15
-0.14
-0.33
-0.68
-1.12
-1.52
-1.80
-1.92
-1.88
-1.71
-1.51
-1.37
-1.41
-1.67
-2.06
-2.41
-2.55
-2.34
-1.80
-1.10
-0.44
-0.02
0.07
-0.14
-0.54
-0.97
-1.30
-1.43
-1.30
-0.95
-0.45
0.08
0.54
0.86
1.05
1.16
1.23
1.29
1.35
1.40
1.43
1.49
1.59
1.73
1.88
1.97
1.96
1.84
1.62
1.34
1.03
0.70
0.38
0.12
-0.02
-0.03
0.07
0.21
0.29
0.25
0.09
-0.12
-0.32
-0.42
-0.42
-0.34
-0.24
-0.15
-0.08
0.01
0.16
0.37
0.59
0.74
0.75
0.60
0.31
-0.02
-0.26
-0.34
-0.24
0.01
0.32
0.61
0.81
0.91
0.91
0.83
0.67
0.45
0.21
-0.01
-0.15
-0.15
0.01
0.28
0.61
0.88
1.01
0.94
0.69
0.32
-0.06
-0.33
-0.44
-0.42
-0.33
-0.28
-0.32
-0.47
-0.69
-0.91
-1.10
-1.25
-1.36
-1.38
-1.28
-1.03
-0.62
-0.12
0.40
0.85
1.19
1.37
1.37
1.19
0.87
0.50
0.20
0.08
0.17
0.43
0.72
0.91
0.92
0.74
0.47
0.21
0.03
-0.06
-0.08
-0.02
0.11
0.34
0.62
0.85
0.91
0.72
0.29
-0.28
-0.85
-1.28
-1.51
-1.57
-1.50
-1.34
-1.16
-1.01
-0.93
-0.96
-1.07
-1.22
-1.33
-1.37
-1.34
-1.27
-1.15
-0.99
-0.75
-0.45
-0.16
0.06
0.19
0.25
0.32
0.46
0.68
0.92
1.06
1.05
0.86
0.58
0.31
0.15
0.16
0.32
0.56
0.78
0.88
0.82
0.63
0.37
0.11
-0.08
-0.17
-0.17
-0.10
-0.02
0.01
-0.08
-0.31
-0.66
-1.06
-1.41
-1.64
-1.73
-1.70
-1.60
-1.47
-1.34
-1.22
-1.10
-0.99
-0.88
-0.73
-0.56
-0.35
-0.11
0.13
0.36
0.59
0.82
1.06
1.25
1.36
1.36
1.26
1.10
0.91
0.73
0.56
0.45
0.40
0.43
0.49
0.53
0.47
0.30
0.09
-0.11
-0.20
-0.19
-0.14
-0.11
-0.15
-0.24
-0.33
-0.40
-0.46
-0.52
-0.59
-0.64
-0.63
-0.53
-0.38
-0.26
-0.24
-0.35
-0.59
-0.88
-1.16
-1.33
-1.33
-1.12
-0.69
-0.12
0.45
0.86
0.98
0.82
0.47
0.12
-0.07
-0.04
0.17
0.45
0.66
0.75
0.75
0.74
0.81
1.00
1.26
1.49
1.59
1.52
1.28
0.99
0.74
0.58
0.50
0.42
0.29
0.08
-0.16
-0.36
-0.47
-0.48
-0.43
-0.37
-0.33
-0.33
-0.35
-0.41
-0.54
-0.76
-1.04
-1.32
-1.51
-1.54
-1.36
-1.00
-0.52
0.00
0.51
0.94
1.28
1.51
1.59
1.53
1.31
1.00
0.65
0.33
0.14
0.12
0.26
0.52
0.79
0.96
0.97
0.80
0.53
0.25
0.04
-0.04
-0.01
0.07
0.14
0.16
0.10
-0.02
-0.18
-0.34
-0.48
-0.59
-0.66
-0.73
-0.79
-0.86
-0.93
-1.02
-1.14
-1.28
-1.39
-1.37
-1.18
-0.79
-0.29
0.18
0.51
0.68
0.72
0.73
0.74
0.76
0.71
0.58
0.38
0.20
0.17
0.31
0.59
0.88
1.04
1.00
0.78
0.49
0.26
0.20
0.33
0.59
0.84
0.95
0.85
0.54
0.11
-0.29
-0.54
-0.59
-0.49
-0.33
-0.20
-0.17
-0.25
-0.43
-0.71
-1.08
-1.50
-1.88
-2.08
-1.98
-1.57
-0.95
-0.30
0.22
0.54
0.72
0.82
0.89
0.88
0.73
0.41
-0.02
-0.41
-0.60
-0.52
-0.21
0.19
0.55
0.78
0.86
0.81
0.68
0.50
0.33
0.19
0.13
0.17
0.32
0.54
0.79
1.00
1.07
0.94
0.59
0.07
-0.49
-0.96
-1.23
-1.29
-1.22
-1.14
-1.12
-1.17
-1.22
-1.19
-1.04
-0.81
-0.58
-0.41
-0.30
-0.21
-0.06
0.22
0.62
1.07
1.47
1.73
1.77
1.61
1.29
0.91
0.55
0.25
0.04
-0.10
-0.20
-0.26
-0.26
-0.20
-0.05
0.14
0.33
0.46
0.48
0.41
0.29
0.13
-0.04
-0.24
-0.46
-0.66
-0.77
-0.73
-0.55
-0.29
-0.04
0.10
0.11
-0.01
-0.24
-0.56
-0.96
-1.36
-1.65
-1.70
-1.45
-0.94
-0.32
0.25
0.65
0.86
0.95
0.98
0.98
0.91
0.76
0.54
0.33
0.23
0.27
0.43
0.61
0.71
0.69
0.57
0.46
0.45
0.57
0.78
0.97
1.06
0.99
0.78
0.50
0.23
0.02
-0.10
-0.16
-0.19
-0.21
-0.21
-0.17
-0.06
0.08
0.19
0.20
0.04
-0.28
-0.68
-1.06
-1.31
-1.41
-1.38
-1.25
-1.08
-0.87
-0.60
-0.30
0.02
0.25
0.33
0.23
0.03
-0.15
-0.16
0.05
0.41
0.80
1.07
1.18
1.17
1.12
1.10
1.11
1.13
1.07
0.91
0.67
0.39
0.11
-0.14
-0.34
-0.47
-0.52
-0.47
-0.36
-0.22
-0.11
-0.06
-0.09
-0.18
-0.32
-0.49
-0.68
-0.87
-1.06
-1.24
-1.43
-1.63
-1.85
-2.07
-2.24
-2.29
-2.12
-1.67
-0.96
-0.11
0.68
1.19
1.29
1.00
0.47
-0.08
-0.45
-0.58
-0.51
-0.35
-0.19
-0.03
0.17
0.44
0.75
0.98
1.02
0.79
0.32
-0.24
-0.74
-1.05
-1.15
-1.10
-1.01
-0.98
-1.04
-1.20
-1.44
-1.71
-2.00
-2.26
-2.45
-2.52
-2.45
-2.25
-1.95
-1.61
-1.27
-0.96
-0.70
-0.49
-0.31
-0.09
0.22
0.65
1.21
1.80
2.31
2.64
2.75
2.65
2.46
2.27
2.15
2.11
2.09
2.01
1.85
1.63
1.42
1.29
1.25
1.27
1.26
1.18
1.03
0.86
0.76
0.76
0.83
0.90
0.87
0.71
0.40
0.00
-0.42
-0.79
-1.05
-1.16
-1.13
-1.00
-0.80
-0.61
-0.44
-0.33
-0.30
-0.37
-0.56
-0.84
-1.14
-1.37
-1.44
-1.34
-1.09
-0.75
-0.39
-0.03
0.33
0.66
0.94
1.11
1.17
1.13
1.02
0.93
0.88
0.87
0.87
0.81
0.70
0.50
0.25
0.00
-0.18
-0.21
-0.03
0.38
0.91
1.43
1.74
1.76
1.48
1.03
0.58
0.25
0.11
0.11
0.17
0.21
0.20
0.14
0.05
-0.09
-0.29
-0.59
-0.96
-1.31
-1.56
-1.62
-1.48
-1.23
-1.00
-0.88
-0.91
-0.99
-0.98
-0.78
-0.34
0.27
0.92
1.50
1.92
2.14
2.19
2.08
1.88
1.65
1.46
1.36
1.36
1.40
1.39
1.27
1.01
0.63
0.20
-0.21
-0.55
-0.82
-1.00
-1.08
-1.03
-0.87
-0.70
-0.63
-0.77
-1.14
-1.65
-2.10
-2.31
-2.20
-1.80
-1.28
-0.83
-0.59
-0.61
-0.84
-1.19
-1.54
-1.79
-1.83
-1.61
-1.12
-0.47
0.21
0.77
1.12
1.23
1.17
0.99
0.76
0.50
0.26
0.06
-0.05
-0.03
0.14
0.41
0.70
0.87
0.86
0.65
0.30
-0.10
-0.49
-0.81
-1.08
-1.32
-1.56
-1.80
-2.02
-2.16
-2.20
-2.16
-2.03
-1.83
-1.53
-1.11
-0.59
-0.00
0.54
0.90
1.01
0.83
0.45
0.01
-0.35
-0.52
-0.42
-0.06
0.51
1.21
1.90
2.43
2.69
2.65
2.36
1.94
1.50
1.12
0.81
0.59
0.47
0.48
0.68
1.01
1.36
1.57
1.51
1.21
0.78
0.37
0.12
0.03
0.06
0.13
0.20
0.26
0.32
0.37
0.35
0.25
0.06
-0.15
-0.32
-0.40
-0.40
-0.37
-0.38
-0.49
-0.69
-0.96
-1.21
-1.37
-1.34
-1.08
-0.62
-0.04
0.55
1.07
1.48
1.79
2.03
2.19
2.23
2.09
1.76
1.26
0.70
0.17
-0.27
-0.58
-0.76
-0.84
-0.81
-0.69
-0.47
-0.21
0.06
0.28
0.39
0.35
0.17
-0.15
-0.53
-0.89
-1.14
-1.19
-1.05
-0.76
-0.40
-0.07
0.16
0.27
0.27
0.18
0.04
-0.11
-0.24
-0.30
-0.29
-0.20
-0.03
0.18
0.41
0.65
0.88
1.08
1.21
1.24
1.14
0.92
0.63
0.33
0.12
0.06
0.16
0.36
0.56
0.64
0.55
0.29
-0.04
-0.34
-0.55
-0.65
-0.69
-0.72
-0.77
-0.87
-0.99
-1.11
-1.21
-1.26
-1.29
-1.34
-1.51
-1.85
-2.35
-2.89
-3.27
-3.30
-2.93
-2.25
-1.43
-0.69
-0.12
0.26
0.51
0.66
0.70
0.58
0.28
-0.15
-0.57
-0.87
-0.96
-0.90
-0.79
-0.75
-0.83
-0.99
-1.11
-1.08
-0.89
-0.58
-0.26
-0.04
0.06
0.06
0.01
-0.04
-0.08
-0.12
-0.11
-0.01
0.21
0.55
0.93
1.21
1.33
1.28
1.09
0.85
0.61
0.38
0.15
-0.06
-0.22
-0.28
-0.20
0.00
0.33
0.73
1.17
1.55
1.81
1.85
1.67
1.31
0.89
0.55
0.36
0.32
0.38
0.50
0.71
1.01
1.40
1.84
2.18
2.32
2.17
1.76
1.19
0.57
0.03
-0.37
-0.59
-0.64
-0.54
-0.34
-0.13
0.00
-0.03
-0.30
-0.76
-1.31
-1.76
-1.94
-1.76
-1.25
-0.58
0.06
0.50
0.68
0.68
0.60
0.54
0.50
0.45
0.34
0.18
0.01
-0.12
-0.19
-0.18
-0.13
-0.02
0.11
0.23
0.31
0.30
0.21
0.06
-0.06
-0.08
-0.03
0.04
0.05
-0.03
-0.13
-0.14
0.02
0.31
0.58
0.65
0.38
-0.21
-0.95
-1.62
-2.01
-2.00
-1.64
-1.03
-0.36
0.24
0.63
0.81
0.79
0.68
0.55
0.49
0.51
0.58
0.65
0.68
0.65
0.58
0.50
0.43
0.39
0.38
0.42
0.50
0.62
0.76
0.88
0.95
0.94
0.83
0.63
0.35
0.00
-0.38
-0.79
-1.16
-1.44
-1.59
-1.57
-1.40
-1.12
-0.80
-0.51
-0.29
-0.17
-0.15
-0.22
-0.34
-0.41
-0.36
-0.13
0.24
0.65
0.95
1.04
0.92
0.69
0.46
0.34
0.35
0.44
0.49
0.45
0.28
0.03
-0.26
-0.58
-0.89
-1.20
-1.47
-1.68
-1.81
-1.89
-1.97
-2.13
-2.40
-2.73
-3.05
-3.21
-3.12
-2.74
-2.08
-1.27
-0.44
0.26
0.77
1.07
1.21
1.29
1.38
1.51
1.67
1.83
1.93
1.98
1.96
1.90
1.79
1.63
1.42
1.20
0.98
0.80
0.67
0.61
0.59
0.57
0.50
0.32
0.01
-0.41
-0.84
-1.15
-1.24
-1.08
-0.77
-0.44
-0.23
-0.23
-0.40
-0.63
-0.78
-0.75
-0.53
-0.19
0.15
0.39
0.48
0.42
0.31
0.22
0.23
0.37
0.58
0.77
0.85
0.75
0.53
0.25
0.03
-0.04
0.03
0.25
0.55
0.89
1.22
1.47
1.57
1.46
1.12
0.63
0.13
-0.23
-0.34
-0.22
0.01
0.20
0.23
0.06
-0.26
-0.65
-1.04
-1.39
-1.69
-1.95
-2.13
-2.20
-2.08
-1.76
-1.31
-0.79
-0.31
0.08
0.39
0.68
1.00
1.36
1.68
1.88
1.87
1.63
1.25
0.83
0.48
0.27
0.21
0.30
0.48
0.72
0.96
1.14
1.21
1.13
0.91
0.60
0.30
0.09
-0.00
-0.02
-0.04
-0.13
-0.32
-0.60
-0.89
-1.11
-1.20
-1.16
-1.03
-0.90
-0.84
-0.88
-1.00
-1.15
-1.26
-1.24
-1.08
-0.75
-0.30
0.19
0.66
1.04
1.27
1.32
1.18
0.86
0.42
-0.02
-0.33
-0.43
-0.30
-0.02
0.28
0.48
0.53
0.44
0.29
0.17
0.10
0.06
0.03
-0.05
-0.15
-0.26
-0.32
-0.32
-0.26
-0.19
-0.18
-0.28
-0.53
-0.91
-1.36
-1.80
-2.17
-2.44
-2.61
-2.72
-2.77
-2.74
-2.61
-2.33
-1.91
-1.37
-0.82
-0.33
0.03
0.29
0.50
0.73
1.02
1.32
1.53
1.59
1.48
1.26
1.06
0.98
1.07
1.31
1.65
1.99
2.25
2.33
2.15
1.68
0.99
0.24
-0.36
-0.65
-0.58
-0.25
0.17
0.49
0.61
0.48
0.16
-0.30
-0.83
-1.32
-1.70
-1.86
-1.79
-1.52
-1.11
-0.67
-0.26
0.11
0.42
0.68
0.86
0.97
0.98
0.95
0.88
0.81
0.73
0.65
0.56
0.49
0.47
0.50
0.55
0.58
0.56
0.52
0.50
0.52
0.57
0.56
0.44
0.16
-0.21
-0.58
-0.85
-0.99
-1.01
-0.95
-0.84
-0.70
-0.54
-0.42
-0.38
-0.46
-0.66
-0.92
-1.17
-1.33
-1.35
-1.19
-0.87
-0.39
0.18
0.77
1.25
1.55
1.64
1.59
1.49
1.41
1.36
1.28
1.09
0.76
0.39
0.11
0.07
0.29
0.64
0.95
1.02
0.84
0.51
0.21
0.08
0.14
0.26
0.30
0.17
-0.11
-0.43
-0.67
-0.77
-0.77
-0.73
-0.73
-0.79
-0.89
-0.99
-1.05
-1.08
-1.08
-1.06
-1.02
-0.93
-0.78
-0.53
-0.19
0.20
0.57
0.87
1.06
1.13
1.11
1.01
0.83
0.62
0.43
0.32
0.37
0.54
0.77
0.95
0.99
0.85
0.58
0.25
-0.06
-0.30
-0.44
-0.46
-0.38
-0.23
-0.13
-0.15
-0.35
-0.68
-1.03
-1.31
-1.43
-1.43
-1.35
-1.23
-1.07
-0.84
-0.51
-0.10
0.29
0.60
0.78
0.84
0.80
0.68
0.49
0.21
-0.12
-0.42
-0.58
-0.54
-0.28
0.13
0.57
0.92
1.11
1.13
1.02
0.82
0.57
0.34
0.15
0.04
0.02
0.06
0.11
0.11
0.05
-0.07
-0.22
-0.35
-0.46
-0.54
-0.62
-0.73
-0.88
-1.05
-1.20
-1.32
-1.37
-1.32
-1.18
-0.95
-0.66
-0.34
-0.02
0.27
0.52
0.75
0.96
1.13
1.24
1.22
1.06
0.75
0.35
-0.06
-0.38
-0.54
-0.52
-0.33
-0.04
0.24
0.43
0.46
0.36
0.21
0.08
0.04
0.04
-0.01
-0.18
-0.46
-0.77
-0.99
-1.07
-1.02
-0.90
-0.81
-0.79
-0.81
-0.85
-0.87
-0.86
-0.83
-0.76
-0.64
-0.41
-0.10
0.29
0.70
1.05
1.32
1.48
1.51
1.43
1.27
1.06
0.87
0.73
0.66
0.64
0.66
0.68
0.66
0.57
0.42
0.23
0.03
-0.14
-0.27
-0.35
-0.41
-0.46
-0.51
-0.54
-0.53
-0.51
-0.49
-0.49
-0.54
-0.62
-0.70
-0.76
-0.78
-0.78
-0.75
-0.71
-0.64
-0.54
-0.40
-0.25
-0.08
0.07
0.18
0.23
0.21
0.11
-0.01
-0.10
-0.09
0.02
0.21
0.42
0.60
0.72
0.81
0.93
1.08
1.23
1.28
1.13
0.75
0.24
-0.24
-0.55
-0.61
-0.48
-0.30
-0.21
-0.27
-0.44
-0.66
-0.82
-0.91
-0.98
-1.06
-1.19
-1.30
-1.31
-1.15
-0.81
-0.38
0.06
0.43
0.71
0.91
1.04
1.10
1.07
0.95
0.74
0.48
0.21
-0.01
-0.13
-0.11
0.04
0.26
0.49
0.64
0.68
0.62
0.49
0.36
0.24
0.15
0.04
-0.11
-0.33
-0.62
-0.97
-1.31
-1.60
-1.76
-1.82
-1.83
-1.91
-2.13
-2.48
-2.83
-3.02
-2.93
-2.53
-1.92
-1.25
-0.67
-0.27
-0.05
0.06
0.13
0.21
0.34
0.49
0.64
0.78
0.89
1.02
1.20
1.45
1.74
2.02
2.21
2.28
2.22
2.04
1.77
1.46
1.15
0.88
0.68
0.57
0.54
0.56
0.58
0.57
0.51
0.38
0.20
-0.06
-0.35
-0.66
-0.90
-1.02
-1.00
-0.85
-0.65
-0.47
-0.34
-0.29
-0.28
-0.27
-0.23
-0.10
0.13
0.49
0.93
1.41
1.81
2.06
2.13
2.03
1.82
1.54
1.23
0.95
0.76
0.74
0.93
1.28
1.65
1.87
1.79
1.41
0.83
0.23
-0.25
-0.55
-0.71
-0.82
-0.91
-0.98
-1.01
-1.01
-1.02
-1.09
-1.24
-1.40
-1.51
-1.51
-1.39
-1.21
-1.03
-0.87
-0.67
-0.39
-0.03
0.36
0.68
0.85
0.87
0.83
0.78
0.75
0.69
0.57
0.42
0.32
0.35
0.53
0.77
0.94
0.92
0.72
0.40
0.11
-0.07
-0.14
-0.16
-0.22
-0.37
-0.56
-0.71
-0.73
-0.58
-0.32
-0.09
-0.03
-0.24
-0.67
-1.20
-1.63
-1.81
-1.72
-1.44
-1.13
-0.93
-0.88
-0.92
-0.96
-0.94
-0.83
-0.67
-0.49
-0.31
-0.11
0.11
0.35
0.58
0.75
0.83
0.84
0.81
0.79
0.81
0.87
0.96
1.03
1.02
0.93
0.75
0.55
0.37
0.27
0.26
0.32
0.38
0.40
0.34
0.23
0.12
0.06
0.08
0.18
0.32
0.44
0.44
0.27
-0.08
-0.57
-1.10
-1.54
-1.83
-1.95
-1.92
-1.78
-1.57
-1.33
-1.08
-0.84
-0.63
-0.45
-0.26
-0.03
0.24
0.54
0.82
1.02
1.12
1.13
1.06
0.90
0.70
0.50
0.39
0.46
0.78
1.31
1.94
2.49
2.80
2.76
2.36
1.70
0.94
0.29
-0.11
-0.20
-0.06
0.15
0.25
0.12
-0.23
-0.69
-1.11
-1.41
-1.57
-1.65
-1.71
-1.74
-1.72
-1.58
-1.30
-0.97
-0.68
-0.52
-0.52
-0.59
-0.62
-0.49
-0.16
0.32
0.88
1.40
1.83
2.13
2.30
2.29
2.10
1.70
1.15
0.55
0.04
-0.29
-0.39
-0.32
-0.16
0.01
0.19
0.40
0.71
1.10
1.46
1.61
1.41
0.85
0.06
-0.71
-1.22
-1.36
-1.19
-0.88
-0.59
-0.43
-0.40
-0.48
-0.63
-0.88
-1.28
-1.83
-2.45
-2.97
-3.20
-3.02
-2.44
-1.62
-0.75
-0.01
0.51
0.84
1.08
1.34
1.63
1.91
2.04
1.91
1.50
0.90
0.31
-0.08
-0.14
0.09
0.45
0.73
0.79
0.59
0.26
-0.02
-0.15
-0.08
0.11
0.26
0.29
0.13
-0.17
-0.53
-0.88
-1.12
-1.20
-1.13
-0.94
-0.73
-0.58
-0.56
-0.68
-0.90
-1.16
-1.41
-1.62
-1.79
-1.91
-1.96
-1.85
-1.52
-0.98
-0.31
0.34
0.83
1.06
1.09
1.03
1.03
1.18
1.46
1.79
2.05
2.13
2.04
1.82
1.54
1.27
1.05
0.85
0.65
0.42
0.19
0.00
-0.09
-0.08
-0.00
0.08
0.08
0.01
-0.12
-0.22
-0.24
-0.17
-0.07
-0.02
-0.05
-0.16
-0.32
-0.49
-0.70
-0.98
-1.36
-1.82
-2.25
-2.51
-2.46
-2.08
-1.42
-0.64
0.07
0.57
0.79
0.75
0.55
0.30
0.11
0.05
0.12
0.32
0.58
0.85
1.08
1.26
1.38
1.44
1.43
1.34
1.20
1.05
0.94
0.92
0.96
0.98
0.90
0.67
0.35
0.01
-0.20
-0.22
-0.09
0.09
0.18
0.12
-0.07
-0.28
-0.37
-0.28
-0.08
0.08
0.03
-0.30
-0.82
-1.36
-1.70
-1.71
-1.38
-0.83
-0.27
0.17
0.39
0.42
0.32
0.17
0.01
-0.11
-0.19
-0.22
-0.19
-0.10
0.06
0.23
0.39
0.46
0.44
0.32
0.16
0.00
-0.13
-0.23
-0.28
-0.27
-0.18
-0.03
0.14
0.22
0.14
-0.13
-0.51
-0.87
-1.09
-1.12
-1.05
-0.99
-1.06
-1.26
-1.50
-1.64
-1.63
-1.47
-1.27
-1.13
-1.06
-0.98
-0.76
-0.31
0.35
1.03
1.49
1.59
1.29
0.73
0.12
-0.35
-0.60
-0.64
-0.52
-0.32
-0.08
0.14
0.32
0.42
0.42
0.34
0.21
0.05
-0.14
-0.39
-0.72
-1.10
-1.45
-1.64
-1.60
-1.33
-0.94
-0.60
-0.46
-0.59
-0.92
-1.29
-1.50
-1.45
-1.15
-0.73
-0.32
-0.01
0.26
0.57
1.01
1.54
2.04
2.33
2.33
2.06
1.67
1.35
1.20
1.20
1.27
1.30
1.25
1.17
1.13
1.19
1.35
1.55
1.72
1.79
1.71
1.47
1.08
0.59
0.09
-0.32
-0.55
-0.57
-0.41
-0.17
-0.00
0.01
-0.18
-0.53
-0.92
-1.25
-1.42
-1.41
-1.23
-0.97
-0.71
-0.53
-0.48
-0.51
-0.49
-0.30
0.11
0.69
1.30
1.75
1.94
1.88
1.68
1.49
1.38
1.29
1.13
0.84
0.46
0.10
-0.09
-0.07
0.09
0.23
0.24
0.08
-0.16
-0.33
-0.31
-0.08
0.27
0.61
0.78
0.67
0.30
-0.21
-0.71
-1.09
-1.30
-1.38
-1.40
-1.41
-1.41
-1.33
-1.13
-0.79
-0.40
-0.07
0.07
0.02
-0.16
-0.33
-0.35
-0.15
0.21
0.61
0.90
0.99
0.87
0.62
0.40
0.32
0.41
0.61
0.78
0.82
0.67
0.38
0.06
-0.19
-0.35
-0.47
-0.64
-0.90
-1.24
-1.56
-1.74
-1.69
-1.43
-1.07
-0.76
-0.61
-0.67
-0.91
-1.21
-1.46
-1.55
-1.43
-1.10
-0.61
-0.05
0.46
0.82
0.98
0.94
0.81
0.70
0.69
0.76
0.82
0.78
0.60
0.32
0.10
0.06
0.21
0.49
0.72
0.76
0.58
0.27
-0.05
-0.26
-0.34
-0.36
-0.44
-0.66
-1.05
-1.51
-1.91
-2.14
-2.11
-1.84
-1.45
-1.09
-0.88
-0.86
-1.00
-1.16
-1.23
-1.10
-0.76
-0.23
0.43
1.15
1.83
2.39
2.74
2.83
2.64
2.22
1.69
1.18
0.82
0.66
0.70
0.87
1.06
1.19
1.23
1.21
1.17
1.16
1.17
1.17
1.11
0.97
0.76
0.50
0.22
-0.09
-0.38
-0.65
-0.84
-0.95
-0.99
-1.03
-1.11
-1.28
-1.50
-1.66
-1.67
-1.43
-0.96
-0.32
0.33
0.87
1.22
1.37
1.39
1.38
1.40
1.43
1.45
1.42
1.31
1.14
0.95
0.77
0.60
0.41
0.22
0.06
-0.01
0.00
0.10
0.19
0.21
0.13
-0.04
-0.24
-0.44
-0.61
-0.75
-0.84
-0.89
-0.86
-0.77
-0.68
-0.65
-0.71
-0.84
-0.95
-0.96
-0.81
-0.52
-0.11
0.34
0.81
1.22
1.51
1.60
1.43
1.04
0.52
0.02
-0.32
-0.44
-0.38
-0.21
-0.03
0.11
0.19
0.24
0.27
0.26
0.20
0.08
-0.08
-0.24
-0.38
-0.46
-0.49
-0.48
-0.44
-0.40
-0.42
-0.55
-0.83
-1.29
-1.83
-2.35
-2.68
-2.73
-2.49
-2.03
-1.49
-0.95
-0.45
0.01
0.43
0.79
1.00
1.01
0.80
0.43
-0.00
-0.38
-0.63
-0.74
-0.72
-0.58
-0.35
-0.07
0.23
0.52
0.76
0.92
1.00
0.98
0.85
0.62
0.31
-0.04
-0.36
-0.60
-0.74
-0.75
-0.66
-0.49
-0.30
-0.16
-0.14
-0.29
-0.58
-0.90
-1.13
-1.12
-0.81
-0.23
0.47
1.14
1.61
1.80
1.72
1.48
1.20
0.99
0.89
0.84
0.80
0.74
0.70
0.74
0.89
1.09
1.22
1.13
0.80
0.32
-0.12
-0.35
-0.29
-0.01
0.33
0.58
0.65
0.53
0.24
-0.15
-0.58
-0.93
-1.11
-1.06
-0.81
-0.51
-0.31
-0.33
-0.57
-0.92
-1.23
-1.35
-1.22
-0.84
-0.29
0.34
0.94
1.39
1.62
1.62
1.45
1.20
0.96
0.79
0.69
0.63
0.59
0.62
0.72
0.93
1.18
1.34
1.31
1.00
0.48
-0.11
-0.58
-0.82
-0.82
-0.63
-0.39
-0.18
-0.03
0.08
0.15
0.18
0.14
-0.02
-0.27
-0.54
-0.75
-0.88
-0.94
-0.98
-1.02
-1.02
-0.87
-0.49
0.14
0.89
1.60
2.07
2.17
1.89
1.32
0.60
-0.15
-0.79
-1.23
-1.40
-1.27
-0.92
-0.45
-0.00
0.28
0.35
0.24
0.07
-0.05
-0.04
0.06
0.18
0.19
0.03
-0.28
-0.66
-0.99
-1.20
-1.26
-1.18
-0.98
-0.70
-0.37
-0.05
0.17
0.18
-0.04
-0.46
-0.91
-1.22
-1.26
-1.02
-0.60
-0.15
0.20
0.40
0.45
0.37
0.21
-0.00
-0.20
-0.31
-0.26
-0.06
0.24
0.54
0.72
0.75
0.64
0.45
0.27
0.13
0.07
0.08
0.12
0.17
0.20
0.18
0.13
0.06
0.02
0.04
0.11
0.20
0.28
0.26
0.13
-0.12
-0.43
-0.72
-0.92
-1.01
-1.03
-1.09
-1.28
-1.61
-2.01
-2.36
-2.48
-2.30
-1.80
-1.07
-0.25
0.51
1.12
1.54
1.77
1.87
1.87
1.81
1.70
1.56
1.43
1.36
1.38
1.47
1.61
1.70
1.67
1.50
1.24
0.98
0.77
0.63
0.50
0.34
0.12
-0.13
-0.34
-0.44
-0.45
-0.40
-0.37
-0.37
-0.38
-0.35
-0.26
-0.13
-0.07
-0.12
-0.32
-0.59
-0.83
-0.96
-0.98
-0.92
-0.84
-0.79
-0.74
-0.65
-0.51
-0.31
-0.10
0.10
0.31
0.56
0.86
1.14
1.30
1.27
1.04
0.70
0.40
0.24
0.26
0.40
0.54
0.62
0.61
0.54
0.44
0.34
0.24
0.16
0.12
0.13
0.19
0.24
0.21
0.05
-0.26
-0.63
-0.97
-1.18
-1.26
-1.23
-1.20
-1.24
-1.37
-1.51
-1.57
-1.45
-1.14
-0.71
-0.27
0.08
0.26
0.29
0.23
0.14
0.07
0.02
-0.04
-0.12
-0.21
-0.28
-0.26
-0.13
0.11
0.38
0.63
0.79
0.86
0.88
0.85
0.80
0.69
0.50
0.22
-0.14
-0.53
-0.90
-1.19
-1.35
-1.32
-1.06
-0.61
-0.06
0.43
0.69
0.63
0.29
-0.23
-0.76
-1.17
-1.40
-1.47
-1.44
-1.32
-1.13
-0.84
-0.42
0.07
0.54
0.86
0.93
0.77
0.47
0.20
0.07
0.11
0.27
0.43
0.55
0.63
0.72
0.88
1.09
1.29
1.38
1.31
1.11
0.84
0.57
0.33
0.17
0.12
0.17
0.32
0.51
0.63
0.59
0.36
0.00
-0.38
-0.67
-0.82
-0.82
-0.77
-0.71
-0.70
-0.77
-0.89
-1.07
-1.23
-1.31
-1.21
-0.92
-0.46
0.06
0.50
0.78
0.87
0.84
0.75
0.64
0.51
0.36
0.19
0.05
-0.00
0.04
0.14
0.21
0.20
0.08
-0.07
-0.16
-0.12
0.04
0.26
0.40
0.39
0.19
-0.14
-0.51
-0.80
-0.91
-0.82
-0.55
-0.21
0.06
0.18
0.12
-0.08
-0.33
-0.54
-0.67
-0.68
-0.54
-0.24
0.18
0.64
0.99
1.09
0.90
0.48
0.01
-0.34
-0.44
-0.33
-0.10
0.12
0.26
0.31
0.32
0.34
0.38
0.44
0.46
0.43
0.35
0.26
0.18
0.11
0.00
-0.19
-0.47
-0.78
-1.02
-1.12
-1.05
-0.91
-0.79
-0.76
-0.80
-0.84
-0.80
-0.68
-0.56
-0.54
-0.64
-0.82
-0.95
-0.94
-0.76
-0.47
-0.15
0.10
0.25
0.27
0.21
0.10
-0.02
-0.10
-0.09
0.02
0.21
0.45
0.67
0.81
0.81
0.65
0.36
-0.04
-0.44
-0.74
-0.84
-0.71
-0.40
-0.04
0.23
0.31
0.18
-0.10
-0.39
-0.59
-0.65
-0.59
-0.51
-0.48
-0.52
-0.60
-0.67
-0.64
-0.47
-0.19
0.14
0.42
0.60
0.68
0.72
0.78
0.92
1.10
1.26
1.26
1.04
0.63
0.17
-0.15
-0.18
0.08
0.49
0.81
0.88
0.65
0.25
-0.11
-0.25
-0.12
0.16
0.42
0.51
0.37
0.04
-0.37
-0.76
-1.06
-1.21
-1.21
-1.06
-0.81
-0.51
-0.20
0.10
0.39
0.71
1.03
1.30
1.42
1.33
1.03
0.61
0.19
-0.08
-0.15
-0.03
0.19
0.40
0.52
0.52
0.41
0.27
0.12
0.00
-0.05
-0.04
0.05
0.17
0.29
0.32
0.20
-0.10
-0.53
-0.98
-1.33
-1.47
-1.38
-1.09
-0.71
-0.31
0.02
0.26
0.40
0.45
0.45
0.43
0.42
0.41
0.36
0.27
0.17
0.12
0.18
0.33
0.51
0.58
0.44
0.12
-0.26
-0.50
-0.49
-0.23
0.15
0.45
0.53
0.41
0.19
-0.00
-0.10
-0.16
-0.28
-0.56
-0.96
-1.33
-1.46
-1.27
-0.79
-0.22
0.20
0.33
0.19
-0.10
-0.37
-0.50
-0.52
-0.49
-0.47
-0.44
-0.37
-0.20
0.04
0.28
0.44
0.50
0.54
0.64
0.85
1.13
1.34
1.32
1.03
0.53
0.01
-0.38
-0.53
-0.49
-0.37
-0.30
-0.35
-0.51
-0.70
-0.87
-0.97
-1.02
-1.04
-1.05
-1.03
-0.96
-0.79
-0.52
-0.19
0.13
0.36
0.48
0.50
0.46
0.45
0.50
0.64
0.81
0.96
1.02
0.99
0.86
0.70
0.56
0.49
0.54
0.69
0.89
1.08
1.19
1.18
1.08
0.92
0.77
0.66
0.58
0.49
0.38
0.24
0.11
0.00
-0.08
-0.15
-0.24
-0.33
-0.40
-0.41
-0.33
-0.17
0.03
0.20
0.29
0.27
0.17
0.04
-0.08
-0.15
-0.16
-0.14
-0.11
-0.09
-0.05
0.02
0.12
0.22
0.24
0.13
-0.08
-0.32
-0.48
-0.48
-0.32
-0.05
0.24
0.46
0.57
0.52
0.32
-0.01
-0.37
-0.63
-0.65
-0.38
0.10
0.63
1.03
1.20
1.13
0.94
0.72
0.54
0.39
0.22
0.04
-0.13
-0.23
-0.22
-0.12
-0.01
0.04
-0.01
-0.16
-0.35
-0.55
-0.73
-0.88
-1.02
-1.09
-1.06
-0.92
-0.71
-0.52
-0.44
-0.54
-0.76
-1.00
-1.17
-1.20
-1.12
-1.01
-0.97
-0.99
-1.05
-1.06
-0.98
-0.82
-0.65
-0.53
-0.49
-0.51
-0.53
-0.49
-0.36
-0.14
0.16
0.54
0.96
1.37
1.65
1.71
1.50
1.10
0.60
0.15
-0.20
-0.44
-0.61
-0.73
-0.78
-0.75
-0.62
-0.43
-0.21
-0.00
0.20
0.42
0.64
0.83
0.90
0.79
0.52
0.20
-0.07
-0.19
-0.20
-0.17
-0.18
-0.26
-0.34
-0.34
-0.22
0.00
0.21
0.31
0.23
0.04
-0.13
-0.15
0.02
0.32
0.62
0.77
0.69
0.39
0.02
-0.25
-0.33
-0.20
0.05
0.31
0.47
0.52
0.46
0.36
0.24
0.15
0.10
0.12
0.22
0.38
0.54
0.65
0.69
0.69
0.68
0.69
0.66
0.55
0.33
0.02
-0.27
-0.44
-0.46
-0.36
-0.26
-0.27
-0.40
-0.54
-0.56
-0.39
-0.05
0.32
0.56
0.59
0.43
0.21
0.09
0.14
0.35
0.62
0.81
0.84
0.69
0.42
0.14
-0.06
-0.11
-0.04
0.08
0.14
0.06
-0.17
-0.47
-0.75
-0.94
-1.00
-0.99
-0.97
-0.97
-0.99
-1.00
-0.92
-0.74
-0.48
-0.21
-0.03
-0.04
-0.25
-0.59
-0.95
-1.16
-1.14
-0.91
-0.58
-0.26
-0.04
0.09
0.16
0.21
0.24
0.21
0.12
0.02
-0.05
-0.01
0.11
0.28
0.40
0.40
0.28
0.07
-0.16
-0.35
-0.49
-0.60
-0.71
-0.85
-0.99
-1.13
-1.22
-1.22
-1.12
-0.92
-0.65
-0.36
-0.11
0.06
0.13
0.14
0.15
0.18
0.26
0.36
0.43
0.47
0.49
0.52
0.59
0.67
0.74
0.78
0.81
0.86
0.97
1.12
1.25
1.27
1.15
0.91
0.65
0.48
0.47
0.60
0.78
0.91
0.91
0.80
0.62
0.46
0.33
0.23
0.15
0.07
-0.02
-0.10
-0.18
-0.29
-0.46
-0.65
-0.81
-0.84
-0.71
-0.47
-0.22
-0.05
0.02
0.04
0.12
0.30
0.58
0.90
1.17
1.36
1.44
1.43
1.30
1.07
0.76
0.43
0.14
-0.07
-0.22
-0.36
-0.54
-0.75
-0.94
-1.06
-1.05
-0.91
-0.66
-0.35
-0.02
0.30
0.56
0.69
0.64
0.38
-0.03
-0.49
-0.89
-1.15
-1.24
-1.20
-1.05
-0.77
-0.35
0.17
0.71
1.12
1.27
1.15
0.83
0.50
0.31
0.30
0.38
0.42
0.34
0.13
-0.11
-0.31
-0.40
-0.42
-0.41
-0.40
-0.39
-0.32
-0.19
-0.00
0.20
0.33
0.36
0.27
0.07
-0.17
-0.41
-0.60
-0.70
-0.75
-0.76
-0.75
-0.70
-0.60
-0.47
-0.34
-0.27
-0.28
-0.36
-0.46
-0.52
-0.53
-0.50
-0.48
-0.47
-0.44
-0.29
0.02
0.46
0.88
1.14
1.18
1.00
0.75
0.55
0.50
0.56
0.62
0.59
0.43
0.20
-0.04
-0.21
-0.29
-0.30
-0.29
-0.26
-0.21
-0.13
-0.04
-0.03
-0.13
-0.35
-0.63
-0.82
-0.79
-0.49
-0.00
0.50
0.80
0.78
0.44
-0.06
-0.47
-0.65
-0.51
-0.15
0.27
0.59
0.73
0.67
0.46
0.18
-0.13
-0.39
-0.57
-0.65
-0.62
-0.52
-0.36
-0.16
0.03
0.19
0.29
0.33
0.35
0.38
0.44
0.51
0.54
0.51
0.43
0.36
0.39
0.51
0.65
0.68
0.48
0.07
-0.46
-0.90
-1.11
-1.05
-0.79
-0.49
-0.30
-0.27
-0.33
-0.38
-0.31
-0.12
0.11
0.24
0.18
-0.05
-0.34
-0.54
-0.57
-0.41
-0.15
0.14
0.39
0.63
0.85
1.08
1.26
1.32
1.24
1.04
0.82
0.67
0.65
0.71
0.74
0.62
0.31
-0.17
-0.69
-1.13
-1.43
-1.59
-1.68
-1.75
-1.81
-1.81
-1.68
-1.37
-0.91
-0.38
0.07
0.32
0.31
0.08
-0.25
-0.53
-0.65
-0.57
-0.35
-0.07
0.19
0.38
0.50
0.54
0.49
0.34
0.10
-0.17
-0.42
-0.58
-0.61
-0.56
-0.48
-0.43
-0.43
-0.48
-0.52
-0.54
-0.54
-0.57
-0.70
-0.93
-1.19
-1.36
-1.31
-1.05
-0.67
-0.33
-0.17
-0.26
-0.51
-0.75
-0.84
-0.68
-0.32
0.13
0.54
0.82
0.94
0.91
0.80
0.63
0.44
0.27
0.13
0.05
0.06
0.17
0.36
0.60
0.79
0.89
0.86
0.72
0.54
0.36
0.22
0.12
0.03
-0.09
-0.20
-0.29
-0.30
-0.22
-0.06
0.07
0.10
-0.03
-0.30
-0.63
-0.90
-1.03
-0.98
-0.81
-0.58
-0.39
-0.27
-0.23
-0.22
-0.18
-0.05
0.16
0.41
0.66
0.86
1.00
1.08
1.11
1.08
0.98
0.81
0.62
0.47
0.41
0.46
0.59
0.71
0.76
0.67
0.47
0.22
-0.00
-0.11
-0.07
0.09
0.28
0.39
0.34
0.13
-0.18
-0.49
-0.71
-0.81
-0.79
-0.67
-0.45
-0.17
0.18
0.51
0.76
0.89
0.89
0.80
0.66
0.52
0.38
0.23
0.09
-0.07
-0.24
-0.41
-0.60
-0.76
-0.86
-0.87
-0.76
-0.56
-0.30
-0.07
0.10
0.18
0.17
0.09
-0.05
-0.20
-0.33
-0.39
-0.36
-0.26
-0.14
-0.08
-0.12
-0.27
-0.46
-0.61
-0.65
-0.53
-0.30
-0.03
0.18
0.27
0.24
0.14
0.06
0.06
0.13
0.25
0.35
0.41
0.44
0.48
0.55
0.61
0.60
0.45
0.15
-0.24
-0.58
-0.74
-0.66
-0.36
0.05
0.42
0.63
0.67
0.59
0.49
0.45
0.44
0.41
0.24
-0.08
-0.48
-0.80
-0.91
-0.77
-0.49
-0.22
-0.08
-0.05
-0.04
0.10
0.41
0.82
1.17
1.34
1.30
1.09
0.85
0.65
0.54
0.50
0.50
0.52
0.55
0.62
0.73
0.85
0.95
0.99
0.94
0.81
0.60
0.34
0.06
-0.21
-0.44
-0.61
-0.74
-0.84
-0.88
-0.85
-0.71
-0.50
-0.29
-0.15
-0.18
-0.34
-0.54
-0.63
-0.53
-0.21
0.23
0.64
0.92
1.08
1.15
1.18
1.15
0.98
0.62
0.10
-0.40
-0.66
-0.52
0.02
0.76
1.41
1.72
1.60
1.14
0.55
0.03
-0.28
-0.37
-0.34
-0.29
-0.29
-0.37
-0.51
-0.65
-0.75
-0.80
-0.79
-0.76
-0.74
-0.75
-0.76
-0.72
-0.59
-0.38
-0.18
-0.08
-0.16
-0.38
-0.61
-0.66
-0.46
-0.05
0.40
0.72
0.82
0.78
0.75
0.82
1.00
1.16
1.21
1.09
0.84
0.53
0.19
-0.20
-0.65
-1.10
-1.45
-1.57
-1.40
-1.00
-0.52
-0.16
-0.03
-0.18
-0.56
-1.07
-1.59
-1.94
-1.99
-1.66
-0.99
-0.15
0.61
1.11
1.27
1.17
0.97
0.81
0.72
0.64
0.51
0.30
0.06
-0.09
-0.09
0.06
0.27
0.47
0.61
0.74
0.88
1.05
1.19
1.22
1.10
0.86
0.56
0.31
0.14
0.03
-0.10
-0.30
-0.54
-0.79
-0.99
-1.10
-1.16
-1.21
-1.28
-1.36
-1.38
-1.26
-0.94
-0.43
0.17
0.72
1.09
1.21
1.08
0.81
0.52
0.33
0.31
0.46
0.71
0.99
1.22
1.37
1.39
1.30
1.09
0.81
0.51
0.28
0.16
0.17
0.26
0.36
0.40
0.32
0.11
-0.16
-0.45
-0.68
-0.83
-0.89
-0.86
-0.78
-0.65
-0.50
-0.37
-0.31
-0.37
-0.58
-0.90
-1.24
-1.47
-1.47
-1.19
-0.70
-0.12
0.38
0.71
0.83
0.82
0.78
0.79
0.87
0.97
1.00
0.91
0.69
0.43
0.25
0.22
0.33
0.48
0.55
0.44
0.13
-0.28
-0.67
-0.91
-0.98
-0.92
-0.81
-0.72
-0.64
-0.53
-0.37
-0.16
0.01
0.08
-0.00
-0.20
-0.43
-0.63
-0.78
-0.90
-1.02
-1.12
-1.12
-0.96
-0.63
-0.17
0.26
0.57
0.70
0.68
0.58
0.47
0.34
0.19
0.02
-0.15
-0.24
-0.19
-0.01
0.24
0.46
0.58
0.56
0.44
0.30
0.18
0.12
0.08
0.03
-0.04
-0.15
-0.28
-0.44
-0.61
-0.77
-0.92
-1.03
-1.08
-1.06
-0.97
-0.82
-0.61
-0.39
-0.17
0.02
0.12
0.09
-0.09
-0.40
-0.76
-1.04
-1.10
-0.87
-0.39
0.22
0.80
1.22
1.43
1.43
1.29
1.07
0.84
0.62
0.46
0.38
0.37
0.41
0.46
0.46
0.39
0.26
0.09
-0.09
-0.25
-0.37
-0.42
-0.41
-0.36
-0.28
-0.20
-0.16
-0.18
-0.27
-0.42
-0.59
-0.70
-0.66
-0.41
0.07
0.70
1.34
1.82
2.03
1.92
1.56
1.03
0.50
0.06
-0.20
-0.30
-0.25
-0.10
0.10
0.30
0.45
0.51
0.48
0.40
0.33
0.34
0.45
0.61
0.73
0.73
0.57
0.27
-0.12
-0.51
-0.84
-1.05
-1.12
-1.02
-0.77
-0.46
-0.22
-0.14
-0.30
-0.65
-1.09
-1.45
-1.57
-1.39
-0.92
-0.23
0.53
1.19
1.64
1.82
1.72
1.42
1.05
0.72
0.55
0.55
0.69
0.88
1.01
1.02
0.91
0.73
0.57
0.49
0.48
0.49
0.47
0.40
0.33
0.30
0.30
0.28
0.12
-0.23
-0.73
-1.22
-1.49
-1.43
-1.08
-0.64
-0.32
-0.28
-0.48
-0.80
-1.07
-1.22
-1.27
-1.30
-1.34
-1.35
-1.22
-0.90
-0.38
0.23
0.78
1.15
1.29
1.20
0.95
0.63
0.32
0.13
0.10
0.23
0.43
0.59
0.61
0.47
0.23
0.02
-0.07
0.01
0.17
0.31
0.34
0.25
0.11
0.02
0.06
0.25
0.52
0.76
0.90
0.88
0.73
0.45
0.10
-0.29
-0.67
-0.99
-1.21
-1.35
-1.42
-1.47
-1.53
-1.57
-1.56
-1.47
-1.31
-1.12
-0.97
-0.87
-0.78
-0.62
-0.34
0.03
0.37
0.56
0.54
0.40
0.25
0.24
0.41
0.70
0.96
1.09
1.07
0.94
0.83
0.83
0.91
1.02
1.01
0.84
0.51
0.13
-0.16
-0.21
0.01
0.44
0.92
1.28
1.37
1.15
0.70
0.13
-0.41
-0.80
-0.99
-0.98
-0.85
-0.69
-0.59
-0.59
-0.67
-0.76
-0.81
-0.79
-0.74
-0.74
-0.80
-0.87
-0.85
-0.64
-0.24
0.25
0.66
0.88
0.90
0.82
0.77
0.81
0.94
1.05
1.09
1.03
0.88
0.67
0.41
0.10
-0.25
-0.57
-0.78
-0.81
-0.64
-0.33
0.04
0.38
0.66
0.87
1.00
1.05
1.02
0.91
0.74
0.53
0.27
-0.06
-0.48
-0.95
-1.38
-1.68
-1.81
-1.77
-1.61
-1.41
-1.25
-1.14
-1.11
-1.15
-1.26
-1.40
-1.51
-1.49
-1.31
-0.95
-0.51
-0.12
0.14
0.21
0.18
0.14
0.20
0.38
0.61
0.78
0.78
0.60
0.31
0.06
-0.01
0.13
0.46
0.82
1.06
1.10
0.94
0.65
0.33
0.08
-0.04
-0.01
0.18
0.50
0.88
1.16
1.18
0.85
0.18
-0.65
-1.40
-1.82
-1.83
-1.50
-1.05
-0.71
-0.62
-0.78
-1.07
-1.34
-1.47
-1.42
-1.27
-1.13
-1.06
-1.06
-1.05
-0.94
-0.67
-0.30
0.11
0.46
0.73
0.94
1.12
1.26
1.34
1.30
1.10
0.79
0.49
0.29
0.31
0.56
1.00
1.49
1.85
1.92
1.61
1.00
0.30
-0.24
-0.43
-0.22
0.25
0.79
1.20
1.42
1.43
1.25
0.87
0.28
-0.46
-1.19
-1.70
-1.83
-1.58
-1.12
-0.71
-0.52
-0.63
-0.93
-1.29
-1.59
-1.76
-1.79
-1.65
-1.32
-0.81
-0.20
0.35
0.70
0.77
0.59
0.28
0.04
-0.01
0.17
0.53
0.95
1.31
1.50
1.51
1.36
1.12
0.86
0.62
0.42
0.26
0.16
0.09
0.06
0.06
0.05
0.02
-0.05
-0.14
-0.27
-0.42
-0.59
-0.76
-0.89
-0.97
-0.97
-0.90
-0.82
-0.75
-0.73
-0.76
-0.82
-0.88
-0.92
-0.91
-0.87
-0.78
-0.70
-0.65
-0.68
-0.76
-0.86
-0.91
-0.86
-0.68
-0.40
-0.05
0.31
0.64
0.91
1.12
1.23
1.23
1.11
0.88
0.62
0.41
0.32
0.41
0.63
0.88
1.03
0.98
0.74
0.39
0.06
-0.13
-0.12
0.03
0.24
0.43
0.55
0.62
0.64
0.55
0.32
-0.06
-0.54
-0.95
-1.16
-1.11
-0.86
-0.57
-0.38
-0.35
-0.46
-0.64
-0.85
-1.10
-1.41
-1.78
-2.10
-2.24
-2.07
-1.60
-0.91
-0.16
0.48
0.94
1.23
1.40
1.52
1.64
1.77
1.90
1.98
1.96
1.83
1.58
1.26
0.93
0.63
0.44
0.37
0.45
0.66
0.94
1.19
1.31
1.22
0.94
0.52
0.11
-0.20
-0.35
-0.36
-0.30
-0.25
-0.26
-0.36
-0.54
-0.76
-0.98
-1.13
-1.18
-1.12
-1.03
-0.97
-0.99
-1.09
-1.20
-1.24
-1.18
-0.99
-0.70
-0.36
0.00
0.36
0.71
1.02
1.29
1.49
1.62
1.63
1.52
1.27
0.92
0.53
0.20
0.03
0.06
0.23
0.44
0.57
0.54
0.35
0.07
-0.22
-0.42
-0.48
-0.39
-0.18
0.07
0.31
0.45
0.47
0.37
0.17
-0.09
-0.36
-0.62
-0.82
-0.97
-1.06
-1.10
-1.10
-1.07
-1.04
-1.04
-1.07
-1.13
-1.20
-1.26
-1.22
-1.01
-0.62
-0.05
0.61
1.25
1.76
2.07
2.16
2.05
1.81
1.50
1.18
0.91
0.70
0.58
0.52
0.52
0.53
0.54
0.51
0.44
0.31
0.13
-0.07
-0.27
-0.43
-0.51
-0.50
-0.41
-0.29
-0.21
-0.23
-0.33
-0.47
-0.57
-0.58
-0.50
-0.39
-0.34
-0.41
-0.61
-0.90
-1.20
-1.44
-1.55
-1.51
-1.33
-1.08
-0.81
-0.60
-0.44
-0.31
-0.19
-0.07
0.05
0.14
0.23
0.36
0.58
0.88
1.15
1.27
1.16
0.85
0.50
0.29
0.30
0.50
0.75
0.92
0.95
0.88
0.79
0.70
0.62
0.52
0.39
0.28
0.26
0.33
0.47
0.58
0.57
0.43
0.20
-0.03
-0.19
-0.25
-0.25
-0.23
-0.24
-0.32
-0.47
-0.69
-0.96
-1.22
-1.40
-1.45
-1.32
-1.03
-0.68
-0.33
-0.07
0.11
0.26
0.45
0.69
0.95
1.16
1.24
1.17
1.00
0.83
0.77
0.86
1.06
1.28
1.40
1.35
1.11
0.76
0.45
0.27
0.30
0.47
0.69
0.81
0.76
0.55
0.25
-0.04
-0.27
-0.44
-0.57
-0.70
-0.82
-0.88
-0.86
-0.76
-0.65
-0.61
-0.69
-0.83
-0.96
-1.03
-1.02
-0.96
-0.93
-0.94
-0.96
-0.92
-0.74
-0.45
-0.08
0.24
0.46
0.55
0.56
0.57
0.64
0.78
0.96
1.09
1.12
1.04
0.84
0.59
0.33
0.11
-0.01
0.01
0.17
0.43
0.70
0.88
0.88
0.72
0.47
0.23
0.12
0.18
0.36
0.57
0.70
0.67
0.45
0.07
-0.38
-0.82
-1.20
-1.48
-1.66
-1.76
-1.80
-1.80
-1.78
-1.74
-1.69
-1.65
-1.61
-1.56
-1.47
-1.33
-1.14
-0.90
-0.63
-0.34
-0.03
0.28
0.55
0.75
0.82
0.78
0.66
0.57
0.56
0.66
0.80
0.90
0.91
0.84
0.77
0.78
0.86
0.96
1.02
0.96
0.83
0.70
0.63
0.61
0.56
0.39
0.05
-0.38
-0.76
-0.96
-0.94
-0.74
-0.46
-0.23
-0.09
-0.06
-0.15
-0.33
-0.57
-0.84
-1.09
-1.28
-1.36
-1.33
-1.19
-0.99
-0.75
-0.51
-0.29
-0.08
0.13
0.36
0.64
0.94
1.21
1.41
1.47
1.42
1.32
1.25
1.25
1.28
1.29
1.21
1.02
0.77
0.54
0.37
0.29
0.24
0.16
0.02
-0.15
-0.27
-0.27
-0.11
0.14
0.39
0.52
0.47
0.25
-0.08
-0.42
-0.69
-0.83
-0.83
-0.70
-0.48
-0.23
-0.08
-0.13
-0.45
-1.00
-1.66
-2.21
-2.47
-2.35
-1.87
-1.17
-0.46
0.09
0.40
0.50
0.50
0.54
0.66
0.83
0.99
1.05
1.00
0.92
0.89
0.95
1.08
1.19
1.18
1.04
0.84
0.66
0.55
0.52
0.52
0.51
0.49
0.49
0.53
0.59
0.62
0.57
0.44
0.27
0.15
0.06
-0.03
-0.23
-0.59
-1.07
-1.57
-1.93
-2.06
-1.94
-1.65
-1.32
-1.04
-0.89
-0.85
-0.91
-1.01
-1.11
-1.16
-1.12
-0.96
-0.67
-0.28
0.13
0.51
0.80
0.95
0.98
0.93
0.88
0.87
0.94
1.07
1.20
1.24
1.12
0.83
0.44
0.04
-0.28
-0.46
-0.51
-0.46
-0.30
-0.06
0.25
0.60
0.89
1.03
0.97
0.74
0.42
0.13
-0.09
-0.27
-0.48
-0.78
-1.14
-1.45
-1.58
-1.44
-1.03
-0.51
-0.06
0.14
0.08
-0.17
-0.44
-0.61
-0.61
-0.47
-0.31
-0.17
-0.06
0.07
0.26
0.51
0.73
0.84
0.82
0.70
0.59
0.56
0.61
0.66
0.63
0.50
0.31
0.17
0.17
0.31
0.53
0.74
0.89
0.99
1.07
1.16
1.22
1.18
0.95
0.57
0.13
-0.19
-0.26
-0.08
0.22
0.47
0.47
0.15
-0.43
-1.12
-1.74
-2.18
-2.38
-2.36
-2.15
-1.79
-1.30
-0.73
-0.16
0.31
0.56
0.55
0.35
0.10
-0.05
0.03
0.33
0.73
1.07
1.20
1.10
0.85
0.61
0.48
0.47
0.51
0.50
0.36
0.13
-0.11
-0.25
-0.23
-0.10
0.06
0.14
0.07
-0.10
-0.29
-0.41
-0.41
-0.32
-0.21
-0.16
-0.17
-0.21
-0.21
-0.17
-0.13
-0.17
-0.37
-0.70
-1.08
-1.39
-1.54
-1.49
-1.28
-0.95
-0.55
-0.12
0.29
0.62
0.80
0.82
0.69
0.47
0.22
0.02
-0.13
-0.20
-0.19
-0.09
0.13
0.43
0.76
1.00
1.08
0.96
0.68
0.34
0.06
-0.07
-0.07
-0.02
-0.02
-0.17
-0.46
-0.80
-1.07
-1.14
-0.97
-0.66
-0.35
-0.21
-0.29
-0.54
-0.82
-1.01
-1.05
-0.97
-0.86
-0.78
-0.74
-0.72
-0.65
-0.54
-0.39
-0.23
-0.07
0.12
0.38
0.68
1.01
1.29
1.48
1.57
1.60
1.60
1.59
1.55
1.44
1.23
0.93
0.57
0.25
0.04
-0.01
0.11
0.32
0.55
0.69
0.70
0.58
0.38
0.17
0.00
-0.10
-0.17
-0.24
-0.37
-0.56
-0.77
-0.92
-0.95
-0.84
-0.66
-0.55
-0.59
-0.81
-1.11
-1.35
-1.40
-1.24
-0.96
-0.68
-0.50
-0.40
-0.31
-0.13
0.18
0.58
0.99
1.31
1.48
1.48
1.36
1.15
0.91
0.68
0.46
0.28
0.14
0.08
0.13
0.29
0.51
0.70
0.76
0.63
0.35
0.03
-0.20
-0.30
-0.29
-0.28
-0.34
-0.48
-0.63
-0.75
-0.80
-0.82
-0.85
-0.91
-0.96
-0.94
-0.80
-0.59
-0.37
-0.24
-0.24
-0.33
-0.45
-0.51
-0.48
-0.39
-0.25
-0.09
0.09
0.30
0.51
0.69
0.81
0.84
0.78
0.64
0.46
0.26
0.08
-0.06
-0.11
-0.05
0.10
0.28
0.40
0.40
0.25
0.03
-0.15
-0.20
-0.10
0.08
0.22
0.28
0.24
0.16
0.10
0.09
0.13
0.16
0.13
0.03
-0.14
-0.34
-0.54
-0.68
-0.77
-0.84
-0.95
-1.14
-1.40
-1.63
-1.70
-1.48
-1.00
-0.35
0.26
0.69
0.88
0.91
0.86
0.81
0.74
0.62
0.42
0.18
-0.02
-0.11
-0.06
0.05
0.16
0.20
0.21
0.22
0.31
0.48
0.67
0.79
0.77
0.60
0.32
0.02
-0.21
-0.28
-0.18
0.07
0.38
0.62
0.70
0.56
0.25
-0.11
-0.38
-0.46
-0.32
-0.05
0.23
0.38
0.34
0.09
-0.31
-0.73
-1.07
-1.21
-1.13
-0.82
-0.37
0.14
0.59
0.88
0.99
0.93
0.76
0.55
0.37
0.25
0.19
0.19
0.22
0.26
0.28
0.27
0.22
0.15
0.09
0.08
0.13
0.23
0.36
0.49
0.57
0.61
0.58
0.50
0.36
0.20
0.03
-0.09
-0.15
-0.11
0.01
0.14
0.23
0.21
0.09
-0.10
-0.31
-0.50
-0.69
-0.90
-1.12
-1.32
-1.45
-1.45
-1.31
-1.07
-0.81
-0.58
-0.41
-0.29
-0.17
-0.05
0.06
0.17
0.27
0.36
0.46
0.57
0.66
0.72
0.75
0.75
0.73
0.66
0.55
0.40
0.21
0.05
-0.04
-0.02
0.08
0.22
0.32
0.33
0.17
-0.15
-0.59
-1.03
-1.35
-1.43
-1.24
-0.84
-0.37
-0.01
0.13
0.01
-0.31
-0.70
-1.06
-1.29
-1.34
-1.23
-1.00
-0.70
-0.37
-0.03
0.27
0.49
0.58
0.50
0.29
0.04
-0.15
-0.18
-0.04
0.19
0.38
0.43
0.35
0.21
0.14
0.22
0.45
0.73
0.94
1.01
0.93
0.77
0.60
0.49
0.42
0.35
0.26
0.14
0.01
-0.09
-0.14
-0.15
-0.14
-0.13
-0.12
-0.15
-0.23
-0.40
-0.67
-1.01
-1.35
-1.56
-1.57
-1.34
-0.91
-0.41
0.03
0.32
0.42
0.40
0.33
0.29
0.31
0.39
0.47
0.50
0.48
0.44
0.42
0.49
0.64
0.82
0.96
1.02
0.99
0.93
0.88
0.89
0.93
0.93
0.83
0.61
0.29
-0.04
-0.31
-0.44
-0.42
-0.27
-0.03
0.21
0.39
0.42
0.29
0.01
-0.36
-0.74
-1.05
-1.22
-1.23
-1.07
-0.82
-0.55
-0.35
-0.25
-0.22
-0.19
-0.05
0.23
0.61
0.99
1.25
1.30
1.14
0.83
0.47
0.15
-0.05
-0.12
-0.05
0.11
0.27
0.38
0.39
0.35
0.31
0.35
0.43
0.48
0.37
0.05
-0.45
-1.01
-1.45
-1.65
-1.57
-1.26
-0.81
-0.32
0.12
0.40
0.43
0.17
-0.35
-1.00
-1.59
-1.96
-2.00
-1.75
-1.34
-0.92
-0.58
-0.34
-0.16
0.04
0.30
0.58
0.84
1.02
1.07
0.99
0.83
0.65
0.51
0.47
0.56
0.75
0.94
1.06
1.03
0.86
0.63
0.42
0.26
0.14
-0.03
-0.28
-0.60
-0.91
-1.11
-1.14
-1.01
-0.79
-0.55
-0.33
-0.15
0.02
0.15
0.22
0.19
0.03
-0.20
-0.42
-0.56
-0.58
-0.53
-0.48
-0.49
-0.59
-0.70
-0.71
-0.56
-0.23
0.18
0.53
0.73
0.75
0.66
0.57
0.53
0.55
0.57
0.50
0.34
0.13
-0.02
-0.04
0.12
0.37
0.62
0.74
0.70
0.53
0.32
0.19
0.21
0.35
0.54
0.70
0.75
0.67
0.49
0.27
0.04
-0.16
-0.33
-0.45
-0.52
-0.55
-0.58
-0.64
-0.75
-0.92
-1.09
-1.20
-1.21
-1.13
-1.00
-0.89
-0.85
-0.84
-0.80
-0.60
-0.20
0.35
0.90
1.29
1.43
1.34
1.14
1.00
1.00
1.12
1.27
1.32
1.20
0.90
0.48
0.04
-0.35
-0.61
-0.70
-0.60
-0.36
-0.03
0.28
0.49
0.55
0.50
0.37
0.23
0.10
-0.05
-0.25
-0.53
-0.87
-1.25
-1.58
-1.81
-1.90
-1.80
-1.53
-1.13
-0.64
-0.17
0.24
0.52
0.62
0.56
0.35
0.09
-0.10
-0.13
0.06
0.40
0.77
1.01
1.04
0.85
0.57
0.33
0.26
0.36
0.56
0.75
0.83
0.77
0.59
0.37
0.14
-0.08
-0.30
-0.52
-0.71
-0.81
-0.78
-0.63
-0.46
-0.34
-0.34
-0.44
-0.55
-0.60
-0.58
-0.52
-0.50
-0.51
-0.52
-0.46
-0.34
-0.23
-0.22
-0.35
-0.58
-0.74
-0.72
-0.47
-0.10
0.22
0.34
0.21
-0.09
-0.41
-0.57
-0.51
-0.24
0.14
0.49
0.71
0.76
0.68
0.57
0.49
0.48
0.48
0.41
0.23
-0.04
-0.31
-0.46
-0.40
-0.14
0.24
0.63
0.93
1.09
1.10
1.00
0.83
0.63
0.42
0.23
0.06
-0.09
-0.21
-0.32
-0.42
-0.54
-0.72
-0.95
-1.19
-1.35
-1.33
-1.09
-0.65
-0.14
0.32
0.62
0.76
0.79
0.76
0.71
0.66
0.61
0.58
0.61
0.73
0.91
1.09
1.18
1.13
0.95
0.72
0.53
0.41
0.37
0.34
0.27
0.11
-0.13
-0.37
-0.53
-0.54
-0.41
-0.20
-0.01
0.09
0.06
-0.04
-0.16
-0.23
-0.23
-0.22
-0.24
-0.30
-0.38
-0.44
-0.44
-0.42
-0.44
-0.51
-0.64
-0.77
-0.84
-0.85
-0.79
-0.70
-0.57
-0.37
-0.08
0.27
0.65
0.95
1.13
1.15
1.02
0.79
0.51
0.23
0.00
-0.08
0.01
0.27
0.65
1.03
1.29
1.35
1.21
0.91
0.56
0.29
0.19
0.28
0.52
0.79
0.96
0.92
0.66
0.24
-0.22
-0.60
-0.82
-0.89
-0.85
-0.82
-0.87
-1.03
-1.27
-1.52
-1.69
-1.71
-1.58
-1.33
-1.05
-0.82
-0.70
-0.67
-0.65
-0.58
-0.40
-0.13
0.18
0.45
0.63
0.70
0.69
0.67
0.65
0.61
0.50
0.29
0.02
-0.23
-0.34
-0.23
0.09
0.51
0.87
1.00
0.83
0.42
-0.06
-0.44
-0.57
-0.48
-0.25
-0.04
0.03
-0.08
-0.32
-0.61
-0.86
-1.06
-1.20
-1.27
-1.25
-1.09
-0.83
-0.53
-0.35
-0.39
-0.69
-1.13
-1.52
-1.65
-1.42
-0.88
-0.17
0.49
0.95
1.16
1.19
1.12
1.05
0.97
0.89
0.76
0.60
0.45
0.39
0.43
0.57
0.73
0.84
0.86
0.79
0.68
0.58
0.49
0.41
0.31
0.22
0.16
0.12
0.06
-0.06
-0.26
-0.49
-0.65
-0.67
-0.54
-0.36
-0.26
-0.34
-0.59
-0.87
-1.04
-1.01
-0.80
-0.53
-0.32
-0.25
-0.28
-0.34
-0.35
-0.28
-0.13
0.06
0.27
0.45
0.61
0.73
0.81
0.84
0.81
0.73
0.61
0.45
0.30
0.16
0.07
0.02
-0.00
-0.02
-0.03
-0.00
0.11
0.34
0.63
0.87
0.96
0.81
0.47
0.05
-0.29
-0.45
-0.42
-0.27
-0.14
-0.12
-0.24
-0.46
-0.73
-0.98
-1.19
-1.35
-1.43
-1.46
-1.43
-1.34
-1.17
-0.87
-0.41
0.17
0.74
1.15
1.27
1.10
0.74
0.38
0.16
0.13
0.23
0.35
0.41
0.39
0.33
0.28
0.26
0.25
0.21
0.15
0.07
0.02
0.03
0.08
0.13
0.12
0.05
-0.08
-0.23
-0.36
-0.45
-0.50
-0.52
-0.52
-0.53
-0.57
-0.63
-0.74
-0.88
-1.04
-1.20
-1.32
-1.34
-1.24
-1.02
-0.69
-0.31
0.06
0.38
0.63
0.80
0.89
0.88
0.74
0.51
0.24
0.05
0.03
0.22
0.54
0.88
1.10
1.14
1.03
0.84
0.66
0.52
0.44
0.36
0.28
0.18
0.09
0.02
-0.03
-0.09
-0.19
-0.36
-0.55
-0.73
-0.83
-0.85
-0.81
-0.77
-0.78
-0.86
-0.99
-1.07
-1.04
-0.87
-0.60
-0.30
-0.04
0.18
0.37
0.56
0.75
0.93
1.10
1.22
1.33
1.41
1.46
1.47
1.42
1.28
1.07
0.81
0.56
0.39
0.33
0.39
0.53
0.69
0.79
0.81
0.75
0.67
0.58
0.47
0.29
0.02
-0.32
-0.64
-0.86
-0.89
-0.73
-0.46
-0.20
-0.05
-0.04
-0.16
-0.34
-0.49
-0.59
-0.65
-0.68
-0.69
-0.65
-0.50
-0.22
0.16
0.54
0.83
1.00
1.08
1.17
1.33
1.55
1.72
1.72
1.49
1.07
0.62
0.29
0.15
0.19
0.31
0.41
0.44
0.43
0.38
0.28
0.09
-0.20
-0.55
-0.80
-0.84
-0.60
-0.20
0.19
0.37
0.29
-0.00
-0.35
-0.67
-0.95
-1.22
-1.52
-1.81
-1.96
-1.86
-1.48
-0.90
-0.30
0.19
0.45
0.51
0.42
0.26
0.08
-0.07
-0.17
-0.21
-0.20
-0.15
-0.12
-0.13
-0.18
-0.20
-0.12
0.11
0.45
0.82
1.11
1.22
1.15
0.98
0.82
0.74
0.72
0.69
0.57
0.34
0.05
-0.19
-0.34
-0.42
-0.50
-0.66
-0.87
-1.04
-1.07
-0.92
-0.67
-0.47
-0.46
-0.68
-1.02
-1.33
-1.46
-1.37
-1.08
-0.67
-0.23
0.20
0.57
0.84
0.98
0.95
0.77
0.52
0.29
0.14
0.09
0.12
0.19
0.30
0.47
0.70
0.93
1.09
1.11
0.96
0.68
0.36
0.10
-0.07
-0.14
-0.13
-0.07
-0.02
-0.03
-0.15
-0.41
-0.75
-1.04
-1.13
-0.93
-0.48
0.03
0.42
0.56
0.42
0.09
-0.31
-0.68
-0.96
-1.14
-1.20
-1.14
-0.94
-0.60
-0.17
0.30
0.73
1.06
1.23
1.23
1.09
0.84
0.56
0.30
0.12
0.03
0.04
0.14
0.31
0.47
0.58
0.58
0.47
0.28
0.10
-0.01
-0.01
0.11
0.31
0.52
0.67
0.69
0.59
0.39
0.18
0.03
-0.05
-0.12
-0.26
-0.51
-0.82
-1.08
-1.16
-1.05
-0.79
-0.54
-0.40
-0.41
-0.52
-0.63
-0.64
-0.51
-0.28
0.01
0.28
0.50
0.62
0.62
0.50
0.28
0.01
-0.24
-0.43
-0.51
-0.47
-0.29
-0.00
0.34
0.66
0.83
0.82
0.61
0.27
-0.08
-0.30
-0.33
-0.18
0.06
0.26
0.28
0.09
-0.26
-0.63
-0.90
-0.98
-0.91
-0.77
-0.69
-0.71
-0.81
-0.95
-1.08
-1.17
-1.25
-1.32
-1.36
-1.33
-1.17
-0.86
-0.48
-0.09
0.21
0.37
0.38
0.27
0.09
-0.07
-0.12
0.02
0.37
0.88
1.43
1.83
1.96
1.79
1.42
1.01
0.69
0.51
0.46
0.42
0.34
0.17
-0.04
-0.24
-0.39
-0.46
-0.45
-0.37
-0.26
-0.14
-0.07
-0.09
-0.22
-0.44
-0.71
-0.94
-1.10
-1.15
-1.12
-1.07
-1.06
-1.10
-1.18
-1.22
-1.13
-0.86
-0.45
-0.01
0.32
0.43
0.33
0.12
-0.05
-0.05
0.18
0.58
1.04
1.41
1.62
1.66
1.58
1.48
1.39
1.31
1.22
1.09
0.92
0.76
0.67
0.69
0.80
0.91
0.92
0.77
0.47
0.11
-0.19
-0.34
-0.29
-0.12
0.10
0.28
0.37
0.35
0.24
0.03
-0.28
-0.69
-1.12
-1.47
-1.64
-1.59
-1.35
-1.06
-0.81
-0.66
-0.55
-0.40
-0.14
0.22
0.61
0.92
1.05
0.96
0.72
0.44
0.24
0.20
0.33
0.58
0.83
0.96
0.90
0.67
0.36
0.09
-0.03
0.03
0.21
0.40
0.52
0.52
0.39
0.20
-0.01
-0.20
-0.34
-0.46
-0.56
-0.67
-0.77
-0.85
-0.91
-0.96
-1.05
-1.18
-1.35
-1.50
-1.54
-1.42
-1.13
-0.71
-0.27
0.07
0.25
0.25
0.14
0.03
-0.01
0.07
0.24
0.46
0.67
0.83
0.91
0.90
0.83
0.71
0.54
0.35
0.16
-0.03
-0.18
-0.27
-0.26
-0.13
0.09
0.39
0.70
0.95
1.09
1.10
0.99
0.80
0.59
0.40
0.27
0.18
0.10
0.01
-0.09
-0.20
-0.29
-0.39
-0.52
-0.72
-0.99
-1.30
-1.56
-1.70
-1.68
-1.52
-1.25
-0.91
-0.51
-0.08
0.32
0.61
0.72
0.60
0.35
0.11
0.04
0.19
0.47
0.75
0.88
0.81
0.60
0.35
0.15
0.03
-0.06
-0.12
-0.15
-0.09
0.10
0.38
0.67
0.85
0.81
0.56
0.15
-0.30
-0.66
-0.86
-0.88
-0.77
-0.61
-0.51
-0.51
-0.62
-0.81
-1.04
-1.24
-1.40
-1.48
-1.44
-1.22
-0.82
-0.30
0.20
0.55
0.70
0.69
0.65
0.72
0.96
1.28
1.53
1.58
1.37
0.99
0.56
0.23
0.03
-0.03
0.02
0.14
0.35
0.63
0.93
1.15
1.20
1.06
0.74
0.36
0.02
-0.19
-0.30
-0.33
-0.33
-0.32
-0.29
-0.19
-0.01
0.20
0.36
0.35
0.13
-0.28
-0.78
-1.26
-1.62
-1.83
-1.89
-1.82
-1.65
-1.40
-1.11
-0.81
-0.54
-0.30
-0.07
0.20
0.52
0.86
1.19
1.42
1.49
1.38
1.10
0.72
0.32
-0.01
-0.19
-0.18
-0.02
0.24
0.52
0.77
0.94
1.04
1.06
1.00
0.85
0.65
0.46
0.33
0.27
0.27
0.24
0.14
-0.04
-0.26
-0.43
-0.49
-0.42
-0.30
-0.19
-0.18
-0.29
-0.47
-0.70
-0.90
-1.06
-1.15
-1.19
-1.15
-1.06
-0.91
-0.73
-0.50
-0.22
0.12
0.52
0.92
1.23
1.37
1.30
1.09
0.82
0.62
0.53
0.49
0.41
0.20
-0.13
-0.48
-0.73
-0.81
-0.73
-0.61
-0.53
-0.51
-0.47
-0.32
-0.01
0.39
0.73
0.83
0.60
0.10
-0.50
-0.98
-1.23
-1.25
-1.15
-1.09
-1.13
-1.24
-1.31
-1.24
-1.00
-0.65
-0.31
-0.06
0.09
0.18
0.25
0.32
0.35
0.31
0.20
0.07
-0.02
0.00
0.14
0.33
0.49
0.55
0.49
0.38
0.32
0.39
0.62
0.93
1.22
1.38
1.36
1.16
0.82
0.43
0.02
-0.37
-0.74
-1.06
-1.29
-1.39
-1.35
-1.23
-1.14
-1.18
-1.42
-1.80
-2.20
-2.44
-2.40
-2.06
-1.45
-0.70
0.08
0.76
1.26
1.53
1.58
1.46
1.25
1.03
0.84
0.68
0.51
0.37
0.33
0.46
0.78
1.20
1.57
1.69
1.47
0.99
0.41
-0.06
-0.28
-0.25
-0.07
0.12
0.22
0.20
0.13
0.06
0.02
-0.04
-0.17
-0.41
-0.73
-1.07
-1.33
-1.45
-1.44
-1.35
-1.23
-1.13
-1.06
-0.99
-0.90
-0.75
-0.55
-0.29
-0.00
0.30
0.57
0.78
0.90
0.95
0.93
0.92
0.96
1.07
1.23
1.36
1.41
1.33
1.16
0.94
0.74
0.59
0.50
0.48
0.51
0.58
0.70
0.85
0.96
0.97
0.83
0.53
0.12
-0.31
-0.68
-0.93
-1.03
-1.00
-0.89
-0.72
-0.54
-0.36
-0.21
-0.11
-0.07
-0.10
-0.15
-0.17
-0.10
0.04
0.24
0.43
0.57
0.65
0.68
0.68
0.67
0.64
0.59
0.52
0.47
0.46
0.54
0.67
0.82
0.92
0.95
0.92
0.84
0.73
0.60
0.43
0.20
-0.07
-0.34
-0.60
-0.80
-0.94
-1.00
-0.96
-0.82
-0.59
-0.34
-0.16
-0.14
-0.30
-0.59
-0.88
-1.05
-1.03
-0.83
-0.54
-0.25
-0.01
0.21
0.44
0.71
0.94
1.07
1.02
0.80
0.48
0.19
0.02
0.01
0.15
0.40
0.67
0.91
1.05
1.07
1.00
0.85
0.68
0.50
0.31
0.12
-0.07
-0.28
-0.49
-0.70
-0.93
-1.18
-1.40
-1.56
-1.59
-1.46
-1.22
-0.93
-0.69
-0.55
-0.57
-0.72
-0.95
-1.15
-1.22
-1.11
-0.82
-0.43
-0.05
0.25
0.45
0.58
0.67
0.68
0.59
0.37
0.08
-0.13
-0.11
0.19
0.70
1.23
1.56
1.57
1.26
0.78
0.34
0.10
0.10
0.29
0.51
0.65
0.64
0.47
0.18
-0.17
-0.54
-0.90
-1.20
-1.39
-1.42
-1.27
-0.95
-0.56
-0.22
-0.07
-0.18
-0.52
-0.97
-1.34
-1.44
-1.20
-0.67
-0.04
0.49
0.80
0.92
0.97
1.04
1.14
1.18
1.07
0.77
0.39
0.10
0.02
0.19
0.50
0.77
0.88
0.77
0.50
0.19
-0.05
-0.14
-0.07
0.14
0.40
0.62
0.75
0.76
0.66
0.51
0.36
0.22
0.10
-0.02
-0.13
-0.18
-0.17
-0.12
-0.13
-0.31
-0.71
-1.25
-1.76
-2.00
-1.85
-1.31
-0.57
0.13
0.59
0.77
0.71
0.55
0.38
0.25
0.18
0.17
0.24
0.42
0.69
0.99
1.18
1.19
0.98
0.64
0.31
0.10
0.05
0.13
0.28
0.40
0.46
0.42
0.26
0.01
-0.27
-0.51
-0.60
-0.49
-0.22
0.11
0.34
0.36
0.13
-0.25
-0.62
-0.87
-0.93
-0.84
-0.72
-0.62
-0.59
-0.58
-0.53
-0.42
-0.29
-0.19
-0.17
-0.25
-0.37
-0.46
-0.49
-0.44
-0.35
-0.25
-0.14
0.02
0.24
0.50
0.74
0.89
0.90
0.75
0.49
0.19
-0.06
-0.19
-0.18
-0.04
0.16
0.35
0.43
0.35
0.09
-0.26
-0.59
-0.80
-0.80
-0.62
-0.34
-0.09
0.04
0.01
-0.15
-0.36
-0.57
-0.76
-0.94
-1.11
-1.24
-1.29
-1.19
-0.93
-0.55
-0.16
0.17
0.36
0.44
0.45
0.47
0.53
0.62
0.67
0.64
0.51
0.31
0.14
0.06
0.14
0.35
0.60
0.80
0.85
0.70
0.41
0.04
-0.26
-0.44
-0.46
-0.39
-0.32
-0.35
-0.48
-0.63
-0.71
-0.64
-0.48
-0.33
-0.32
-0.51
-0.84
-1.17
-1.38
-1.41
-1.32
-1.19
-1.10
-1.05
-0.98
-0.86
-0.65
-0.40
-0.17
-0.03
0.03
0.02
0.03
0.11
0.28
0.51
0.73
0.88
0.93
0.89
0.82
0.77
0.77
0.81
0.81
0.76
0.64
0.51
0.45
0.48
0.59
0.71
0.79
0.80
0.76
0.72
0.67
0.55
0.31
-0.07
-0.54
-0.98
-1.26
-1.35
-1.29
-1.20
-1.21
-1.35
-1.59
-1.79
-1.84
-1.68
-1.32
-0.83
-0.31
0.17
0.58
0.89
1.11
1.21
1.21
1.11
0.93
0.71
0.51
0.36
0.28
0.28
0.37
0.54
0.75
0.94
1.01
0.94
0.74
0.52
0.39
0.39
0.51
0.62
0.64
0.53
0.35
0.17
0.07
0.02
-0.03
-0.14
-0.31
-0.47
-0.54
-0.46
-0.29
-0.11
-0.01
-0.06
-0.23
-0.42
-0.57
-0.65
-0.70
-0.82
-1.06
-1.40
-1.72
-1.83
-1.60
-1.02
-0.21
0.64
1.32
1.72
1.82
1.69
1.45
1.18
0.96
0.78
0.67
0.62
0.64
0.73
0.89
1.08
1.23
1.23
1.04
0.63
0.09
-0.41
-0.71
-0.75
-0.55
-0.24
0.04
0.19
0.20
0.12
0.03
-0.01
0.01
0.09
0.18
0.25
0.24
0.11
-0.16
-0.53
-0.93
-1.28
-1.54
-1.68
-1.71
-1.63
-1.42
-1.06
-0.58
-0.06
0.40
0.70
0.80
0.77
0.70
0.66
0.69
0.75
0.79
0.79
0.76
0.76
0.81
0.87
0.85
0.69
0.40
0.09
-0.09
-0.02
0.30
0.73
1.09
1.24
1.12
0.81
0.46
0.18
0.04
0.00
-0.03
-0.16
-0.44
-0.87
-1.35
-1.81
-2.15
-2.33
-2.36
-2.25
-2.00
-1.62
-1.13
-0.60
-0.13
0.19
0.34
0.36
0.33
0.30
0.28
0.24
0.20
0.18
0.25
0.43
0.66
0.85
0.91
0.83
0.68
0.52
0.38
0.28
0.19
0.13
0.16
0.31
0.56
0.82
0.97
0.91
0.64
0.26
-0.10
-0.33
-0.41
-0.37
-0.34
-0.39
-0.57
-0.85
-1.14
-1.32
-1.30
-1.13
-0.90
-0.73
-0.69
-0.71
-0.68
-0.51
-0.18
0.18
0.46
0.57
0.59
0.62
0.78
1.06
1.36
1.52
1.44
1.13
0.73
0.35
0.09
-0.01
0.04
0.19
0.40
0.58
0.67
0.62
0.45
0.23
0.07
0.03
0.10
0.18
0.20
0.12
0.01
-0.08
-0.10
-0.08
-0.07
-0.14
-0.28
-0.43
-0.53
-0.55
-0.54
-0.57
-0.68
-0.90
-1.15
-1.35
-1.40
-1.26
-0.95
-0.51
-0.05
0.35
0.63
0.75
0.74
0.62
0.44
0.22
-0.00
-0.21
-0.35
-0.38
-0.25
0.06
0.49
0.92
1.24
1.33
1.18
0.83
0.40
0.02
-0.22
-0.27
-0.17
0.01
0.18
0.27
0.24
0.11
-0.08
-0.27
-0.41
-0.47
-0.48
-0.49
-0.54
-0.64
-0.77
-0.86
-0.84
-0.68
-0.43
-0.19
-0.04
-0.03
-0.13
-0.22
-0.20
-0.02
0.29
0.64
0.90
1.01
0.94
0.76
0.55
0.35
0.21
0.09
-0.03
-0.15
-0.25
-0.27
-0.15
0.08
0.37
0.58
0.64
0.50
0.23
-0.07
-0.30
-0.40
-0.38
-0.31
-0.26
-0.29
-0.43
-0.64
-0.85
-1.01
-1.09
-1.11
-1.12
-1.14
-1.17
-1.17
-1.12
-1.00
-0.82
-0.63
-0.48
-0.37
-0.31
-0.23
-0.10
0.09
0.34
0.60
0.83
0.98
1.02
0.94
0.76
0.55
0.39
0.33
0.38
0.51
0.66
0.76
0.77
0.70
0.57
0.42
0.31
0.26
0.30
0.39
0.45
0.37
0.09
-0.39
-0.96
-1.42
-1.59
-1.39
-0.90
-0.31
0.15
0.31
0.13
-0.28
-0.77
-1.16
-1.33
-1.24
-0.95
-0.57
-0.22
0.04
0.18
0.27
0.38
0.55
0.76
0.92
0.99
0.97
0.91
0.89
0.95
1.05
1.11
1.02
0.77
0.42
0.06
-0.19
-0.29
-0.27
-0.21
-0.17
-0.19
-0.26
-0.34
-0.40
-0.40
-0.31
-0.14
0.06
0.23
0.30
0.26
0.12
-0.04
-0.19
-0.30
-0.41
-0.58
-0.83
-1.11
-1.35
-1.47
-1.48
-1.40
-1.26
-1.08
-0.79
-0.34
0.24
0.87
1.38
1.64
1.61
1.37
1.05
0.76
0.59
0.55
0.59
0.68
0.76
0.80
0.78
0.69
0.54
0.36
0.22
0.16
0.20
0.30
0.42
0.51
0.55
0.58
0.60
0.63
0.61
0.49
0.22
-0.19
-0.65
-1.03
-1.24
-1.24
-1.12
-0.99
-0.94
-1.01
-1.12
-1.19
-1.16
-1.01
-0.80
-0.58
-0.38
-0.21
-0.03
0.14
0.29
0.40
0.46
0.52
0.57
0.59
0.54
0.39
0.16
-0.06
-0.16
-0.06
0.19
0.50
0.77
0.94
1.03
1.11
1.20
1.27
1.27
1.16
0.95
0.71
0.51
0.36
0.24
0.07
-0.17
-0.49
-0.82
-1.11
-1.32
-1.45
-1.56
-1.65
-1.76
-1.83
-1.85
-1.79
-1.65
-1.45
-1.21
-0.90
-0.53
-0.11
0.36
0.77
1.05
1.15
1.05
0.82
0.55
0.33
0.23
0.27
0.42
0.61
0.78
0.92
1.01
1.08
1.12
1.10
1.01
0.81
0.56
0.33
0.21
0.24
0.41
0.61
0.76
0.78
0.68
0.48
0.24
-0.04
-0.32
-0.59
-0.77
-0.78
-0.62
-0.37
-0.19
-0.28
-0.70
-1.38
-2.10
-2.59
-2.68
-2.33
-1.67
-0.93
-0.33
0.01
0.11
0.09
0.11
0.31
0.70
1.19
1.61
1.81
1.74
1.46
1.10
0.80
0.62
0.56
0.55
0.55
0.55
0.57
0.61
0.64
0.65
0.62
0.57
0.55
0.60
0.71
0.84
0.96
1.01
0.96
0.79
0.50
0.10
-0.36
-0.82
-1.19
-1.43
-1.49
-1.41
-1.24
-1.05
-0.88
-0.77
-0.72
-0.73
-0.79
-0.85
-0.85
-0.73
-0.43
0.02
0.53
0.97
1.20
1.17
0.91
0.55
0.25
0.12
0.17
0.32
0.45
0.50
0.47
0.41
0.38
0.39
0.41
0.36
0.22
0.01
-0.19
-0.33
-0.41
-0.48
-0.60
-0.74
-0.81
-0.73
-0.44
-0.04
0.30
0.43
0.30
0.01
-0.26
-0.39
-0.36
-0.28
-0.27
-0.41
-0.62
-0.80
-0.80
-0.60
-0.26
0.12
0.45
0.66
0.76
0.72
0.53
0.20
-0.22
-0.63
-0.89
-0.90
-0.63
-0.13
0.45
0.97
1.31
1.46
1.42
1.27
1.06
0.84
0.63
0.44
0.25
0.07
-0.13
-0.34
-0.54
-0.71
-0.82
-0.86
-0.85
-0.83
-0.81
-0.84
-0.91
-1.02
-1.14
-1.26
-1.34
-1.37
-1.34
-1.26
-1.18
-1.09
-0.99
-0.82
-0.56
-0.19
0.21
0.55
0.75
0.81
0.75
0.66
0.59
0.59
0.65
0.72
0.77
0.76
0.71
0.63
0.59
0.61
0.67
0.75
0.80
0.81
0.81
0.83
0.92
1.03
1.08
0.96
0.67
0.29
-0.03
-0.15
-0.06
0.14
0.28
0.27
0.09
-0.16
-0.35
-0.45
-0.52
-0.67
-0.98
-1.41
-1.86
-2.20
-2.34
-2.29
-2.09
-1.80
-1.43
-0.98
-0.46
0.11
0.63
1.03
1.23
1.22
1.07
0.83
0.61
0.44
0.32
0.23
0.16
0.10
0.13
0.29
0.58
0.95
1.31
1.53
1.54
1.37
1.08
0.77
0.49
0.28
0.13
0.05
-0.00
-0.04
-0.09
-0.17
-0.29
-0.40
-0.46
-0.45
-0.37
-0.27
-0.22
-0.24
-0.35
-0.49
-0.63
-0.74
-0.83
-0.90
-0.91
-0.80
-0.51
-0.06
0.49
0.99
1.30
1.34
1.12
0.75
0.34
0.02
-0.16
-0.21
-0.16
-0.05
0.08
0.20
0.30
0.38
0.44
0.47
0.49
0.48
0.46
0.42
0.38
0.35
0.32
0.30
0.26
0.16
0.00
-0.22
-0.48
-0.72
-0.91
-1.05
-1.14
-1.22
-1.33
-1.47
-1.60
-1.66
-1.56
-1.27
-0.82
-0.32
0.13
0.44
0.58
0.59
0.53
0.44
0.33
0.21
0.07
-0.04
-0.08
-0.02
0.13
0.30
0.42
0.44
0.37
0.29
0.27
0.34
0.48
0.64
0.69
0.55
0.22
-0.23
-0.65
-0.90
-0.89
-0.65
-0.32
-0.07
0.01
-0.12
-0.38
-0.66
-0.89
-1.05
-1.18
-1.31
-1.45
-1.57
-1.60
-1.50
-1.26
-0.91
-0.47
-0.01
0.43
0.83
1.16
1.41
1.56
1.59
1.50
1.28
1.00
0.69
0.43
0.27
0.25
0.33
0.48
0.65
0.80
0.90
0.96
0.96
0.87
0.69
0.43
0.14
-0.11
-0.24
-0.25
-0.16
-0.05
-0.01
-0.08
-0.24
-0.41
-0.51
-0.52
-0.42
-0.30
-0.22
-0.24
-0.37
-0.61
-0.96
-1.35
-1.68
-1.84
-1.72
-1.25
-0.50
0.40
1.24
1.86
2.18
2.20
1.98
1.55
0.98
0.36
-0.19
-0.51
-0.49
-0.13
0.45
1.04
1.43
1.55
1.46
1.26
1.10
1.02
0.96
0.87
0.70
0.50
0.37
0.40
0.58
0.79
0.89
0.75
0.40
-0.04
-0.41
-0.61
-0.66
-0.70
-0.85
-1.17
-1.59
-1.98
-2.21
-2.22
-2.00
-1.59
-1.02
-0.29
0.53
1.32
1.94
2.23
2.16
1.78
1.22
0.67
0.23
-0.04
-0.14
-0.11
0.02
0.20
0.37
0.48
0.49
0.39
0.23
0.07
-0.02
-0.01
0.10
0.21
0.27
0.22
0.09
-0.06
-0.16
-0.19
-0.20
-0.28
-0.48
-0.76
-1.08
-1.33
-1.49
-1.61
-1.70
-1.78
-1.77
-1.58
-1.15
-0.54
0.13
0.70
1.06
1.19
1.12
0.92
0.65
0.33
-0.01
-0.34
-0.58
-0.69
-0.64
-0.43
-0.10
0.29
0.64
0.91
1.05
1.05
0.91
0.66
0.36
0.08
-0.13
-0.21
-0.16
-0.02
0.11
0.16
0.07
-0.11
-0.28
-0.35
-0.24
-0.01
0.21
0.29
0.12
-0.26
-0.74
-1.17
-1.43
-1.46
-1.30
-1.00
-0.61
-0.18
0.23
0.54
0.68
0.62
0.37
0.02
-0.30
-0.49
-0.47
-0.24
0.15
0.61
1.06
1.39
1.50
1.34
0.95
0.43
-0.08
-0.46
-0.64
-0.63
-0.48
-0.27
-0.04
0.16
0.27
0.26
0.12
-0.11
-0.33
-0.46
-0.45
-0.31
-0.17
-0.14
-0.29
-0.63
-1.05
-1.46
-1.74
-1.86
-1.78
-1.51
-1.10
-0.58
-0.04
0.42
0.73
0.87
0.92
0.97
1.12
1.38
1.63
1.75
1.64
1.29
0.83
0.39
0.11
0.02
0.06
0.14
0.20
0.20
0.17
0.15
0.17
0.24
0.35
0.47
0.57
0.61
0.55
0.37
0.10
-0.18
-0.38
-0.43
-0.36
-0.25
-0.23
-0.39
-0.72
-1.14
-1.49
-1.68
-1.66
-1.50
-1.29
-1.08
-0.82
-0.45
0.09
0.72
1.29
1.58
1.46
0.95
0.24
-0.43
-0.82
-0.80
-0.44
0.10
0.61
0.93
1.00
0.88
0.70
0.59
0.58
0.64
0.68
0.62
0.44
0.17
-0.11
-0.37
-0.61
-0.85
-1.13
-1.42
-1.68
-1.83
-1.87
-1.79
-1.67
-1.57
-1.50
-1.48
-1.47
-1.44
-1.35
-1.20
-0.96
-0.66
-0.31
0.02
0.28
0.48
0.62
0.74
0.89
1.02
1.08
1.02
0.83
0.57
0.35
0.24
0.26
0.38
0.51
0.62
0.69
0.77
0.87
0.97
1.05
1.05
0.94
0.75
0.49
0.21
-0.07
-0.35
-0.60
-0.82
-0.96
-1.00
-0.96
-0.86
-0.75
-0.69
-0.74
-0.93
-1.23
-1.57
-1.82
-1.86
-1.59
-1.03
-0.28
0.49
1.11
1.49
1.63
1.57
1.37
1.08
0.75
0.44
0.25
0.26
0.50
0.87
1.24
1.47
1.49
1.36
1.22
1.15
1.17
1.18
1.07
0.77
0.33
-0.14
-0.50
-0.67
-0.66
-0.53
-0.33
-0.13
0.04
0.13
0.12
-0.06
-0.39
-0.84
-1.29
-1.65
-1.84
-1.87
-1.76
-1.58
-1.36
-1.07
-0.72
-0.32
0.10
0.50
0.83
1.08
1.24
1.30
1.24
1.08
0.88
0.74
0.76
0.95
1.25
1.53
1.69
1.67
1.55
1.40
1.26
1.11
0.85
0.43
-0.10
-0.62
-0.95
-0.96
-0.68
-0.24
0.12
0.21
-0.02
-0.48
-0.95
-1.23
-1.19
-0.92
-0.62
-0.55
-0.81
-1.32
-1.82
-2.04
-1.85
-1.35
-0.76
-0.30
-0.02
0.18
0.48
0.92
1.41
1.74
1.73
1.41
0.95
0.60
0.51
0.69
0.95
1.13
1.07
0.80
0.42
0.10
-0.04
0.02
0.27
0.56
0.77
0.80
0.61
0.25
-0.16
-0.54
-0.83
-1.01
-1.09
-1.09
-1.01
-0.86
-0.71
-0.65
-0.73
-0.97
-1.27
-1.51
-1.56
-1.42
-1.13
-0.81
-0.55
-0.37
-0.22
-0.04
0.20
0.49
0.75
0.88
0.86
0.67
0.41
0.18
0.09
0.16
0.40
0.71
1.01
1.23
1.37
1.44
1.49
1.54
1.56
1.48
1.30
1.04
0.75
0.54
0.41
0.33
0.19
-0.07
-0.47
-0.91
-1.22
-1.28
-1.06
-0.67
-0.31
-0.16
-0.31
-0.71
-1.23
-1.70
-2.01
-2.12
-2.07
-1.92
-1.69
-1.37
-0.94
-0.39
0.23
0.85
1.38
1.79
2.07
2.24
2.34
2.38
2.33
2.15
1.81
1.32
0.77
0.26
-0.13
-0.33
-0.37
-0.31
-0.21
-0.10
-0.01
0.07
0.11
0.11
0.04
-0.09
-0.23
-0.32
-0.32
-0.23
-0.08
0.06
0.10
0.03
-0.15
-0.40
-0.67
-0.91
-1.08
-1.17
-1.17
-1.10
-0.95
-0.73
-0.43
-0.08
0.26
0.54
0.68
0.66
0.52
0.35
0.24
0.24
0.34
0.50
0.63
0.69
0.65
0.54
0.38
0.22
0.10
0.06
0.14
0.33
0.57
0.80
0.91
0.87
0.68
0.42
0.16
-0.02
-0.10
-0.11
-0.11
-0.15
-0.23
-0.33
-0.42
-0.49
-0.58
-0.78
-1.11
-1.55
-1.98
-2.27
-2.32
-2.14
-1.76
-1.26
-0.72
-0.18
0.29
0.63
0.80
0.81
0.75
0.76
0.90
1.11
1.29
1.30
1.11
0.79
0.48
0.27
0.20
0.22
0.25
0.25
0.21
0.13
-0.03
-0.25
-0.53
-0.75
-0.80
-0.60
-0.22
0.17
0.36
0.24
-0.14
-0.58
-0.85
-0.84
-0.61
-0.33
-0.17
-0.25
-0.55
-0.99
-1.47
-1.91
-2.23
-2.31
-2.07
-1.47
-0.60
0.33
1.05
1.40
1.34
1.02
0.68
0.47
0.46
0.56
0.67
0.69
0.62
0.51
0.42
0.41
0.48
0.59
0.71
0.80
0.82
0.75
0.58
0.36
0.13
-0.08
-0.20
-0.23
-0.14
0.02
0.18
0.28
0.22
-0.01
-0.40
-0.88
-1.33
-1.64
-1.76
-1.72
-1.60
-1.50
-1.49
-1.55
-1.59
-1.48
-1.14
-0.60
0.06
0.69
1.18
1.51
1.71
1.81
1.82
1.71
1.48
1.18
0.92
0.77
0.78
0.91
1.04
1.05
0.92
0.66
0.37
0.17
0.09
0.13
0.21
0.27
0.24
0.13
-0.03
-0.19
-0.34
-0.50
-0.69
-0.89
-1.05
-1.07
-0.93
-0.65
-0.35
-0.17
-0.20
-0.41
-0.72
-1.00
-1.16
-1.19
-1.13
-1.02
-0.85
-0.64
-0.36
-0.03
0.33
0.69
1.01
1.27
1.44
1.48
1.39
1.20
0.99
0.85
0.80
0.82
0.85
0.81
0.73
0.65
0.60
0.61
0.60
0.50
0.28
-0.02
-0.33
-0.57
-0.70
-0.74
-0.73
-0.73
-0.75
-0.76
-0.76
-0.73
-0.66
-0.59
-0.59
-0.67
-0.88
-1.20
-1.55
-1.86
-2.03
-1.98
-1.71
-1.28
-0.78
-0.31
0.09
0.40
0.65
0.87
1.07
1.20
1.25
1.21
1.16
1.18
1.36
1.69
2.07
2.36
2.42
2.20
1.75
1.17
0.56
-0.01
-0.49
-0.84
-1.02
-0.99
-0.78
-0.48
-0.23
-0.10
-0.14
-0.26
-0.39
-0.46
-0.48
-0.51
-0.62
-0.83
-1.13
-1.48
-1.81
-2.09
-2.24
-2.18
-1.87
-1.35
-0.73
-0.18
0.15
0.23
0.14
0.06
0.15
0.46
0.91
1.35
1.61
1.63
1.44
1.18
0.97
0.89
0.91
0.96
0.97
0.91
0.83
0.76
0.74
0.77
0.79
0.75
0.65
0.53
0.44
0.42
0.45
0.48
0.43
0.28
0.01
-0.32
-0.63
-0.85
-0.95
-0.95
-0.96
-1.06
-1.32
-1.68
-2.02
-2.18
-2.07
-1.68
-1.10
-0.47
0.14
0.69
1.14
1.46
1.60
1.52
1.24
0.83
0.39
0.05
-0.10
-0.01
0.32
0.82
1.34
1.72
1.81
1.58
1.07
0.47
-0.04
-0.33
-0.35
-0.15
0.19
0.54
0.81
0.95
0.94
0.82
0.68
0.56
0.49
0.42
0.29
0.04
-0.33
-0.78
-1.21
-1.54
-1.74
-1.82
-1.83
-1.79
-1.70
-1.54
-1.25
-0.83
-0.31
0.22
0.65
0.91
0.95
0.86
0.73
0.67
0.72
0.84
0.94
0.92
0.76
0.53
0.32
0.24
0.31
0.47
0.62
0.66
0.57
0.39
0.21
0.08
0.01
-0.07
-0.19
-0.41
-0.70
-1.02
-1.27
-1.39
-1.35
-1.16
-0.86
-0.53
-0.27
-0.15
-0.21
-0.45
-0.81
-1.20
-1.54
-1.72
-1.66
-1.34
-0.81
-0.19
0.36
0.71
0.83
0.74
0.55
0.40
0.38
0.52
0.78
1.06
1.24
1.26
1.12
0.91
0.73
0.66
0.70
0.79
0.86
0.88
0.89
0.94
1.06
1.17
1.15
0.88
0.32
-0.42
-1.17
-1.75
-2.03
-2.02
-1.77
-1.41
-1.03
-0.69
-0.45
-0.33
-0.35
-0.55
-0.91
-1.34
-1.70
-1.85
-1.65
-1.12
-0.38
0.37
0.93
1.22
1.24
1.12
0.99
0.93
0.94
0.94
0.87
0.71
0.50
0.32
0.23
0.25
0.32
0.39
0.41
0.38
0.35
0.38
0.49
0.65
0.78
0.82
0.73
0.56
0.37
0.24
0.19
0.22
0.25
0.24
0.16
0.00
-0.21
-0.45
-0.69
-0.93
-1.13
-1.29
-1.39
-1.42
-1.37
-1.29
-1.19
-1.09
-1.00
-0.88
-0.66
-0.32
0.16
0.70
1.20
1.52
1.57
1.41
1.13
0.88
0.75
0.73
0.75
0.71
0.58
0.41
0.29
0.28
0.39
0.56
0.71
0.76
0.72
0.59
0.42
0.22
0.03
-0.17
-0.37
-0.58
-0.79
-0.98
-1.12
-1.20
-1.20
-1.14
-1.04
-0.95
-0.88
-0.84
-0.84
-0.90
-1.01
-1.16
-1.29
-1.31
-1.16
-0.83
-0.39
0.05
0.41
0.69
0.92
1.14
1.35
1.50
1.53
1.38
1.09
0.76
0.52
0.44
0.53
0.73
0.93
1.05
1.05
0.91
0.68
0.38
0.08
-0.16
-0.31
-0.35
-0.34
-0.35
-0.47
-0.72
-1.07
-1.42
-1.64
-1.70
-1.62
-1.51
-1.46
-1.55
-1.79
-2.14
-2.52
-2.82
-2.92
-2.73
-2.19
-1.37
-0.42
0.45
1.06
1.35
1.38
1.26
1.14
1.09
1.14
1.26
1.43
1.63
1.81
1.91
1.85
1.60
1.21
0.78
0.43
0.23
0.14
0.09
-0.02
-0.21
-0.43
-0.59
-0.63
-0.57
-0.48
-0.45
-0.52
-0.65
-0.78
-0.84
-0.80
-0.72
-0.69
-0.81
-1.10
-1.51
-1.90
-2.12
-2.03
-1.62
-0.95
-0.16
0.60
1.21
1.64
1.90
2.02
2.00
1.84
1.51
1.05
0.56
0.18
0.02
0.12
0.41
0.80
1.13
1.33
1.39
1.34
1.22
1.07
0.89
0.66
0.41
0.18
0.03
0.01
0.10
0.27
0.40
0.39
0.20
-0.16
-0.61
-1.04
-1.38
-1.61
-1.76
-1.87
-1.95
-1.96
-1.86
-1.63
-1.27
-0.84
-0.36
0.11
0.53
0.87
1.09
1.15
1.08
0.90
0.67
0.45
0.28
0.20
0.21
0.29
0.39
0.47
0.50
0.48
0.43
0.41
0.45
0.55
0.67
0.75
0.76
0.70
0.61
0.51
0.42
0.31
0.14
-0.10
-0.36
-0.57
-0.67
-0.64
-0.54
-0.44
-0.42
-0.50
-0.68
-0.89
-1.09
-1.22
-1.27
-1.23
-1.12
-0.95
-0.70
-0.38
0.04
0.50
0.95
1.30
1.47
1.43
1.21
0.89
0.54
0.23
0.00
-0.11
-0.09
0.07
0.32
0.56
0.67
0.60
0.34
0.00
-0.29
-0.48
-0.57
-0.62
-0.67
-0.70
-0.65
-0.48
-0.19
0.12
0.31
0.30
0.09
-0.25
-0.63
-0.99
-1.31
-1.58
-1.75
-1.76
-1.54
-1.10
-0.48
0.20
0.81
1.25
1.48
1.50
1.33
1.01
0.63
0.27
0.01
-0.08
-0.02
0.14
0.33
0.47
0.57
0.66
0.79
0.99
1.24
1.49
1.64
1.61
1.38
0.96
0.41
-0.16
-0.63
-0.93
-1.04
-0.98
-0.86
-0.76
-0.81
-1.02
-1.37
-1.77
-2.07
-2.15
-1.95
-1.53
-1.01
-0.56
-0.28
-0.19
-0.18
-0.13
0.05
0.35
0.69
0.97
1.12
1.18
1.21
1.27
1.35
1.37
1.26
1.01
0.67
0.36
0.16
0.12
0.20
0.31
0.35
0.30
0.18
0.06
0.02
0.08
0.21
0.31
0.29
0.10
-0.21
-0.55
-0.80
-0.89
-0.84
-0.72
-0.61
-0.56
-0.60
-0.70
-0.82
-0.92
-0.99
-1.02
-1.00
-0.93
-0.74
-0.43
0.02
0.54
1.04
1.37
1.42
1.17
0.73
0.29
0.07
0.13
0.43
0.80
1.09
1.21
1.24
1.26
1.34
1.45
1.48
1.35
1.06
0.71
0.42
0.27
0.24
0.26
0.24
0.15
0.01
-0.14
-0.26
-0.36
-0.45
-0.54
-0.65
-0.78
-0.95
-1.12
-1.27
-1.35
-1.33
-1.25
-1.16
-1.10
-1.05
-0.96
-0.77
-0.49
-0.16
0.09
0.20
0.19
0.15
0.18
0.37
0.67
0.98
1.17
1.18
1.01
0.73
0.42
0.17
0.03
-0.02
0.03
0.10
0.15
0.15
0.10
0.01
-0.10
-0.20
-0.27
-0.33
-0.36
-0.37
-0.38
-0.40
-0.46
-0.60
-0.82
-1.11
-1.40
-1.65
-1.78
-1.75
-1.58
-1.30
-0.95
-0.58
-0.26
-0.01
0.15
0.26
0.40
0.60
0.90
1.21
1.41
1.39
1.13
0.72
0.33
0.14
0.21
0.52
0.89
1.18
1.26
1.14
0.86
0.52
0.18
-0.11
-0.31
-0.40
-0.38
-0.30
-0.26
-0.34
-0.59
-0.95
-1.29
-1.48
-1.45
-1.26
-1.01
-0.87
-0.92
-1.15
-1.43
-1.60
-1.55
-1.25
-0.78
-0.26
0.17
0.45
0.63
0.80
1.02
1.30
1.56
1.68
1.59
1.27
0.85
0.47
0.26
0.26
0.39
0.53
0.58
0.52
0.42
0.36
0.37
0.43
0.48
0.44
0.31
0.11
-0.11
-0.33
-0.53
-0.74
-0.96
-1.13
-1.22
-1.20
-1.12
-1.04
-1.04
-1.12
-1.25
-1.34
-1.32
-1.14
-0.80
-0.37
0.10
0.52
0.84
1.05
1.14
1.13
1.02
0.84
0.59
0.31
0.04
-0.15
-0.20
-0.09
0.15
0.44
0.71
0.91
1.02
1.04
0.97
0.83
0.64
0.43
0.27
0.20
0.21
0.22
0.14
-0.09
-0.43
-0.77
-0.97
-0.93
-0.67
-0.33
-0.11
-0.14
-0.44
-0.90
-1.29
-1.45
-1.29
-0.87
-0.36
0.07
0.33
0.42
0.43
0.44
0.45
0.43
0.32
0.10
-0.14
-0.32
-0.34
-0.21
0.01
0.21
0.33
0.39
0.44
0.57
0.77
1.00
1.16
1.16
0.97
0.63
0.24
-0.09
-0.30
-0.37
-0.38
-0.44
-0.59
-0.83
-1.07
-1.17
-1.10
-0.89
-0.69
-0.64
-0.77
-1.00
-1.19
-1.23
-1.06
-0.78
-0.44
-0.13
0.17
0.46
0.73
0.90
0.93
0.79
0.57
0.36
0.27
0.32
0.45
0.60
0.77
0.95
1.20
1.46
1.64
1.62
1.33
0.85
0.34
-0.02
-0.15
-0.09
0.03
0.09
0.05
-0.03
-0.06
0.05
0.27
0.50
0.61
0.53
0.23
-0.26
-0.87
-1.48
-1.96
-2.20
-2.14
-1.80
-1.29
-0.75
-0.27
0.11
0.42
0.70
0.95
1.14
1.24
1.25
1.19
1.10
1.01
0.90
0.76
0.62
0.51
0.50
0.60
0.78
0.97
1.11
1.13
1.00
0.70
0.27
-0.22
-0.60
-0.76
-0.66
-0.40
-0.17
-0.16
-0.38
-0.70
-0.92
-0.87
-0.54
-0.12
0.15
0.11
-0.26
-0.79
-1.26
-1.50
-1.46
-1.21
-0.86
-0.56
-0.37
-0.28
-0.28
-0.31
-0.32
-0.25
-0.09
0.18
0.52
0.89
1.23
1.48
1.63
1.68
1.65
1.56
1.42
1.26
1.08
0.92
0.81
0.76
0.76
0.75
0.69
0.54
0.35
0.16
-0.00
-0.16
-0.33
-0.53
-0.72
-0.82
-0.77
-0.57
-0.33
-0.15
-0.14
-0.32
-0.64
-1.05
-1.48
-1.90
-2.23
-2.39
-2.29
-1.85
-1.12
-0.22
0.68
1.42
1.87
2.03
1.90
1.59
1.19
0.78
0.44
0.21
0.12
0.15
0.33
0.63
0.98
1.30
1.45
1.35
1.00
0.46
-0.14
-0.63
-0.90
-0.91
-0.70
-0.37
-0.08
0.03
-0.13
-0.51
-0.98
-1.39
-1.61
-1.63
-1.56
-1.50
-1.55
-1.66
-1.74
-1.72
-1.56
-1.32
-1.06
-0.85
-0.68
-0.49
-0.21
0.23
0.78
1.35
1.79
2.01
1.95
1.67
1.27
0.84
0.47
0.18
0.00
-0.04
0.08
0.41
0.90
1.43
1.83
1.99
1.85
1.50
1.11
0.81
0.67
0.67
0.71
0.67
0.48
0.13
-0.32
-0.76
-1.09
-1.27
-1.33
-1.34
-1.40
-1.51
-1.64
-1.70
-1.63
-1.44
-1.23
-1.10
-1.12
-1.26
-1.39
-1.34
-1.02
-0.47
0.18
0.75
1.09
1.20
1.14
1.02
0.93
0.88
0.81
0.67
0.48
0.30
0.25
0.38
0.64
0.93
1.10
1.09
0.91
0.65
0.44
0.32
0.26
0.17
-0.04
-0.39
-0.80
-1.14
-1.25
-1.08
-0.68
-0.19
0.20
0.39
0.34
0.10
-0.22
-0.57
-0.89
-1.15
-1.33
-1.38
-1.24
-0.85
-0.23
0.55
1.32
1.90
2.16
2.01
1.53
0.86
0.20
-0.30
-0.52
-0.46
-0.19
0.18
0.51
0.71
0.74
0.60
0.35
0.08
-0.15
-0.33
-0.46
-0.56
-0.61
-0.63
-0.58
-0.47
-0.32
-0.15
-0.04
-0.03
-0.19
-0.53
-1.02
-1.54
-1.95
-2.15
-2.14
-1.98
-1.80
-1.67
-1.58
-1.42
-1.11
-0.62
-0.03
0.54
0.94
1.07
0.97
0.75
0.55
0.52
0.70
1.04
1.43
1.72
1.79
1.62
1.29
0.95
0.76
0.76
0.91
1.09
1.16
1.08
0.87
0.59
0.28
-0.06
-0.48
-0.95
-1.38
-1.65
-1.62
-1.30
-0.82
-0.41
-0.24
-0.39
-0.77
-1.24
-1.67
-1.97
-2.12
-2.11
-1.90
-1.45
-0.78
0.02
0.79
1.32
1.54
1.45
1.18
0.90
0.72
0.69
0.77
0.89
0.98
1.03
1.02
0.98
0.93
0.89
0.85
0.82
0.77
0.65
0.46
0.18
-0.12
-0.34
-0.40
-0.27
-0.01
0.26
0.43
0.41
0.20
-0.13
-0.49
-0.83
-1.13
-1.39
-1.61
-1.78
-1.85
-1.79
-1.61
-1.34
-1.04
-0.77
-0.56
-0.38
-0.20
0.01
0.29
0.62
0.99
1.32
1.56
1.65
1.56
1.33
1.01
0.69
0.45
0.36
0.41
0.59
0.82
1.05
1.24
1.35
1.35
1.20
0.88
0.40
-0.17
-0.68
-1.02
-1.10
-0.94
-0.64
-0.38
-0.28
-0.37
-0.62
-0.90
-1.13
-1.24
-1.24
-1.13
-0.93
-0.64
-0.26
0.19
0.64
1.00
1.21
1.21
1.04
0.78
0.54
0.37
0.31
0.31
0.27
0.16
-0.01
-0.20
-0.28
-0.22
-0.02
0.23
0.40
0.40
0.19
-0.13
-0.48
-0.75
-0.89
-0.92
-0.88
-0.79
-0.64
-0.45
-0.22
-0.03
0.03
-0.07
-0.35
-0.74
-1.15
-1.48
-1.68
-1.71
-1.57
-1.24
-0.73
-0.09
0.61
1.23
1.65
1.78
1.63
1.30
0.91
0.58
0.39
0.32
0.36
0.43
0.49
0.52
0.51
0.48
0.45
0.43
0.41
0.39
0.32
0.21
0.06
-0.11
-0.24
-0.33
-0.40
-0.47
-0.56
-0.69
-0.82
-0.90
-0.91
-0.86
-0.80
-0.81
-0.95
-1.22
-1.58
-1.91
-2.09
-2.05
-1.74
-1.20
-0.51
0.24
0.96
1.56
1.97
2.16
2.14
1.97
1.71
1.46
1.24
1.10
1.02
1.00
1.03
1.12
1.24
1.33
1.30
1.10
0.73
0.27
-0.14
-0.39
-0.42
-0.29
-0.11
0.01
0.02
-0.07
-0.22
-0.37
-0.49
-0.58
-0.65
-0.69
-0.68
-0.61
-0.52
-0.43
-0.42
-0.53
-0.76
-1.05
-1.30
-1.38
-1.21
-0.78
-0.18
0.42
0.90
1.18
1.27
1.24
1.13
0.99
0.83
0.68
0.56
0.49
0.48
0.52
0.58
0.67
0.79
0.92
1.01
1.01
0.86
0.61
0.35
0.21
0.23
0.35
0.41
0.27
-0.07
-0.51
-0.84
-0.92
-0.75
-0.46
-0.26
-0.31
-0.61
-1.04
-1.39
-1.51
-1.38
-1.08
-0.74
-0.48
-0.33
-0.22
-0.04
0.26
0.66
1.05
1.30
1.33
1.16
0.91
0.70
0.60
0.61
0.67
0.72
0.73
0.68
0.59
0.47
0.36
0.25
0.17
0.10
0.02
-0.09
-0.25
-0.42
-0.55
-0.61
-0.63
-0.70
-0.89
-1.22
-1.57
-1.81
-1.79
-1.49
-1.02
-0.58
-0.36
-0.39
-0.57
-0.75
-0.77
-0.57
-0.20
0.21
0.58
0.86
1.05
1.19
1.28
1.29
1.19
0.96
0.65
0.38
0.28
0.42
0.78
1.20
1.49
1.49
1.17
0.63
0.06
-0.36
-0.53
-0.50
-0.39
-0.33
-0.39
-0.53
-0.65
-0.67
-0.57
-0.41
-0.30
-0.35
-0.57
-0.89
-1.17
-1.31
-1.29
-1.19
-1.15
-1.24
-1.45
-1.65
-1.70
-1.47
-0.97
-0.29
0.38
0.92
1.24
1.32
1.24
1.04
0.80
0.54
0.34
0.22
0.23
0.35
0.50
0.60
0.62
0.58
0.57
0.68
0.93
1.27
1.51
1.51
1.21
0.67
0.10
-0.28
-0.37
-0.21
0.04
0.20
0.17
-0.04
-0.35
-0.65
-0.87
-1.03
-1.14
-1.19
-1.15
-0.99
-0.73
-0.50
-0.42
-0.58
-0.93
-1.30
-1.46
-1.27
-0.70
0.10
0.93
1.57
1.90
1.92
1.69
1.34
0.97
0.67
0.51
0.48
0.55
0.67
0.76
0.79
0.76
0.68
0.57
0.45
0.34
0.22
0.14
0.11
0.15
0.20
0.21
0.13
-0.06
-0.31
-0.54
-0.67
-0.68
-0.62
-0.59
-0.67
-0.88
-1.17
-1.41
-1.54
-1.52
-1.39
-1.23
-1.11
-1.02
-0.86
-0.57
-0.08
0.53
1.14
1.59
1.74
1.57
1.16
0.61
0.08
-0.34
-0.57
-0.58
-0.38
0.01
0.51
1.02
1.43
1.62
1.56
1.25
0.78
0.27
-0.16
-0.41
-0.46
-0.33
-0.13
0.05
0.10
0.02
-0.17
-0.38
-0.57
-0.69
-0.80
-0.91
-1.06
-1.24
-1.41
-1.56
-1.70
-1.86
-2.01
-2.12
-2.11
-1.92
-1.52
-0.94
-0.30
0.32
0.83
1.19
1.41
1.52
1.54
1.49
1.37
1.15
0.89
0.65
0.55
0.63
0.88
1.18
1.39
1.39
1.19
0.91
0.68
0.58
0.59
0.61
0.54
0.35
0.07
-0.23
-0.51
-0.72
-0.88
-1.00
-1.08
-1.13
-1.18
-1.25
-1.37
-1.52
-1.64
-1.65
-1.50
-1.19
-0.77
-0.35
0.01
0.28
0.46
0.59
0.72
0.85
0.96
1.00
0.94
0.78
0.55
0.35
0.24
0.30
0.50
0.78
1.02
1.13
1.10
0.97
0.83
0.72
0.66
0.58
0.39
0.08
-0.30
-0.64
-0.82
-0.79
-0.57
-0.28
-0.01
0.17
0.22
0.18
0.09
0.00
-0.07
-0.13
-0.18
-0.25
-0.35
-0.48
-0.63
-0.75
-0.83
-0.87
-0.92
-1.00
-1.07
-1.08
-0.96
-0.66
-0.23
0.24
0.64
0.91
1.03
1.07
1.07
1.05
1.01
0.90
0.75
0.59
0.53
0.61
0.83
1.11
1.30
1.30
1.07
0.69
0.28
0.01
-0.06
0.05
0.23
0.35
0.32
0.10
-0.25
-0.67
-1.04
-1.29
-1.36
-1.29
-1.12
-0.97
-0.93
-1.03
-1.22
-1.40
-1.47
-1.38
-1.12
-0.74
-0.31
0.12
0.52
0.86
1.09
1.17
1.10
0.90
0.64
0.41
0.27
0.23
0.29
0.43
0.66
0.98
1.35
1.67
1.82
1.72
1.38
0.90
0.46
0.18
0.10
0.12
0.08
-0.13
-0.51
-0.95
-1.27
-1.35
-1.19
-0.91
-0.69
-0.67
-0.88
-1.22
-1.54
-1.71
-1.67
-1.47
-1.17
-0.87
-0.56
-0.23
0.15
0.55
0.90
1.10
1.09
0.90
0.62
0.36
0.21
0.16
0.18
0.22
0.24
0.28
0.37
0.52
0.70
0.85
0.90
0.80
0.60
0.33
0.05
-0.22
-0.47
-0.73
-0.97
-1.16
-1.26
-1.24
-1.11
-0.94
-0.84
-0.90
-1.12
-1.45
-1.77
-1.90
-1.76
-1.35
-0.75
-0.13
0.38
0.70
0.84
0.89
0.91
0.94
0.98
1.03
1.09
1.19
1.34
1.50
1.61
1.56
1.30
0.87
0.40
0.03
-0.13
-0.10
0.04
0.19
0.28
0.30
0.26
0.14
-0.06
-0.35
-0.66
-0.88
-0.90
-0.69
-0.34
-0.03
0.07
-0.10
-0.46
-0.88
-1.22
-1.40
-1.47
-1.47
-1.44
-1.34
-1.14
-0.81
-0.39
0.10
0.59
1.03
1.41
1.67
1.82
1.82
1.71
1.49
1.22
0.92
0.64
0.45
0.39
0.52
0.80
1.12
1.35
1.37
1.15
0.78
0.38
0.07
-0.10
-0.19
-0.23
-0.27
-0.31
-0.34
-0.38
-0.49
-0.68
-0.95
-1.22
-1.39
-1.41
-1.30
-1.09
-0.81
-0.44
0.02
0.57
1.10
1.48
1.58
1.37
0.94
0.42
-0.00
-0.25
-0.31
-0.24
-0.13
-0.06
-0.07
-0.15
-0.23
-0.24
-0.12
0.14
0.44
0.65
0.67
0.46
0.07
-0.38
-0.76
-0.99
-1.02
-0.92
-0.79
-0.73
-0.82
-1.07
-1.39
-1.68
-1.82
-1.74
-1.41
-0.89
-0.24
0.43
1.00
1.35
1.41
1.19
0.78
0.34
0.03
-0.10
-0.06
0.07
0.21
0.32
0.46
0.65
0.88
1.07
1.15
1.06
0.81
0.47
0.14
-0.12
-0.28
-0.38
-0.45
-0.51
-0.54
-0.51
-0.39
-0.19
0.03
0.19
0.21
0.07
-0.17
-0.42
-0.56
-0.50
-0.25
0.13
0.47
0.66
0.61
0.32
-0.10
-0.47
-0.63
-0.50
-0.16
0.22
0.48
0.49
0.31
0.06
-0.05
0.04
0.30
0.60
0.77
0.72
0.49
0.18
-0.08
-0.21
-0.23
-0.18
-0.19
-0.31
-0.60
-1.05
-1.61
-2.15
-2.53
-2.63
-2.39
-1.85
-1.16
-0.47
0.09
0.48
0.71
0.81
0.81
0.73
0.59
0.44
0.35
0.37
0.55
0.83
1.12
1.31
1.32
1.12
0.73
0.28
-0.11
-0.32
-0.30
-0.11
0.14
0.32
0.36
0.23
-0.02
-0.37
-0.77
-1.20
-1.60
-1.91
-2.04
-1.95
-1.61
-1.11
-0.53
0.01
0.42
0.64
0.70
0.66
0.60
0.60
0.69
0.84
1.01
1.11
1.12
1.02
0.84
0.61
0.38
0.16
-0.02
-0.16
-0.22
-0.15
0.07
0.40
0.74
0.95
0.91
0.60
0.09
-0.42
-0.78
-0.93
-0.93
-0.90
-0.93
-1.06
-1.18
-1.20
-1.06
-0.77
-0.43
-0.14
0.08
0.24
0.42
0.68
1.01
1.33
1.54
1.56
1.35
0.96
0.49
0.05
-0.28
-0.45
-0.47
-0.38
-0.22
-0.03
0.18
0.41
0.64
0.85
1.00
1.03
0.88
0.58
0.20
-0.16
-0.36
-0.38
-0.23
-0.07
-0.02
-0.19
-0.55
-0.97
-1.26
-1.30
-1.06
-0.65
-0.25
0.00
0.07
0.02
-0.03
-0.02
0.07
0.19
0.26
0.26
0.22
0.19
0.24
0.38
0.58
0.74
0.81
0.73
0.56
0.36
0.20
0.12
0.14
0.20
0.22
0.15
-0.02
-0.27
-0.53
-0.74
-0.87
-0.88
-0.84
-0.79
-0.83
-0.99
-1.22
-1.43
-1.51
-1.38
-1.05
-0.62
-0.17
0.19
0.43
0.58
0.65
0.65
0.62
0.57
0.56
0.63
0.78
0.96
1.08
1.04
0.83
0.54
0.30
0.22
0.32
0.49
0.56
0.39
-0.02
-0.52
-0.92
-1.08
-0.97
-0.69
-0.39
-0.18
-0.07
-0.01
0.03
0.03
-0.05
-0.26
-0.55
-0.83
-1.01
-1.08
-1.09
-1.11
-1.16
-1.17
-1.04
-0.70
-0.18
0.38
0.81
1.01
0.94
0.71
0.43
0.22
0.15
0.21
0.36
0.51
0.62
0.66
0.67
0.67
0.67
0.68
0.67
0.62
0.53
0.45
0.38
0.37
0.41
0.48
0.56
0.59
0.55
0.42
0.23
0.01
-0.20
-0.36
-0.47
-0.56
-0.67
-0.82
-1.00
-1.18
-1.29
-1.28
-1.10
-0.78
-0.39
-0.05
0.14
0.15
0.08
0.07
0.24
0.62
1.08
1.47
1.64
1.54
1.26
0.94
0.68
0.53
0.48
0.49
0.55
0.63
0.73
0.80
0.80
0.71
0.50
0.24
-0.00
-0.14
-0.16
-0.09
-0.01
-0.03
-0.22
-0.58
-1.00
-1.35
-1.48
-1.32
-0.91
-0.39
0.05
0.26
0.17
-0.14
-0.55
-0.88
-1.02
-0.96
-0.78
-0.58
-0.45
-0.33
-0.15
0.18
0.65
1.14
1.47
1.51
1.26
0.83
0.40
0.08
-0.08
-0.14
-0.13
-0.10
-0.03
0.09
0.22
0.30
0.26
0.09
-0.15
-0.34
-0.40
-0.35
-0.30
-0.35
-0.54
-0.80
-1.02
-1.11
-1.06
-0.95
-0.89
-0.94
-1.06
-1.18
-1.21
-1.14
-1.00
-0.86
-0.73
-0.57
-0.32
0.05
0.46
0.80
0.97
0.92
0.74
0.52
0.38
0.37
0.46
0.56
0.59
0.53
0.40
0.27
0.21
0.26
0.39
0.54
0.64
0.63
0.51
0.28
0.00
-0.28
-0.54
-0.77
-0.97
-1.13
-1.22
-1.21
-1.07
-0.81
-0.49
-0.15
0.12
0.24
0.18
-0.12
-0.62
-1.26
-1.87
-2.32
-2.49
-2.36
-2.01
-1.54
-1.06
-0.59
-0.13
0.32
0.75
1.11
1.35
1.43
1.40
1.29
1.18
1.09
1.01
0.94
0.85
0.72
0.60
0.50
0.46
0.49
0.54
0.60
0.64
0.68
0.73
0.80
0.85
0.85
0.74
0.55
0.31
0.07
-0.14
-0.31
-0.44
-0.55
-0.65
-0.75
-0.87
-1.02
-1.21
-1.38
-1.51
-1.54
-1.48
-1.35
-1.18
-1.00
-0.80
-0.59
-0.34
-0.03
0.37
0.84
1.31
1.66
1.79
1.64
1.26
0.80
0.42
0.22
0.22
0.35
0.52
0.67
0.77
0.82
0.82
0.75
0.62
0.44
0.28
0.21
0.24
0.37
0.51
0.58
0.55
0.44
0.30
0.19
0.16
0.17
0.18
0.11
-0.10
-0.48
-1.01
-1.61
-2.18
-2.57
-2.68
-2.47
-1.97
-1.27
-0.48
0.30
0.99
1.56
1.98
2.22
2.30
2.23
2.05
1.80
1.51
1.20
0.89
0.60
0.37
0.24
0.24
0.36
0.54
0.71
0.78
0.69
0.48
0.23
0.04
0.01
0.12
0.29
0.39
0.31
0.04
-0.34
-0.72
-0.99
-1.13
-1.17
-1.17
-1.19
-1.22
-1.27
-1.32
-1.39
-1.48
-1.58
-1.61
-1.52
-1.26
-0.85
-0.35
0.16
0.58
0.89
1.10
1.20
1.18
1.02
0.70
0.26
-0.22
-0.60
-0.78
-0.70
-0.38
0.10
0.59
1.00
1.24
1.31
1.24
1.08
0.89
0.69
0.51
0.36
0.24
0.16
0.12
0.08
0.01
-0.12
-0.30
-0.48
-0.60
-0.63
-0.58
-0.54
-0.61
-0.83
-1.15
-1.46
-1.65
-1.63
-1.44
-1.14
-0.85
-0.61
-0.42
-0.21
0.10
0.52
0.98
1.39
1.64
1.69
1.57
1.36
1.14
0.99
0.90
0.86
0.82
0.75
0.67
0.58
0.49
0.41
0.36
0.35
0.41
0.51
0.59
0.60
0.46
0.20
-0.09
-0.33
-0.43
-0.42
-0.35
-0.32
-0.37
-0.50
-0.66
-0.80
-0.92
-1.02
-1.12
-1.24
-1.34
-1.39
-1.36
-1.24
-1.05
-0.83
-0.62
-0.40
-0.20
-0.03
0.11
0.20
0.25
0.29
0.33
0.42
0.55
0.72
0.91
1.13
1.34
1.51
1.62
1.61
1.48
1.27
1.06
0.90
0.80
0.72
0.60
0.42
0.23
0.08
0.04
0.07
0.09
0.00
-0.24
-0.56
-0.83
-0.96
-0.91
-0.80
-0.75
-0.84
-1.04
-1.28
-1.44
-1.44
-1.28
-0.98
-0.56
-0.07
0.47
0.97
1.35
1.55
1.52
1.29
0.91
0.45
-0.03
-0.43
-0.64
-0.56
-0.18
0.45
1.13
1.65
1.88
1.77
1.40
0.94
0.50
0.17
-0.03
-0.13
-0.17
-0.17
-0.19
-0.26
-0.36
-0.47
-0.54
-0.53
-0.45
-0.37
-0.37
-0.49
-0.73
-1.01
-1.24
-1.38
-1.42
-1.41
-1.36
-1.25
-1.02
-0.65
-0.18
0.27
0.60
0.72
0.67
0.50
0.31
0.17
0.08
0.03
-0.01
-0.01
0.04
0.15
0.30
0.46
0.61
0.76
0.93
1.12
1.26
1.29
1.14
0.84
0.45
0.11
-0.10
-0.18
-0.20
-0.23
-0.31
-0.44
-0.56
-0.67
-0.77
-0.92
-1.15
-1.47
-1.80
-2.07
-2.22
-2.18
-1.95
-1.53
-0.96
-0.29
0.34
0.81
1.02
0.96
0.72
0.44
0.28
0.31
0.53
0.87
1.23
1.50
1.63
1.58
1.35
1.00
0.58
0.18
-0.12
-0.27
-0.29
-0.23
-0.17
-0.17
-0.24
-0.34
-0.37
-0.30
-0.13
0.05
0.14
0.04
-0.23
-0.61
-1.01
-1.35
-1.62
-1.80
-1.90
-1.90
-1.75
-1.41
-0.89
-0.27
0.39
0.99
1.48
1.79
1.88
1.74
1.37
0.87
0.38
0.05
-0.05
0.06
0.29
0.54
0.72
0.81
0.80
0.72
0.59
0.43
0.26
0.13
0.05
0.01
-0.03
-0.10
-0.20
-0.32
-0.43
-0.53
-0.65
-0.78
-0.91
-1.00
-1.02
-0.98
-0.94
-0.96
-1.09
-1.28
-1.46
-1.53
-1.43
-1.17
-0.80
-0.38
0.05
0.46
0.87
1.26
1.63
1.96
2.19
2.26
2.14
1.83
1.42
1.05
0.85
0.87
1.06
1.27
1.35
1.23
0.96
0.69
0.56
0.61
0.77
0.89
0.85
0.61
0.25
-0.12
-0.40
-0.61
-0.79
-1.00
-1.27
-1.52
-1.67
-1.69
-1.62
-1.55
-1.56
-1.69
-1.88
-2.01
-1.97
-1.73
-1.30
-0.78
-0.24
0.24
0.61
0.86
1.01
1.12
1.28
1.50
1.76
1.93
1.89
1.58
1.08
0.55
0.17
0.00
0.02
0.12
0.22
0.30
0.42
0.66
0.98
1.29
1.43
1.32
1.00
0.59
0.28
0.14
0.17
0.25
0.24
0.04
-0.33
-0.77
-1.14
-1.34
-1.35
-1.22
-1.08
-0.99
-1.01
-1.10
-1.21
-1.27
-1.27
-1.18
-1.00
-0.75
-0.43
-0.10
0.21
0.43
0.52
0.53
0.52
0.55
0.70
0.93
1.19
1.40
1.53
1.55
1.51
1.42
1.32
1.23
1.16
1.13
1.10
1.01
0.82
0.52
0.19
-0.05
-0.09
0.06
0.29
0.43
0.36
0.09
-0.28
-0.60
-0.80
-0.90
-1.00
-1.16
-1.38
-1.59
-1.69
-1.65
-1.50
-1.27
-1.04
-0.81
-0.54
-0.22
0.15
0.50
0.74
0.83
0.77
0.64
0.49
0.36
0.23
0.10
-0.04
-0.15
-0.16
-0.03
0.21
0.47
0.62
0.60
0.43
0.21
0.02
-0.08
-0.11
-0.13
-0.17
-0.25
-0.30
-0.28
-0.17
-0.01
0.09
0.04
-0.19
-0.54
-0.91
-1.18
-1.26
-1.18
-1.00
-0.84
-0.82
-0.97
-1.27
-1.61
-1.85
-1.87
-1.60
-1.09
-0.44
0.20
0.70
1.01
1.17
1.25
1.32
1.39
1.40
1.26
0.96
0.56
0.21
0.00
-0.02
0.05
0.11
0.09
-0.01
-0.08
0.00
0.27
0.66
1.01
1.16
1.04
0.69
0.27
-0.07
-0.25
-0.27
-0.19
-0.13
-0.15
-0.25
-0.40
-0.58
-0.80
-1.06
-1.39
-1.73
-2.01
-2.13
-2.04
-1.76
-1.38
-1.00
-0.69
-0.47
-0.26
0.02
0.38
0.79
1.14
1.30
1.24
0.99
0.65
0.37
0.22
0.21
0.28
0.37
0.46
0.56
0.69
0.85
0.98
1.01
0.88
0.63
0.33
0.06
-0.12
-0.15
-0.05
0.16
0.42
0.63
0.71
0.58
0.21
-0.33
-0.91
-1.40
-1.70
-1.77
-1.68
-1.52
-1.41
-1.38
-1.43
-1.51
-1.50
-1.34
-0.96
-0.39
0.30
1.01
1.62
2.05
2.21
2.09
1.73
1.23
0.76
0.47
0.43
0.62
0.92
1.22
1.42
1.50
1.47
1.36
1.18
0.90
0.54
0.11
-0.30
-0.59
-0.68
-0.56
-0.33
-0.11
-0.01
-0.07
-0.26
-0.48
-0.64
-0.70
-0.72
-0.75
-0.83
-0.95
-1.05
-1.06
-1.01
-0.95
-0.96
-1.02
-1.07
-0.96
-0.60
-0.02
0.64
1.18
1.43
1.34
0.99
0.56
0.23
0.09
0.13
0.27
0.43
0.53
0.57
0.56
0.53
0.51
0.48
0.43
0.37
0.30
0.23
0.18
0.13
0.03
-0.14
-0.40
-0.70
-0.99
-1.20
-1.31
-1.32
-1.26
-1.19
-1.14
-1.14
-1.18
-1.26
-1.33
-1.35
-1.27
-1.09
-0.83
-0.53
-0.25
-0.02
0.16
0.32
0.48
0.62
0.71
0.73
0.67
0.59
0.54
0.57
0.68
0.86
1.06
1.25
1.40
1.50
1.50
1.39
1.16
0.83
0.44
0.07
-0.18
-0.26
-0.19
-0.02
0.13
0.16
0.02
-0.26
-0.58
-0.84
-0.99
-1.04
-1.05
-1.09
-1.19
-1.33
-1.45
-1.51
-1.47
-1.37
-1.24
-1.13
-1.02
-0.88
-0.69
-0.39
0.01
0.46
0.90
1.22
1.37
1.31
1.10
0.84
0.63
0.57
0.68
0.91
1.16
1.32
1.36
1.30
1.21
1.17
1.17
1.15
1.02
0.73
0.34
-0.06
-0.31
-0.39
-0.35
-0.30
-0.35
-0.53
-0.79
-1.04
-1.23
-1.34
-1.41
-1.43
-1.40
-1.30
-1.13
-0.93
-0.75
-0.63
-0.53
-0.38
-0.11
0.31
0.80
1.24
1.51
1.54
1.35
1.02
0.67
0.37
0.17
0.07
0.10
0.27
0.58
1.00
1.43
1.75
1.81
1.56
1.06
0.45
-0.07
-0.36
-0.39
-0.25
-0.10
-0.05
-0.15
-0.33
-0.52
-0.65
-0.75
-0.84
-0.94
-1.02
-1.02
-0.90
-0.70
-0.51
-0.45
-0.58
-0.85
-1.13
-1.26
-1.14
-0.72
-0.10
0.60
1.22
1.67
1.88
1.84
1.58
1.17
0.70
0.28
0.02
-0.01
0.21
0.61
1.04
1.34
1.39
1.18
0.79
0.34
-0.06
-0.31
-0.40
-0.37
-0.28
-0.25
-0.37
-0.65
-1.04
-1.40
-1.60
-1.58
-1.41
-1.24
-1.19
-1.30
-1.50
-1.69
-1.80
-1.79
-1.69
-1.52
-1.24
-0.81
-0.23
0.42
1.03
1.48
1.71
1.76
1.68
1.54
1.39
1.23
1.06
0.92
0.88
0.94
1.06
1.17
1.16
1.01
0.75
0.48
0.26
0.10
-0.07
-0.33
-0.70
-1.11
-1.38
-1.38
-1.06
-0.54
-0.05
0.22
0.15
-0.21
-0.72
-1.22
-1.58
-1.79
-1.87
-1.88
-1.85
-1.77
-1.60
-1.28
-0.80
-0.18
0.48
1.03
1.36
1.38
1.13
0.71
0.25
-0.11
-0.28
-0.21
0.12
0.65
1.31
1.94
2.38
2.50
2.26
1.73
1.09
0.49
0.05
-0.18
-0.24
-0.21
-0.12
-0.03
0.04
0.07
0.00
-0.16
-0.43
-0.73
-1.02
-1.27
-1.46
-1.61
-1.71
-1.73
-1.63
-1.36
-0.92
-0.34
0.30
0.92
1.40
1.67
1.68
1.44
1.04
0.64
0.36
0.28
0.39
0.60
0.82
0.94
0.91
0.75
0.51
0.27
0.10
0.06
0.13
0.29
0.44
0.52
0.50
0.39
0.23
0.08
-0.05
-0.15
-0.20
-0.19
-0.12
0.01
0.14
0.22
0.17
-0.05
-0.40
-0.82
-1.21
-1.46
-1.53
-1.42
-1.17
-0.85
-0.52
-0.21
0.11
0.44
0.72
0.88
0.83
0.56
0.16
-0.18
-0.31
-0.15
0.23
0.63
0.88
0.91
0.76
0.60
0.56
0.68
0.90
1.11
1.17
1.06
0.80
0.49
0.18
-0.12
-0.42
-0.72
-1.01
-1.22
-1.30
-1.26
-1.13
-1.02
-0.99
-1.07
-1.23
-1.42
-1.56
-1.59
-1.47
-1.14
-0.63
-0.03
0.52
0.88
0.99
0.89
0.72
0.60
0.56
0.56
0.51
0.36
0.19
0.13
0.29
0.66
1.10
1.40
1.41
1.15
0.72
0.30
0.03
-0.05
-0.00
0.06
0.01
-0.19
-0.55
-0.97
-1.35
-1.57
-1.60
-1.46
-1.27
-1.16
-1.18
-1.35
-1.58
-1.77
-1.83
-1.74
-1.50
-1.15
-0.73
-0.25
0.25
0.73
1.12
1.37
1.48
1.49
1.47
1.47
1.52
1.54
1.47
1.27
0.98
0.69
0.51
0.51
0.64
0.79
0.84
0.73
0.47
0.19
0.02
0.03
0.20
0.41
0.48
0.31
-0.10
-0.58
-0.97
-1.12
-1.01
-0.78
-0.60
-0.58
-0.71
-0.90
-1.03
-1.07
-1.03
-0.99
-0.96
-0.90
-0.69
-0.28
0.32
1.00
1.58
1.92
1.95
1.72
1.35
0.99
0.74
0.62
0.57
0.53
0.44
0.35
0.32
0.39
0.52
0.61
0.52
0.25
-0.13
-0.46
-0.61
-0.54
-0.33
-0.16
-0.13
-0.28
-0.54
-0.79
-0.95
-0.99
-0.93
-0.83
-0.74
-0.65
-0.55
-0.42
-0.27
-0.13
-0.04
-0.03
-0.08
-0.12
-0.07
0.13
0.48
0.92
1.37
1.71
1.86
1.79
1.49
1.05
0.56
0.15
-0.08
-0.08
0.11
0.40
0.69
0.91
0.99
0.92
0.71
0.40
0.01
-0.37
-0.68
-0.84
-0.85
-0.74
-0.59
-0.48
-0.43
-0.43
-0.43
-0.41
-0.36
-0.35
-0.41
-0.55
-0.72
-0.85
-0.90
-0.86
-0.75
-0.60
-0.41
-0.22
-0.04
0.10
0.20
0.27
0.36
0.50
0.69
0.83
0.85
0.70
0.40
0.08
-0.14
-0.17
-0.04
0.16
0.32
0.39
0.39
0.39
0.42
0.49
0.54
0.52
0.37
0.13
-0.14
-0.37
-0.50
-0.53
-0.55
-0.61
-0.77
-1.03
-1.35
-1.66
-1.89
-1.96
-1.85
-1.55
-1.13
-0.67
-0.27
0.01
0.17
0.30
0.46
0.72
1.04
1.35
1.51
1.48
1.24
0.90
0.58
0.41
0.42
0.58
0.81
0.99
1.04
0.91
0.68
0.42
0.25
0.25
0.41
0.67
0.92
1.01
0.90
0.56
0.08
-0.40
-0.77
-0.98
-1.06
-1.10
-1.22
-1.45
-1.76
-2.03
-2.14
-2.02
-1.71
-1.28
-0.84
-0.46
-0.15
0.14
0.44
0.78
1.12
1.42
1.62
1.69
1.66
1.56
1.42
1.26
1.10
0.90
0.65
0.36
0.08
-0.12
-0.16
-0.02
0.27
0.62
0.95
1.21
1.34
1.34
1.19
0.93
0.56
0.15
-0.24
-0.54
-0.72
-0.79
-0.78
-0.79
-0.85
-0.99
-1.15
-1.28
-1.33
-1.26
-1.09
-0.89
-0.71
-0.61
-0.54
-0.43
-0.20
0.18
0.60
0.92
1.03
0.90
0.65
0.47
0.52
0.82
1.26
1.64
1.80
1.72
1.46
1.16
0.88
0.65
0.42
0.16
-0.14
-0.41
-0.61
-0.73
-0.79
-0.81
-0.83
-0.83
-0.80
-0.75
-0.70
-0.70
-0.74
-0.79
-0.79
-0.72
-0.60
-0.54
-0.63
-0.88
-1.21
-1.44
-1.44
-1.18
-0.73
-0.25
0.17
0.51
0.79
1.04
1.23
1.31
1.19
0.88
0.46
0.06
-0.20
-0.24
-0.06
0.30
0.72
1.07
1.25
1.24
1.07
0.86
0.73
0.72
0.82
0.91
0.90
0.70
0.36
-0.04
-0.38
-0.58
-0.59
-0.45
-0.27
-0.16
-0.23
-0.52
-0.98
-1.51
-1.95
-2.22
-2.28
-2.20
-2.06
-1.95
-1.89
-1.86
-1.80
-1.64
-1.34
-0.87
-0.29
0.29
0.76
0.99
0.95
0.70
0.43
0.32
0.47
0.84
1.26
1.51
1.49
1.21
0.83
0.51
0.36
0.41
0.57
0.69
0.67
0.45
0.09
