1526948987.00
64.000000
-0.00
-0.00
-0.00
-0.00
-0.00
-0.00
-0.00
-0.00
-0.00
-0.00
0.00
0.01
0.01
-0.00
-0.03
-0.05
-0.05
0.00
0.13
0.36
0.66
1.01
1.37
1.72
2.06
2.40
2.79
3.24
3.80
4.42
5.06
5.66
6.20
6.68
7.15
7.68
8.31
9.14
10.09
11.04
11.88
12.56
13.14
13.76
14.65
15.96
17.92
20.32
22.91
25.38
27.57
29.57
31.68
34.35
37.87
42.61
48.18
54.04
59.61
64.54
68.93
73.30
78.36
84.64
92.66
101.88
111.47
120.50
128.41
135.26
141.71
149.12
156.18
165.12
176.44
190.18
205.09
218.29
225.53
222.30
205.32
173.70
129.70
76.96
19.60
-39.28
-98.02
-156.12
-213.33
-269.10
-322.55
-372.45
-418.36
-460.05
-497.21
-528.86
-553.09
-567.44
-569.57
-558.21
-533.49
-497.44
-453.07
-403.58
-351.56
-298.54
-245.16
-191.59
-138.35
-86.50
-37.99
4.81
39.64
65.09
81.40
90.90
97.79
107.15
123.24
147.85
179.55
214.27
246.87
273.08
290.72
299.73
301.19
296.05
284.58
266.65
242.53
213.69
182.85
153.45
128.39
109.22
95.61
85.69
76.77
66.34
52.74
35.64
16.32
-2.46
-16.82
-23.15
-19.74
-8.08
6.83
17.97
19.12
7.95
-12.19
-33.25
-45.66
-42.87
-24.58
2.86
29.11
44.38
43.70
29.05
7.99
-10.44
-19.94
-19.37
-12.65
-5.58
-2.74
-5.84
-14.07
-25.16
-36.41
-44.94
-47.98
-44.06
-34.41
-23.89
-19.21
-25.19
-40.89
-58.71
-67.65
-59.22
-32.46
5.22
42.27
69.22
83.15
87.91
90.21
94.77
101.44
106.06
103.94
93.12
75.88
57.27
41.79
30.57
21.05
9.07
-8.40
-30.50
-52.33
-67.13
-69.59
-58.57
-37.70
-13.63
6.95
19.82
24.24
22.33
17.29
11.46
5.97
0.38
-6.14
-13.80
-21.80
-28.86
-33.91
-36.73
-37.74
-37.38
-35.38
-30.85
-22.94
-11.94
0.21
10.32
15.17
13.25
5.55
-4.78
-13.60
-17.39
-14.63
-6.59
3.15
9.89
9.61
0.46
-16.33
-36.80
-55.52
-67.21
-68.31
-57.86
-37.52
-10.97
17.07
42.03
60.42
70.51
72.48
68.02
59.55
49.32
38.89
29.01
20.07
12.36
6.20
1.66
-1.62
-4.41
-7.51
-11.35
-15.84
-20.51
-24.95
-29.08
-33.10
-37.12
-40.54
-41.75
-38.70
-30.10
-16.61
-1.26
11.44
17.34
14.64
4.74
-8.18
-19.21
-25.11
-25.81
-24.10
-24.09
-29.18
-40.66
-57.38
-75.91
-91.55
-99.51
-95.99
-79.22
-50.10
-12.01
30.44
70.35
101.88
122.22
132.16
134.90
134.02
131.77
128.47
123.24
114.72
102.55
87.22
69.55
50.26
29.96
9.65
-8.96
-23.44
-31.95
-33.64
-29.37
-21.52
-13.17
-7.04
-4.59
-5.91
-10.06
-16.43
-24.36
-32.84
-40.57
-46.24
-48.98
-48.42
-46.25
-42.88
-39.04
-35.91
-34.73
-36.76
-41.82
-50.00
-61.04
-73.59
-84.70
-91.01
-90.17
-81.88
-68.49
-54.00
-42.34
-35.56
-32.47
-29.03
-19.77
-2.04
22.20
46.82
65.60
77.24
83.06
84.78
83.56
79.49
70.44
56.21
38.59
21.19
8.08
1.94
3.65
12.29
25.41
39.72
51.85
59.35
61.74
60.51
58.15
57.19
59.28
64.50
71.44
77.67
81.10
81.07
78.27
73.45
66.48
56.13
40.73
19.62
-6.63
-35.55
-63.39
-86.74
-104.31
-117.31
-128.05
-138.17
-141.56
-132.69
-111.10
-83.08
-58.06
-43.07
-39.87
-45.17
-53.32
-58.59
-58.58
-54.28
-48.12
-42.12
-37.34
-34.28
-33.60
-36.61
-44.94
-57.84
-72.90
-85.54
-89.90
-81.17
-58.25
-22.25
17.72
52.39
75.99
87.78
91.17
90.86
89.92
88.42
84.75
77.66
68.74
61.61
59.57
63.41
70.86
78.61
81.69
76.66
61.88
37.96
7.69
-24.46
-52.82
-71.49
-76.10
-65.83
-44.33
-19.53
-0.91
4.99
-3.13
-20.80
-39.75
-51.50
-50.73
-36.59
-11.51
17.06
42.40
61.70
75.97
87.43
96.37
99.86
93.60
76.58
49.14
16.83
-12.33
-31.61
-38.31
-34.37
-24.81
-15.01
-8.57
-6.87
-8.51
-11.21
-13.32
-14.29
-14.99
-16.37
-18.95
-22.72
-27.48
-32.30
-36.01
-37.34
-35.04
-29.15
-20.87
-12.37
-6.08
-3.81
-5.77
-11.43
-20.06
-31.52
-47.55
-69.05
-94.68
-121.43
-146.74
-169.36
-188.95
-207.44
-221.16
-224.70
-213.20
-184.69
-141.19
-87.61
-28.65
29.08
80.42
122.95
155.40
177.23
188.18
188.53
179.57
163.70
143.58
121.94
101.20
82.68
67.27
55.42
47.08
41.42
37.04
32.60
28.27
26.03
28.34
36.82
50.61
66.06
77.98
81.88
76.07
62.67
46.36
31.67
20.97
13.72
7.50
-0.02
-9.50
-19.68
-28.32
-33.86
-36.46
-37.42
-37.97
-38.15
-36.60
-31.53
-22.11
-9.24
4.64
16.74
25.53
30.84
33.15
32.64
28.80
20.96
9.32
-4.49
-17.49
-25.68
-26.36
-19.58
-8.29
3.20
11.21
14.45
13.77
11.47
11.21
15.53
24.85
37.60
51.47
64.61
76.57
87.24
96.48
105.60
115.83
127.75
140.98
154.39
166.21
174.57
176.54
160.57
121.22
63.44
1.87
-47.69
-75.17
-83.22
-77.39
-63.93
-48.50
-34.08
-23.34
-18.85
-22.87
-36.11
-56.77
-80.10
-100.94
-115.57
-121.65
-119.76
-112.91
-105.25
-100.04
-98.55
-99.69
-101.86
-103.88
-104.52
-103.06
-99.25
-93.29
-85.55
-76.44
-66.20
-55.60
-45.83
-37.82
-32.23
-29.32
-29.05
-30.92
-34.01
-36.97
-38.57
-37.99
-34.94
-29.78
-23.34
-16.59
-10.17
-4.25
1.29
6.31
10.24
12.29
12.01
9.84
7.12
5.65
6.80
10.83
16.76
22.90
27.58
29.88
29.82
28.13
25.72
23.29
21.10
19.08
16.97
14.51
11.56
8.14
4.43
0.70
-2.65
-5.16
-6.38
-6.02
-4.09
-0.99
2.60
5.90
8.27
9.45
9.48
8.73
7.69
6.89
6.81
7.77
9.85
12.77
15.94
18.59
20.15
20.40
19.64
18.43
17.37
16.75
16.57
16.55
16.41
15.89
14.93
13.56
11.98
10.43
9.21
8.51
8.33
8.35
8.06
6.94
4.72
1.54
-2.05
-5.36
-7.75
-8.84
-8.54
-7.01
-4.59
-1.72
1.13
3.51
5.10
5.84
5.89
5.51
4.95
4.32
3.61
2.84
2.17
1.85
2.10
2.92
4.03
4.92
5.13
4.52
3.33
2.08
1.23
0.97
1.10
1.15
0.70
-0.39
-1.88
-3.34
-4.40
-5.00
-5.39
-5.89
-6.61
-7.25
-7.24
-6.07
-3.68
-0.59
2.31
4.23
4.89
4.60
4.03
3.78
3.99
4.39
4.53
4.17
3.44
2.79
2.62
3.07
3.88
4.53
4.56
3.79
2.37
0.71
-0.77
-1.79
-2.30
-2.47
-2.54
-2.71
-3.10
-3.72
-4.52
-5.41
-6.25
-6.78
-6.74
-5.87
-4.13
-1.77
0.72
2.76
3.94
4.21
3.88
3.42
3.18
3.25
3.47
3.62
3.60
3.50
3.52
3.79
4.24
4.60
4.58
4.01
2.98
1.76
0.67
-0.09
-0.52
-0.78
-1.02
-1.35
-1.81
-2.37
-3.05
-3.86
-4.72
-5.44
-5.68
-5.14
-3.68
-1.48
0.99
3.18
4.68
5.39
5.49
5.31
5.07
4.82
4.46
3.91
3.21
2.54
2.13
2.11
2.44
2.94
3.34
3.45
3.22
2.78
2.30
1.92
1.66
1.45
1.13
0.63
-0.09
-0.95
-1.81
-2.57
-3.18
-3.66
-3.99
-4.07
-3.71
-2.79
-1.33
0.44
2.14
3.42
4.12
4.35
4.36
4.39
4.49
4.52
4.30
3.75
3.03
2.38
2.06
2.10
2.37
2.63
2.70
2.61
2.47
2.45
2.56
2.75
2.87
2.79
2.45
1.88
1.14
0.32
-0.51
-1.30
-1.99
-2.56
-2.97
-3.10
-2.81
-1.95
-0.51
1.29
3.00
4.07
4.14
3.17
1.60
0.08
-0.80
-0.81
-0.20
0.47
0.64
0.05
-1.14
-2.46
-3.43
-3.72
-3.33
-2.42
-1.13
0.51
2.58
5.07
7.78
10.21
11.78
12.04
10.90
8.71
6.13
3.90
2.56
2.23
2.65
3.31
3.68
3.50
2.89
2.32
2.46
3.88
6.84
11.06
15.73
19.61
21.31
19.70
14.29
5.52
-5.29
-16.18
-25.03
-30.07
-30.32
-25.80
-17.48
-7.11
3.12
11.09
15.20
14.86
10.62
4.03
-2.91
-8.30
-10.95
-10.59
-7.84
-3.82
0.27
3.53
5.54
6.38
6.41
6.16
6.02
6.16
6.52
6.83
6.82
6.28
5.14
3.52
1.68
-0.06
-1.36
-1.99
-1.86
-1.13
-0.17
0.53
0.49
-0.55
-2.53
-5.06
-7.50
-9.20
-9.75
-9.10
-7.64
-5.99
-4.77
-4.37
-4.82
-5.76
-6.67
-7.04
-6.60
-5.35
-3.56
-1.62
0.13
1.50
2.44
3.06
3.50
3.87
4.14
4.22
3.98
3.34
2.37
1.28
0.36
-0.11
0.03
0.72
1.76
2.82
3.58
3.85
3.55
2.75
1.63
0.41
-0.69
-1.53
-2.06
-2.34
-2.47
-2.49
-2.39
-2.11
-1.62
-1.00
-0.45
-0.20
-0.42
-1.14
-2.27
-3.65
-5.14
-6.75
-8.50
-10.39
-12.28
-13.93
-15.13
-15.99
-16.96
-18.78
-22.12
-27.04
-32.73
-37.71
-40.40
-39.84
-36.30
-31.19
-26.64
-24.95
-27.98
-36.77
-51.18
-69.67
-89.41
-106.68
-117.75
-119.84
-111.96
-95.02
-71.51
-44.67
-17.78
6.40
25.96
39.99
48.65
53.03
54.80
55.62
56.65
58.23
60.09
61.64
62.33
61.75
59.68
56.08
51.07
45.03
38.58
32.50
27.55
24.18
22.42
21.91
21.99
22.00
21.51
20.56
19.64
19.56
21.06
24.46
29.46
35.14
40.31
43.81
44.82
43.10
38.93
33.03
26.44
20.30
15.59
12.88
12.09
12.54
13.18
13.06
11.74
9.42
6.81
4.79
3.95
4.47
5.91
7.41
7.83
6.06
1.23
-6.88
-17.71
-29.94
-41.68
-50.73
-54.89
-52.33
-42.10
-24.65
-2.07
22.20
44.37
61.48
72.40
77.91
79.88
80.07
79.28
77.10
72.63
65.18
54.92
42.72
29.71
16.85
4.77
-6.03
-15.08
-21.94
-26.34
-28.25
-28.11
-26.66
-24.72
-22.95
-21.66
-20.85
-20.31
-19.73
-18.86
-17.58
-15.98
-14.26
-12.66
-11.34
-10.29
-9.37
-8.34
-6.84
-4.49
-1.01
3.68
9.38
15.69
21.99
27.36
31.08
32.96
33.46
33.60
34.59
37.48
42.72
49.89
57.32
62.96
65.24
63.65
58.67
51.59
44.11
37.98
34.66
34.35
36.60
40.41
44.00
44.50
38.43
23.06
-2.12
-34.77
-71.29
-107.40
-139.33
-164.78
-183.20
-195.09
-200.92
-200.62
-188.63
-163.07
-127.90
-91.32
-60.34
-37.26
-20.42
-6.76
5.95
18.76
30.11
37.94
41.40
41.38
39.80
38.62
39.29
42.50
47.30
52.02
55.19
56.24
55.67
54.51
53.77
54.08
55.66
58.26
61.03
63.18
64.48
65.28
66.02
66.79
67.25
66.97
65.83
64.23
63.21
64.03
67.56
73.57
80.74
86.94
89.84
87.17
76.95
57.79
29.62
-5.62
-43.67
-78.73
-105.14
-119.68
-122.99
-119.47
-115.49
-116.63
-125.34
-140.02
-155.94
-167.22
-169.08
-159.36
-139.29
-113.24
-87.40
-67.52
-56.26
-51.55
-46.78
-33.47
-5.62
36.51
85.09
126.77
147.40
137.51
96.10
31.45
-41.25
-104.38
-142.66
-147.21
-117.79
-62.73
3.36
63.43
102.44
111.06
87.93
39.73
-20.88
-78.84
-120.87
-138.82
-131.18
-102.47
-60.90
-15.45
26.41
59.44
80.72
89.18
85.37
71.52
51.37
29.47
9.77
-5.73
-17.41
-27.38
-38.08
-51.01
-65.89
-80.64
-92.15
-97.33
-94.13
-82.32
-63.63
-41.41
-19.66
-1.84
9.89
15.09
14.74
10.70
5.17
0.30
-2.08
-0.68
5.02
14.51
26.25
38.08
47.84
53.98
55.95
54.03
48.92
41.41
32.17
21.86
11.28
1.40
-6.76
-12.43
-15.29
-15.53
-13.64
-10.28
-6.10
-1.73
2.12
4.69
5.33
3.75
0.22
-4.41
-8.94
-12.26
-13.70
-13.16
-11.09
-8.14
-4.94
-1.90
0.74
2.88
4.46
5.46
5.98
6.20
6.36
6.64
7.06
7.51
7.83
7.93
7.88
7.89
8.19
8.95
10.17
11.67
13.07
13.95
14.00
13.12
11.54
9.70
8.08
6.99
6.45
6.22
5.96
5.43
4.63
3.71
2.85
2.14
1.52
0.94
0.45
0.24
0.57
1.61
3.26
5.14
6.71
7.53
7.48
6.78
5.89
5.28
5.17
5.51
6.03
6.46
6.65
6.63
6.54
6.48
6.44
6.31
6.00
5.46
4.78
4.09
3.53
3.11
2.77
2.44
2.01
1.49
0.90
0.30
-0.20
-0.54
-0.69
-0.72
-0.75
-0.86
-1.05
-1.19
-1.02
-0.38
0.73
2.06
3.23
3.94
4.13
3.97
3.75
3.66
3.74
3.85
3.87
3.80
3.77
3.97
4.51
5.34
6.24
6.92
7.14
6.81
5.98
4.85
3.66
2.61
1.80
1.21
0.72
0.22
-0.36
-0.98
-1.54
-1.94
-2.11
-2.06
-1.79
-1.28
-0.49
0.63
2.01
3.41
4.48
4.93
4.62
3.75
2.70
1.94
1.72
2.02
2.55
2.96
3.05
2.87
2.67
2.78
3.42
4.62
6.17
7.62
8.46
8.23
6.78
4.39
1.79
-0.16
-0.78
-0.00
1.64
3.20
3.77
2.78
0.13
-3.82
-8.48
-13.05
-16.64
-18.47
-18.03
-15.38
-11.19
-6.55
-2.58
0.00
1.07
0.96
0.17
-0.91
-2.09
-3.26
-4.29
-4.92
-4.97
-4.49
-3.89
-3.75
-4.53
-6.30
-8.58
-10.56
-11.49
-11.00
-9.30
-7.01
-4.80
-3.13
-2.21
-2.07
-2.75
-4.30
-6.59
-9.09
-10.92
-11.16
-9.50
-6.58
-3.87
-2.99
-4.67
-8.22
-11.69
-12.83
-10.35
-4.68
2.22
7.84
10.37
9.58
6.78
4.10
3.41
5.52
9.93
15.21
19.64
21.85
21.34
18.42
14.06
9.34
5.08
1.59
-1.18
-3.34
-4.77
-5.19
-4.41
-2.70
-0.88
0.01
-0.74
-3.06
-6.04
-8.36
-8.96
-7.54
-4.63
-1.31
1.34
2.55
1.98
-0.35
-4.16
-8.78
-13.23
-16.30
-16.83
-14.08
-7.98
0.93
11.66
23.03
33.89
43.19
50.05
53.86
54.40
51.91
47.02
40.49
32.97
24.82
16.16
7.14
-1.88
-10.26
-17.17
-21.88
-24.05
-23.80
-21.73
-18.63
-15.16
-11.73
-8.47
-5.44
-2.82
-0.98
-0.32
-1.04
-2.88
-5.17
-7.07
-7.93
-7.58
-6.40
-5.01
-4.02
-3.69
-3.91
-4.39
-4.79
-4.94
-4.75
-4.22
-3.32
-2.12
-0.87
0.00
0.08
-0.76
-2.12
-3.20
-3.13
-1.46
1.52
4.81
7.16
7.60
5.90
2.58
-1.36
-4.91
-7.41
-8.63
-8.69
-7.77
-6.08
-3.83
-1.33
0.96
2.53
3.05
2.55
1.40
0.11
-0.91
-1.56
-2.05
-2.67
-3.57
-4.64
-5.61
-6.23
-6.43
-6.39
-6.40
-6.64
-7.08
-7.47
-7.54
-7.14
-6.39
-5.63
-5.17
-5.13
-5.28
-5.13
-4.22
-2.39
0.05
2.46
4.10
4.54
3.77
2.18
0.29
-1.55
-3.20
-4.71
-6.06
-7.07
-7.36
-6.60
-4.69
-1.93
1.08
3.68
5.39
6.05
5.80
4.91
3.64
2.20
0.75
-0.53
-1.45
-1.91
-2.06
-2.25
-2.89
-4.22
-6.07
-7.90
-9.06
-9.14
-8.22
-6.82
-5.66
-5.28
-5.85
-7.23
-9.22
-11.73
-14.83
-18.47
-22.20
-25.12
-26.21
-24.83
-21.09
-15.82
-10.08
-4.56
0.71
6.18
12.13
18.04
22.50
23.76
20.71
13.72
4.68
-3.65
-8.89
-9.92
-7.21
-2.30
3.07
7.70
11.17
13.52
14.86
15.03
13.71
10.82
6.83
2.68
-0.59
-2.45
-3.16
-3.66
-5.02
-7.86
-11.95
-16.24
-19.19
-19.34
-15.90
-9.14
-0.43
8.04
13.86
15.25
11.66
4.01
-5.60
-14.74
-21.58
-25.51
-27.05
-27.26
-26.92
-25.97
-23.68
-19.16
-12.15
-3.40
5.50
12.80
17.37
19.16
19.09
18.44
18.17
18.52
19.13
19.44
19.20
18.56
17.92
17.50
17.19
16.54
15.07
12.66
9.65
6.72
4.54
3.43
3.14
3.03
2.42
0.96
-1.14
-3.17
-4.29
-3.92
-2.05
0.74
3.52
5.40
5.81
4.59
2.05
-1.08
-3.66
-4.28
-1.73
4.53
13.83
24.35
33.70
39.92
42.28
41.61
39.76
38.69
39.57
42.41
46.32
50.13
52.89
54.05
53.33
50.43
45.10
37.35
27.73
17.44
8.07
1.03
-3.06
-4.53
-4.48
-4.19
-4.51
-5.69
-7.45
-9.42
-11.54
-14.12
-17.61
-22.17
-27.36
-32.01
-34.67
-34.17
-30.28
-23.84
-16.27
-8.55
-0.33
9.80
23.16
39.31
55.41
67.06
70.40
63.91
48.85
28.37
5.65
-17.13
-38.63
-57.46
-71.25
-76.66
-71.01
-54.01
-28.67
-0.53
24.47
42.27
51.75
54.32
52.09
46.07
35.12
16.40
-12.62
-51.37
-94.33
-131.51
-151.96
-148.91
-123.66
-85.59
-48.13
-22.31
-11.58
-10.89
-10.41
-1.61
17.95
43.85
68.17
83.95
87.89
80.24
62.27
34.66
-2.42
-46.84
-92.20
-128.07
-143.84
-133.92
-101.19
-56.71
-14.35
14.87
27.56
28.36
26.12
27.71
33.60
38.28
34.38
19.53
-1.68
-19.84
-25.80
-15.90
6.09
31.76
54.02
70.87
87.00
108.28
136.28
165.62
186.08
187.72
165.75
123.33
63.25
-4.19
-66.52
-115.36
-149.43
-171.52
-183.43
-187.53
-181.48
-163.33
-133.01
-93.75
-50.65
-7.89
31.24
63.18
85.90
99.18
103.16
98.59
85.78
64.91
37.06
4.72
-28.21
-56.68
-78.01
-90.95
-95.19
-91.65
-82.58
-70.42
-57.07
-43.59
-30.16
-16.47
-3.09
9.25
20.05
28.86
35.42
39.62
41.49
41.15
38.61
34.02
27.91
21.95
17.74
16.31
17.73
21.30
26.08
31.38
37.31
44.86
56.27
72.67
93.00
113.94
131.29
141.87
144.66
141.14
129.24
110.39
88.43
67.85
51.23
38.62
28.92
21.26
16.41
14.41
16.18
21.83
30.17
38.95
45.76
48.83
46.84
39.39
26.34
8.38
-14.26
-41.91
-74.63
-111.25
-148.66
-182.42
-207.74
-221.29
-221.86
-211.34
-194.19
-175.58
-159.32
-146.71
-136.82
-127.56
-117.21
-104.74
-90.09
-73.84
-57.16
-42.17
-32.18
-30.96
-40.46
-58.56
-78.19
-89.68
-85.33
-63.53
-30.46
2.29
23.03
25.47
11.69
-8.91
-24.25
-24.90
-7.32
25.68
67.03
108.51
143.35
168.14
183.04
189.94
190.17
183.53
168.58
143.78
108.84
66.09
21.17
-17.55
-41.90
-47.32
-34.51
-8.90
21.60
49.55
69.20
76.68
73.34
65.81
60.53
58.66
56.42
49.24
34.96
15.54
-4.49
-20.49
-30.04
-33.83
-34.42
-34.21
-34.15
-35.28
-36.54
-36.64
-34.74
-30.52
-24.37
-17.49
-11.35
-7.78
-9.95
-20.46
-40.16
-67.21
-96.80
-122.58
-139.00
-143.70
-133.28
-109.50
-76.64
-39.69
-3.60
28.94
57.62
83.56
107.47
128.72
145.02
154.45
156.50
150.79
139.00
124.46
110.88
99.87
90.04
77.81
60.02
34.62
-1.22
-48.29
-104.45
-164.39
-221.62
-269.68
-303.05
-317.61
-297.81
-239.88
-157.02
-72.00
-1.10
51.36
88.68
115.34
133.68
143.07
139.39
123.21
96.71
66.47
39.71
20.91
10.38
5.23
1.40
-5.81
-17.94
-32.70
-44.15
-46.94
-38.90
-21.58
0.56
21.86
36.37
40.91
35.99
23.80
8.25
-6.28
-16.49
-21.66
-23.53
-25.65
-30.13
-37.23
-45.61
-52.91
-56.32
-52.01
-36.49
-8.38
29.69
71.23
107.65
131.69
140.33
135.30
121.48
103.48
83.60
62.70
42.05
24.64
14.33
14.05
23.52
39.20
54.88
64.11
63.25
52.46
34.96
14.79
-4.88
-22.51
-37.98
-50.54
-60.41
-70.11
-83.26
-101.04
-120.98
-137.55
-147.16
-144.34
-127.19
-98.74
-65.88
-37.06
-18.76
-13.45
-19.03
-28.50
-29.95
-15.46
12.88
45.23
71.00
85.90
92.49
96.42
101.44
106.86
107.46
97.53
76.73
47.02
14.61
-13.59
-32.64
-40.95
-39.87
-33.22
-25.18
-18.54
-14.23
-11.01
-7.09
-1.34
5.95
13.16
17.70
17.77
13.22
5.61
-2.11
-7.01
-7.41
-3.25
4.17
12.56
19.50
22.58
19.41
8.48
-10.22
-34.84
-61.69
-85.78
-101.88
-105.65
-95.25
-72.24
-40.94
-7.19
23.02
45.03
56.63
56.71
47.47
34.63
24.27
19.70
20.33
24.32
30.36
37.92
46.27
54.76
62.54
68.64
72.78
75.60
76.98
77.90
80.18
84.82
90.73
94.46
91.77
80.72
63.29
42.67
24.62
14.34
12.36
13.34
8.57
-9.63
-44.01
-92.40
-152.94
-220.77
-288.57
-348.01
-391.11
-411.44
-405.67
-374.14
-302.63
-198.19
-84.56
13.68
85.38
132.26
161.88
176.90
178.50
169.38
148.22
120.00
93.16
74.92
67.88
70.18
77.70
87.12
95.85
99.23
95.16
84.42
70.03
55.68
44.56
38.12
36.16
36.54
35.02
30.21
24.66
23.36
30.43
46.75
68.91
90.62
104.71
104.58
86.95
51.86
1.71
-59.66
-126.43
-190.59
-242.04
-270.91
-271.21
-242.78
-191.54
-127.25
-60.15
2.04
55.08
97.36
128.15
146.64
152.62
147.61
135.52
121.82
111.64
107.70
109.58
114.52
118.80
119.57
115.84
108.47
99.71
92.57
89.37
91.08
97.17
105.82
114.87
122.59
127.99
130.73
130.81
128.20
122.82
114.91
105.19
94.88
85.19
76.63
68.56
59.59
47.90
31.67
9.39
-20.07
-57.73
-104.54
-161.25
-226.63
-295.99
-360.43
-408.58
-430.15
-419.71
-379.47
-319.12
-253.70
-197.89
-160.42
-141.60
-134.87
-131.05
-122.91
-108.56
-92.17
-82.93
-89.29
-113.42
-148.68
-182.52
-202.44
-201.55
-180.92
-147.98
-113.51
-85.61
-65.83
-50.02
-33.94
-18.03
-7.90
-11.24
-19.09
-21.70
-14.48
-0.18
16.81
33.57
47.93
58.30
65.61
70.32
77.46
90.28
109.07
132.06
155.39
174.90
188.87
199.16
206.40
210.40
206.65
183.30
134.30
67.31
3.28
-35.50
-38.08
-9.60
32.79
69.20
87.55
88.57
81.46
76.01
76.55
81.07
84.67
83.73
77.59
68.24
59.22
52.46
47.35
41.26
31.67
18.47
1.61
-18.68
-42.66
-69.90
-98.51
-124.18
-141.23
-143.76
-128.15
-94.79
-48.32
3.80
54.02
95.76
123.67
132.45
118.47
81.61
27.27
-33.27
-85.64
-117.06
-121.43
-98.10
-55.93
-8.87
30.52
55.68
67.20
69.92
68.94
66.90
64.01
58.95
51.56
43.87
38.95
38.81
43.08
49.51
55.23
58.54
58.66
56.01
51.91
47.86
44.67
42.39
40.74
39.45
38.88
38.96
39.53
40.49
41.44
40.78
35.90
24.12
3.97
-21.30
-45.46
-62.63
-70.32
-69.16
-61.90
-51.43
-39.68
-28.06
-16.86
-7.54
-1.84
-2.16
-6.84
-13.77
-20.91
-26.60
-30.64
-33.15
-36.33
-42.83
-53.39
-67.19
-83.38
-102.24
-119.12
-133.29
-135.88
-123.83
-100.85
-73.48
-47.29
-24.82
-6.07
9.81
22.55
31.80
35.87
30.86
18.65
2.60
-14.14
-29.60
-43.37
-57.08
-72.71
-85.05
-95.31
-105.20
-115.72
-125.78
-131.83
-128.67
-111.99
-80.26
-37.12
8.67
48.51
76.28
90.40
93.63
91.01
87.00
83.97
81.68
77.98
72.15
65.02
58.34
53.69
51.65
51.60
52.36
52.62
51.13
47.96
43.98
40.39
38.38
38.71
41.65
46.94
54.38
62.52
70.22
76.77
81.98
86.30
90.48
95.16
100.75
107.50
115.44
123.91
131.72
136.56
135.64
126.17
106.59
77.89
43.94
10.35
-18.72
-40.94
-56.28
-65.65
-70.29
-71.27
-69.35
-65.37
-60.77
-59.51
-64.86
-77.69
-95.20
-113.01
-127.33
-136.67
-142.31
-147.99
-161.73
-185.77
-221.45
-267.21
-319.53
-373.51
-422.86
-460.02
-461.86
-416.65
-331.50
-229.43
-135.16
-63.70
-17.97
7.32
20.45
28.34
33.89
35.89
34.45
32.21
32.84
38.98
51.54
70.13
94.25
122.40
148.86
172.54
195.28
220.02
248.98
282.23
317.49
350.53
375.41
387.54
387.03
377.73
364.87
351.52
335.79
311.88
273.60
218.29
149.90
79.76
22.08
-11.64
-17.28
-0.35
28.19
57.89
83.01
102.64
118.45
130.33
135.11
128.25
105.74
69.29
27.64
-6.97
-26.30
-30.44
-27.43
-28.19
-40.50
-68.75
-112.53
-168.28
-231.59
-299.32
-368.45
-433.56
-485.77
-498.07
-451.36
-349.46
-220.44
-97.96
-3.61
58.58
97.20
125.48
154.30
185.80
215.16
235.04
241.87
233.14
208.95
172.41
129.23
87.20
52.90
31.31
25.58
36.52
60.94
92.77
125.29
154.31
175.49
184.98
179.77
158.97
124.90
81.79
35.93
-5.22
-35.61
-53.67
-63.87
-75.73
-97.95
-133.71
-181.69
-236.81
-291.05
-335.60
-363.12
-369.50
-357.19
-333.21
-307.10
-291.32
-295.95
-322.25
-361.59
-399.40
-421.38
-421.81
-401.86
-366.06
-322.06
-275.91
-227.35
-171.73
-104.85
-17.00
84.28
170.57
227.47
250.23
237.16
194.44
134.55
72.35
20.62
-15.26
-32.93
-31.15
-8.06
30.29
74.24
115.14
148.53
175.44
193.80
202.85
206.55
211.27
220.69
239.79
272.01
317.24
371.77
418.97
444.05
437.32
395.13
321.03
227.06
130.39
48.04
-9.15
-41.08
-55.02
-61.67
-70.34
-84.54
-100.66
-111.93
-113.72
-106.86
-97.38
-91.02
-90.36
-94.32
-99.16
-100.64
-96.71
-88.04
-77.42
-68.45
-63.34
-62.57
-66.63
-74.51
-85.39
-97.83
-108.93
-114.15
-108.90
-90.23
-58.00
-19.37
16.80
42.84
55.56
56.87
52.20
47.02
45.14
47.63
53.29
60.14
65.07
63.86
51.76
26.53
-10.99
-54.08
-91.88
-113.34
-111.58
-87.43
-48.17
-6.73
26.08
45.27
52.11
51.43
48.08
45.11
43.29
42.29
42.38
43.96
47.98
54.81
63.67
72.78
80.41
85.65
89.25
93.18
99.01
106.43
112.26
111.18
98.04
70.75
31.97
-11.87
-50.81
-77.55
-89.73
-89.80
-82.80
-73.70
-65.60
-59.56
-55.41
-52.79
-51.62
-51.69
-52.34
-52.52
-51.36
-48.61
-44.85
-41.25
-38.89
-38.26
-38.98
-40.11
-40.52
-39.59
-37.50
-35.10
-33.73
-35.28
-40.88
-50.95
-64.13
-76.85
-84.00
-80.76
-64.87
-37.69
-5.70
23.42
43.64
52.89
53.28
49.21
44.75
41.80
39.95
37.69
34.28
30.16
26.75
25.31
26.08
28.14
29.97
30.07
27.78
23.73
19.32
15.98
14.81
16.08
19.18
22.91
26.04
27.75
28.22
28.01
28.10
29.34
32.11
36.19
41.02
45.91
50.28
53.58
54.91
53.04
46.69
35.17
19.20
0.95
-16.43
-30.04
-38.42
-42.01
-42.53
-41.85
-40.89
-39.29
-36.37
-32.04
-27.33
-24.01
-23.53
-25.75
-28.59
-28.85
-23.59
-11.99
4.37
22.22
37.89
48.40
52.19
49.01
39.34
24.17
4.53
-18.34
-43.08
-67.70
-90.56
-109.54
-121.25
-122.47
-108.84
-78.88
-35.48
14.44
62.30
100.58
124.67
133.16
126.49
106.11
74.30
35.32
-4.31
-37.00
-56.86
-61.79
-53.74
-37.15
-16.27
6.35
29.82
53.32
74.52
89.45
92.33
79.80
52.52
15.76
-22.11
-52.29
-68.54
-69.48
-59.14
-45.09
-35.12
-34.27
-43.00
-57.45
-71.79
-80.95
-82.84
-78.55
-70.68
-61.01
-49.60
-34.99
-15.93
6.74
29.70
47.99
57.20
55.87
46.30
33.57
23.70
21.54
28.11
41.89
58.67
73.11
81.42
82.64
78.13
70.33
61.17
51.36
40.83
30.27
19.03
7.42
-3.78
-14.25
-24.32
-34.92
-46.92
-59.42
-70.24
-77.41
-80.02
-78.52
-74.13
-67.56
-58.99
-48.57
-36.81
-25.09
-13.96
-3.38
7.40
19.25
32.70
46.96
59.87
67.01
66.27
58.16
45.32
32.26
20.88
12.16
6.45
3.78
4.06
7.16
12.00
16.45
16.95
10.76
-1.72
-16.62
-28.22
-31.94
-26.26
-13.43
1.98
15.05
22.23
22.34
15.86
4.39
-9.73
-23.47
-33.68
-37.59
-34.01
-23.99
-10.57
1.60
7.55
3.71
-10.65
-32.77
-56.42
-73.72
-78.07
-66.74
-42.20
-11.11
18.75
41.91
56.04
63.15
67.04
69.54
69.32
63.50
50.63
32.52
13.64
-1.13
-9.09
-10.98
-9.98
-9.32
-10.40
-12.45
-13.23
-11.10
-6.00
0.71
6.83
10.29
9.87
5.40
-2.25
-11.34
-19.69
-25.12
-26.03
-22.07
-14.49
-5.62
2.11
7.15
9.22
8.93
7.14
4.34
0.60
-4.06
-9.27
-14.29
-18.19
-20.67
-22.31
-24.14
-26.75
-29.58
-30.97
-29.03
-22.57
-11.71
2.14
16.95
30.80
42.29
50.46
54.38
53.02
45.84
33.30
16.99
-0.84
-18.15
-33.55
-46.29
-55.77
-61.08
-60.57
-52.46
-36.15
-13.45
11.45
33.58
48.66
54.11
48.19
31.59
7.88
-17.28
-37.48
-47.30
-43.33
-25.35
3.17
36.45
65.04
80.99
83.15
77.01
69.68
66.03
66.81
69.42
70.02
65.63
55.80
42.61
29.97
19.79
13.30
10.70
10.91
11.82
10.83
6.05
-3.20
-15.89
-30.28
-43.61
-53.29
-58.22
-58.87
-56.92
-53.84
-50.12
-45.66
-40.23
-33.53
-25.62
-17.53
-10.50
-5.97
-4.32
-4.41
-4.83
-4.96
-6.07
-8.36
-11.43
-12.98
-10.27
-0.47
17.28
39.47
59.17
69.13
65.46
49.26
25.97
0.83
-21.60
-38.39
-49.28
-55.39
-58.21
-58.92
-59.02
-61.06
-71.05
-94.50
-129.06
-170.90
-213.66
-249.03
-268.41
-265.53
-226.38
-153.82
-66.63
12.29
68.83
101.52
116.91
122.97
125.19
125.67
122.55
115.29
106.35
99.30
96.07
96.55
98.85
100.67
100.34
96.04
88.49
81.28
79.94
86.57
100.28
116.63
128.53
128.35
110.22
74.17
25.61
-22.72
-59.74
-79.92
-84.54
-79.70
-72.75
-69.06
-69.83
-72.95
-75.19
-75.59
-74.78
-74.97
-77.15
-81.78
-88.78
-97.57
-107.96
-119.72
-132.81
-145.24
-152.54
-149.38
-132.20
-101.14
-60.82
-19.04
16.56
40.51
49.63
46.86
38.03
27.89
18.56
9.96
1.25
-5.81
-10.88
-13.00
-11.39
-6.62
-0.51
4.55
6.88
5.94
3.30
1.06
1.77
7.51
18.71
34.24
52.58
73.34
93.19
112.42
132.36
154.14
177.63
200.79
220.32
233.08
237.03
231.04
214.90
188.59
153.05
111.63
70.30
36.02
14.15
5.72
6.29
7.44
0.78
-18.04
-46.99
-78.32
-102.38
-111.32
-101.67
-74.51
-35.78
5.40
39.31
60.14
67.83
64.19
50.73
28.51
3.37
-22.42
-45.10
-61.34
-70.19
-73.42
-75.74
-82.45
-97.82
-122.28
-151.91
-178.43
-192.85
-194.01
-180.98
-154.55
-115.03
-67.26
-18.21
24.48
55.65
73.43
79.22
77.29
71.60
64.99
58.59
53.01
48.26
44.50
41.69
39.34
37.26
34.91
32.37
30.08
28.86
28.86
29.39
29.03
26.23
20.64
12.82
4.88
-0.53
-1.01
4.52
15.77
31.28
48.57
64.48
72.71
68.46
51.62
27.76
4.63
-11.73
-18.93
-19.04
-15.72
-12.69
-11.69
-12.71
-13.96
-14.26
-12.25
-5.98
6.41
24.68
45.34
62.87
70.78
64.33
41.50
4.41
-40.52
-81.13
-106.50
-114.34
-110.24
-101.73
-92.23
-81.83
-69.20
-54.02
-38.16
-25.48
-19.69
-21.78
-31.73
-44.30
-55.21
-62.21
-65.55
-67.60
-72.00
-81.96
-94.18
-108.19
-122.62
-135.73
-144.61
-145.22
-133.70
-108.45
-71.56
-28.59
12.60
45.73
67.34
77.96
81.25
81.24
80.41
80.17
79.81
78.96
78.78
80.59
85.20
92.66
101.49
109.55
114.88
116.84
115.95
113.81
112.49
114.31
121.26
132.71
144.94
151.75
146.92
126.58
90.21
40.43
-20.74
-87.07
-152.27
-210.87
-257.74
-286.92
-292.47
-271.49
-226.01
-162.87
-91.35
-20.78
42.45
90.72
120.88
135.93
140.31
136.01
122.70
100.58
71.49
39.26
10.00
-13.81
-30.64
-40.83
-45.93
-47.51
-46.36
-43.16
-38.79
-34.46
-30.95
-28.54
-27.38
-27.32
-27.86
-28.29
-28.19
-27.45
-26.02
-23.44
-18.72
-11.33
-1.45
10.18
22.56
34.66
45.59
54.65
61.30
65.13
65.41
61.40
52.90
40.78
27.00
14.11
4.36
-1.11
-2.44
-0.96
1.62
4.04
5.86
7.30
8.75
10.33
11.72
12.59
12.83
12.68
12.53
12.65
12.99
13.37
13.65
14.02
15.02
17.19
20.80
25.60
30.93
36.02
40.37
43.94
47.02
49.76
51.70
51.43
46.92
36.28
18.77
-4.69
-31.91
-60.41
-88.52
-115.70
-141.81
-165.99
-185.87
-197.91
-198.83
-187.22
-164.38
-133.91
-100.31
-67.45
-37.75
-12.27
8.73
25.17
37.06
44.62
48.44
49.50
48.93
47.79
46.80
46.33
46.31
46.41
46.19
45.33
43.75
41.69
39.55
37.75
36.51
35.83
35.52
35.36
35.18
34.90
34.54
34.16
33.83
33.61
33.52
33.65
34.10
34.96
36.21
37.63
38.80
39.14
38.10
35.43
31.27
26.17
20.86
16.07
12.28
9.67
8.13
7.43
7.20
7.00
6.32
4.69
1.83
-2.19
-6.93
-11.75
-16.03
-19.39
-21.80
-23.52
-24.90
-26.26
-27.77
-29.50
-31.39
-33.25
-34.75
-35.46
-34.90
-32.70
-28.75
-23.23
-16.63
-9.61
-2.83
3.23
8.35
12.64
16.46
20.24
24.35
28.92
33.83
38.76
43.28
47.01
49.69
51.11
51.12
49.59
46.48
41.93
36.36
30.47
25.09
20.84
17.87
15.72
13.46
10.10
4.99
-1.78
-9.48
-16.96
-23.24
-27.84
-31.07
-33.80
-37.18
-42.41
-50.52
-62.13
-77.08
-94.08
-110.63
-123.43
-129.27
-126.14
-114.02
-94.88
-71.95
-48.57
-27.21
-9.07
5.70
17.51
26.87
34.26
40.10
44.94
49.28
53.46
57.45
60.73
62.39
61.39
56.95
49.03
38.53
27.12
16.83
9.37
5.57
5.17
6.94
9.07
9.67
7.20
0.96
-8.72
-20.41
-31.93
-41.04
-46.19
-47.09
-44.70
-40.70
-36.69
-33.57
-31.32
-29.34
-26.92
-23.61
-19.37
-14.36
-8.87
-3.09
2.85
8.79
14.53
19.76
24.20
27.61
29.94
31.32
32.08
32.62
33.25
34.14
35.29
36.66
38.25
40.16
42.51
45.28
48.12
50.37
51.25
50.11
46.74
41.52
35.43
29.86
26.20
25.47
27.91
32.91
39.18
45.27
50.06
53.13
54.72
55.49
56.06
56.78
57.61
58.18
57.78
55.32
49.41
38.73
22.77
2.34
-20.44
-42.84
-62.46
-77.87
-88.68
-95.02
-97.06
-94.90
-88.96
-80.37
-70.87
-62.11
-54.97
-49.19
-43.79
-37.98
-31.80
-26.20
-22.42
-21.24
-22.88
-27.27
-34.52
-44.89
-58.19
-72.97
-86.18
-93.81
-92.37
-80.63
-60.63
-37.24
-16.30
-2.31
3.41
3.07
1.04
1.54
6.58
15.26
24.82
32.51
37.25
40.17
43.74
49.86
58.68
68.30
75.80
78.66
75.69
67.09
53.97
37.99
21.24
6.29
-4.30
-8.83
-7.51
-2.92
0.74
-0.51
-8.39
-21.33
-35.08
-44.88
-47.80
-44.12
-36.84
-29.88
-25.94
-25.36
-26.42
-26.81
-25.19
-21.92
-18.55
-16.81
-17.24
-18.82
-19.63
-17.99
-13.62
-7.78
-2.60
0.00
-0.69
-3.62
-6.53
-6.91
-3.23
4.15
13.16
20.83
24.50
22.82
16.35
7.09
-2.31
-9.41
-13.01
-12.97
-9.83
-4.53
1.68
7.03
9.42
6.52
-3.28
-20.66
-43.92
-68.67
-89.05
-99.58
-97.44
-83.21
-61.09
-36.83
-16.79
-4.69
-0.27
-0.00
0.79
4.93
12.29
19.18
20.97
12.87
-6.33
-33.44
-62.70
-88.34
-107.62
-120.84
-131.35
-131.98
-118.24
-92.01
-62.52
-40.46
-30.42
-33.92
-42.44
-47.40
-42.54
-27.15
-4.60
22.93
50.55
74.70
93.89
108.86
120.44
129.33
133.92
131.36
118.99
95.84
65.08
33.10
8.00
-3.45
3.03
27.05
64.32
106.79
142.63
163.11
167.37
160.48
146.81
127.41
101.18
68.27
31.73
-3.04
-29.91
-45.17
-49.31
-46.61
-41.93
-38.72
-38.19
-39.77
-41.96
-42.65
-40.39
-35.15
-28.20
-21.08
-14.79
-9.46
-4.75
-0.81
2.52
5.36
7.47
8.44
8.06
6.50
4.48
2.64
1.26
0.51
0.45
1.07
2.47
4.94
9.02
15.49
24.37
34.52
44.00
50.69
53.00
50.53
44.01
33.08
19.40
6.05
-4.05
-9.78
-12.09
-13.38
-15.28
-18.34
-22.26
-25.70
-27.36
-26.47
-23.01
-17.62
-11.68
-6.89
-4.89
-6.44
-10.58
-15.12
-17.42
-15.28
-7.82
3.97
17.55
29.86
38.54
42.89
43.42
41.14
37.10
32.04
26.22
19.61
12.37
5.14
-0.95
-4.88
-6.10
-4.40
0.28
7.26
14.61
19.49
18.91
10.59
-6.41
-31.16
-60.91
-89.31
-109.16
-116.21
-111.43
-99.30
-84.05
-67.81
-51.34
-35.83
-23.22
-16.08
-16.28
-23.27
-34.18
-45.72
-56.34
-66.35
-75.99
-84.49
-86.93
-78.19
-55.42
-20.14
21.78
62.10
92.72
108.77
111.95
108.12
103.06
100.06
99.36
99.11
96.81
90.51
79.39
64.12
46.40
28.56
13.39
3.03
-1.79
-2.42
-1.26
-0.53
-0.80
-1.32
-0.75
1.85
6.17
10.54
12.83
11.71
7.09
0.85
-4.79
-8.23
-9.17
-8.42
-7.07
-5.54
-3.29
-0.13
3.66
5.83
3.05
-7.46
-26.40
-51.69
-79.40
-102.17
-117.76
-123.91
-121.46
-112.95
-101.14
-88.15
-75.42
-64.21
-55.96
-52.52
-54.43
-60.98
-69.71
-77.06
-79.63
-75.38
-64.22
-47.79
-29.13
-10.89
4.81
16.98
25.83
32.39
38.03
43.93
50.80
58.41
66.16
72.96
77.77
79.94
79.36
76.40
71.79
66.42
61.16
56.90
54.25
53.42
54.27
56.26
58.63
60.53
61.15
59.87
56.46
51.13
44.53
37.77
31.92
27.77
25.40
24.11
22.94
20.97
17.74
13.61
9.61
6.95
6.61
8.81
12.93
18.29
24.20
30.08
35.22
38.75
39.46
36.52
29.72
19.91
9.46
1.10
-3.28
-3.37
-0.24
4.19
8.55
12.18
15.06
18.25
22.66
28.45
34.98
41.34
46.56
50.65
53.94
52.57
44.61
30.90
14.81
-0.04
-9.72
-15.54
-19.09
-21.67
-24.22
-27.14
-30.27
-33.42
-36.55
-39.61
-42.75
-45.63
-48.05
-50.03
-51.02
-50.48
-48.20
-44.48
-39.87
-35.33
-31.34
-28.15
-25.65
-23.07
-19.69
-15.30
-10.26
-5.32
-1.56
0.35
-0.05
-2.68
-6.60
-10.48
-13.00
-13.09
-10.43
-5.74
-0.06
5.32
10.05
14.85
20.56
27.18
33.86
38.76
40.19
37.66
31.27
21.64
8.90
-8.10
-31.21
-61.61
-95.30
-123.91
-138.97
-138.55
-127.21
-111.22
-94.88
-79.68
-65.64
-54.22
-50.80
-57.20
-73.75
-97.68
-123.11
-142.67
-149.47
-132.79
-93.12
-40.33
11.84
51.34
73.46
81.21
82.60
86.40
96.90
110.29
118.55
111.46
82.62
32.93
-29.90
-93.59
-143.76
-168.94
-165.50
-138.13
-95.68
-47.60
-0.24
44.03
81.15
108.03
124.33
138.73
153.66
169.88
184.10
196.39
207.03
215.07
219.68
219.45
213.12
200.06
183.09
166.82
155.02
147.57
134.46
109.27
72.58
32.16
-3.25
-28.13
-42.02
-47.60
-48.12
-46.54
-42.91
-37.61
-32.92
-32.64
-39.14
-51.44
-65.77
-77.54
-84.20
-84.75
-80.18
-72.30
-63.13
-53.93
-45.31
-39.68
-36.82
-37.06
-40.23
-45.98
-53.55
-62.01
-70.30
-77.39
-83.75
-89.44
-95.34
-102.82
-113.84
-130.42
-154.18
-186.07
-219.52
-248.58
-265.34
-263.07
-238.75
-194.31
-135.77
-70.92
-6.70
54.01
103.78
137.74
155.59
160.25
155.25
143.94
129.84
116.56
106.76
100.70
97.91
96.80
95.04
90.92
84.42
77.02
72.49
72.40
76.92
85.66
96.70
106.46
110.64
105.65
90.04
65.29
35.40
5.87
-17.69
-31.92
-37.04
-36.24
-33.83
-33.08
-35.56
-40.88
-47.01
-51.45
-52.49
-49.73
-43.55
-34.50
-22.82
-8.65
7.32
23.47
37.33
46.05
47.41
40.58
26.58
8.02
-11.54
-28.55
-40.26
-45.47
-44.55
-39.09
-31.24
-23.26
-16.91
-13.24
-12.44
-13.88
-16.49
-19.02
-20.37
-19.43
-15.66
-9.25
-1.14
7.40
15.13
20.89
23.86
23.82
21.36
17.70
14.19
11.64
9.96
8.46
6.01
2.25
-2.07
-5.30
-5.68
-2.21
4.59
12.75
19.63
22.89
21.50
15.93
7.84
-1.10
-8.84
-13.93
-15.82
-14.97
-12.60
-10.23
-9.19
-9.99
-12.19
-14.46
-15.54
-14.87
-13.04
-11.48
-11.73
-14.53
-19.07
-23.18
-24.16
-20.12
-10.87
2.14
16.59
30.29
41.25
47.93
49.87
48.30
45.52
43.67
43.81
45.69
47.92
48.32
45.11
36.61
22.74
5.89
-9.16
-16.71
-12.73
2.39
23.54
42.78
53.05
50.39
36.45
17.72
2.42
-3.74
-0.08
9.51
19.07
23.13
17.68
0.82
-26.79
-60.89
-93.98
-117.27
-123.70
-110.62
-80.93
-42.80
-6.28
19.99
31.34
26.76
7.03
-26.53
-71.88
-120.36
-160.00
-181.80
-184.87
-173.24
-149.97
-114.84
-66.91
-8.17
54.63
110.13
151.36
174.88
182.53
179.93
173.12
164.57
151.90
129.56
92.06
36.47
-32.09
-101.86
-158.75
-190.83
-192.31
-165.18
-117.88
-62.32
-10.55
27.60
46.06
43.19
22.56
-7.98
-38.65
-60.38
-67.03
-56.44
-30.65
7.02
46.01
74.01
84.43
78.90
63.82
46.25
31.91
24.08
23.21
26.88
31.96
35.82
36.51
33.07
25.55
14.95
2.79
-9.23
-19.76
-27.21
-30.28
-28.93
-24.72
-20.22
-17.85
-19.05
-23.78
-30.67
-36.97
-39.57
-36.39
-27.19
-13.80
0.65
12.87
20.64
23.62
23.46
23.01
23.77
26.77
31.84
37.86
43.39
47.47
49.98
51.36
52.06
52.12
51.30
49.09
45.30
40.21
34.71
29.99
26.78
25.01
23.95
22.73
20.53
16.96
11.98
5.03
-3.21
-11.10
-16.76
-19.22
-18.82
-17.03
-15.65
-16.42
-19.61
-24.37
-29.36
-33.41
-36.10
-37.85
-39.71
-41.70
-43.71
-45.01
-44.67
-42.34
-38.57
-34.71
-32.22
-31.86
-33.19
-35.02
-35.91
-35.03
-32.55
-29.15
-25.38
-21.15
-15.79
-8.51
0.81
11.50
21.99
30.04
34.41
35.80
36.15
36.92
38.22
38.91
37.82
34.56
29.78
24.81
20.97
18.88
18.44
19.19
20.64
22.61
24.93
27.25
28.89
29.11
27.28
23.21
17.73
11.47
5.51
0.70
-2.64
-4.93
-6.92
-9.39
-12.86
-17.27
-22.10
-26.38
-29.29
-29.68
-27.80
-24.42
-20.36
-16.30
-12.59
-9.53
-7.35
-6.43
-7.02
-9.20
-12.20
-14.76
-15.61
-13.98
-9.86
-3.83
3.14
10.44
17.12
22.31
24.90
23.69
17.92
7.91
-4.71
-17.51
-28.03
-35.15
-38.65
-39.61
-40.09
-42.52
-49.16
-61.81
-81.50
-107.86
-138.64
-168.59
-190.49
-197.26
-184.49
-152.33
-105.63
-52.11
1.01
45.82
78.10
97.88
108.04
112.13
112.52
110.14
104.95
97.12
87.22
77.26
69.13
63.47
59.57
56.16
52.92
50.73
51.36
55.66
63.74
73.75
82.08
84.79
79.60
67.12
50.06
32.46
17.50
8.32
7.17
15.12
31.84
55.82
84.63
114.63
142.28
156.72
149.87
121.24
79.37
36.16
0.24
-22.98
-37.35
-46.80
-54.07
-59.20
-61.05
-59.15
-54.40
-49.11
-45.85
-46.96
-52.78
-62.25
-72.38
-79.71
-81.76
-77.82
-68.68
-55.60
-40.15
-23.37
-6.71
8.31
20.25
28.13
31.89
32.59
32.08
31.86
32.84
34.75
36.96
39.25
42.11
46.34
52.02
58.83
65.61
70.94
73.62
73.59
72.33
71.27
70.68
69.21
64.35
53.07
34.37
9.27
-20.03
-48.95
-71.10
-79.87
-70.73
-42.81
0.81
54.25
110.36
160.32
197.57
218.67
222.50
208.78
177.66
130.19
68.96
-1.79
-79.30
-157.33
-225.85
-273.82
-294.70
-290.11
-270.07
-249.49
-242.78
-262.86
-311.97
-380.77
-452.91
-512.22
-547.84
-555.29
-535.27
-466.23
-347.31
-199.73
-55.21
63.63
150.53
209.55
247.58
270.21
281.33
279.37
264.48
240.31
212.49
185.44
160.93
139.42
119.83
102.54
85.91
70.26
58.04
52.05
52.92
58.39
64.78
68.91
69.46
64.84
55.64
44.50
34.74
28.67
26.48
26.91
28.15
28.99
27.97
24.91
20.89
17.49
15.76
15.67
16.48
17.29
17.51
16.49
14.00
10.17
5.33
-0.16
-5.94
-11.60
-16.55
-20.09
-21.81
-21.76
-20.53
-19.23
-19.05
-20.77
-24.21
-28.06
-30.27
-28.91
-22.98
-13.09
-1.28
9.57
16.85
19.13
16.78
11.83
7.57
7.63
14.55
28.82
48.35
69.13
86.37
96.03
95.58
84.53
64.23
37.29
7.17
-22.12
-46.47
-62.77
-69.71
-68.65
-62.80
-55.91
-50.76
-48.39
-48.08
-47.96
-46.09
-39.87
-28.40
-12.99
3.27
16.71
24.29
24.64
19.72
12.74
7.90
8.87
17.82
34.99
59.33
88.04
115.85
136.45
143.21
131.52
101.23
57.81
11.19
-27.79
-51.65
-60.33
-58.21
-50.92
-42.83
-35.79
-29.33
-22.26
-14.38
-7.25
-2.80
-2.42
-5.98
-11.46
-15.89
-16.56
-12.15
-3.41
7.29
16.91
23.00
24.26
20.81
14.07
6.02
-1.49
-7.36
-11.34
-13.97
-16.11
-18.42
-20.79
-22.31
-21.67
-17.84
-10.57
-0.65
9.99
18.25
20.53
13.97
-1.87
-23.86
-45.40
-58.05
-54.60
-32.68
3.02
41.96
71.76
82.79
71.46
40.40
-4.12
-54.10
-100.67
-135.87
-154.04
-152.20
-129.97
-90.35
-41.01
6.53
40.67
54.18
47.08
26.24
1.75
-17.53
-27.46
-28.94
-25.60
-20.98
-17.06
-14.55
-13.61
-14.35
-16.41
-19.11
-21.69
-23.47
-23.78
-22.51
-20.39
-19.13
-21.15
-28.60
-41.05
-55.62
-66.86
-68.38
-55.72
-28.86
7.56
43.77
70.86
83.99
83.55
74.18
62.08
52.20
46.87
45.81
47.17
49.09
50.17
49.55
47.08
43.51
40.65
39.97
42.86
50.10
61.71
76.35
90.67
99.72
98.36
82.80
55.83
25.32
1.36
-8.23
-2.25
12.74
25.83
27.08
12.28
-15.15
-46.44
-71.38
-82.08
-75.26
-53.44
-22.17
10.54
36.38
49.23
47.02
32.12
9.86
-12.95
-32.18
-47.08
-59.02
-69.01
-75.91
-76.88
-69.89
-55.63
-38.39
-24.54
-19.29
-24.69
-38.62
-56.43
-72.58
-82.59
-83.42
-73.39
-52.45
-23.15
8.39
33.19
42.52
32.31
6.40
-24.21
-45.96
-49.24
-33.03
-4.76
24.26
44.87
53.89
55.17
55.16
58.05
63.45
67.37
65.75
57.81
47.07
38.77
37.61
44.96
58.52
74.04
87.03
94.76
96.35
91.92
81.84
66.76
47.92
26.71
6.53
-10.55
-24.36
-36.03
-46.87
-56.90
-64.43
-67.31
-64.71
-58.12
-51.23
-47.82
-49.40
-54.67
-60.25
-62.85
-60.75
-54.73
-47.34
-41.65
-40.37
-44.16
-52.66
-64.54
-77.35
-87.47
-90.74
-83.62
-64.59
-36.72
-5.71
21.71
40.58
49.51
50.74
48.28
45.63
44.14
43.08
41.24
38.03
34.16
31.13
30.17
31.43
33.98
36.50
37.44
36.35
33.72
30.65
28.32
27.50
28.25
29.96
31.75
32.95
33.62
34.30
35.28
36.14
35.56
31.88
24.05
12.48
-0.88
-13.43
-22.82
-27.96
-29.23
-27.94
-25.43
-22.46
-19.17
-15.59
-12.04
-9.19
-7.77
-8.04
-9.49
-11.02
-11.51
-10.35
-7.76
-4.71
-2.31
-1.33
-1.84
-3.23
-4.53
-4.90
-3.96
-1.87
0.80
3.42
5.49
6.82
7.51
7.86
8.27
9.03
10.21
11.65
13.03
13.97
14.17
13.56
12.23
10.41
8.42
6.60
5.33
4.83
5.18
6.03
6.72
6.53
5.13
2.91
0.93
0.43
2.08
5.88
10.94
16.16
20.79
24.49
26.93
27.39
24.92
18.77
9.41
-1.46
-11.58
-19.21
-23.98
-26.93
-29.61
-32.28
-35.05
-36.80
-36.46
-33.84
-29.83
-25.74
-22.43
-19.98
-17.84
-15.50
-12.75
-9.79
-7.08
-4.99
-3.67
-2.84
-2.15
-1.24
-0.01
1.56
3.29
4.89
6.17
7.06
7.76
8.48
9.41
10.54
11.78
12.88
13.52
13.46
12.29
10.16
7.18
3.47
-0.81
-5.45
-10.12
-14.51
-18.20
-20.94
-22.40
-22.47
-21.21
-18.80
-15.50
-11.59
-7.33
-2.45
2.39
6.95
11.04
14.48
17.16
18.99
20.00
20.02
19.33
17.86
15.45
11.92
7.18
1.31
-5.27
-11.84
-17.44
-21.18
-22.57
-21.71
-19.04
-15.32
-11.31
-7.47
-3.81
-0.09
3.95
8.05
11.31
12.62
10.82
5.29
-3.69
-14.89
-26.55
-37.16
-44.70
-49.96
-53.91
-57.59
-61.86
-67.37
-74.53
-83.27
-92.40
-99.08
-99.48
-89.74
-68.41
-37.81
-3.69
26.91
48.51
59.29
61.25
58.24
54.04
50.42
47.17
43.37
38.67
33.82
30.19
28.69
29.00
29.95
30.05
28.17
24.23
19.16
14.31
10.86
9.31
9.22
9.63
9.42
7.95
5.13
1.52
-2.00
-4.70
-6.26
-6.90
-7.12
-7.50
-8.37
-9.70
-11.11
-12.11
-12.29
-11.46
-9.73
-7.29
-4.58
-1.88
0.61
2.84
4.82
6.57
8.09
9.38
10.49
11.43
12.26
12.99
13.58
13.96
14.05
13.83
13.38
12.83
12.31
11.92
11.60
11.17
10.42
9.24
7.70
6.11
4.88
4.40
4.86
6.08
7.63
8.91
9.49
9.30
8.69
8.29
8.73
10.33
12.92
15.89
18.47
20.05
20.47
20.08
19.54
19.64
21.15
24.72
30.56
38.02
45.25
49.43
47.58
37.89
20.70
-1.19
-23.63
-42.68
-56.10
-63.77
-67.09
-67.73
-66.70
-64.48
-60.99
-56.09
-49.97
-43.10
-36.03
-29.27
-23.22
-18.30
-14.72
-12.29
-10.39
-8.07
-4.46
0.85
7.69
15.33
22.83
29.33
34.31
37.58
39.25
39.66
39.29
38.59
37.82
36.99
35.90
34.36
32.27
29.77
27.13
24.63
22.52
20.93
19.98
19.68
19.95
20.49
20.77
20.15
18.14
14.59
9.89
4.82
0.25
-3.23
-5.52
-7.03
-8.35
-9.88
-11.55
-12.86
-13.11
-11.84
-9.05
-5.34
-1.59
1.35
2.97
3.16
2.10
0.07
-2.69
-5.97
-9.48
-12.79
-15.34
-16.60
-16.38
-14.87
-12.68
-10.59
-9.32
-9.33
-10.72
-13.22
-16.23
-18.94
-20.49
-20.24
-17.97
-14.09
-9.43
-5.00
-1.56
0.59
1.59
1.80
1.58
1.14
0.65
0.34
0.60
1.84
4.25
7.64
11.50
15.15
18.10
20.29
22.10
24.20
27.21
31.39
36.40
41.44
45.49
47.70
47.73
45.83
42.75
39.44
36.70
34.95
34.15
33.97
34.02
34.06
34.04
33.98
33.83
33.25
31.68
28.45
23.20
16.07
7.72
-0.94
-9.21
-16.97
-24.73
-33.28
-43.24
-54.77
-67.56
-81.00
-94.40
-106.90
-117.32
-124.08
-125.46
-120.23
-108.28
-91.03
-71.32
-52.62
-37.95
-28.67
-23.90
-20.68
-15.07
-3.79
14.29
37.46
61.72
82.38
96.06
101.84
101.04
95.91
88.16
78.23
65.72
50.46
33.19
15.35
-1.76
-17.78
-33.35
-49.38
-65.98
-81.94
-95.06
-103.18
-105.21
-101.62
-94.12
-84.96
-76.16
-69.19
-64.87
-63.42
-64.41
-66.75
-68.83
-68.80
-65.15
-57.14
-45.01
-29.89
-13.39
2.90
17.85
30.83
41.63
50.14
56.15
59.38
59.63
57.02
52.16
46.03
39.75
34.25
29.98
26.85
24.40
22.10
19.70
17.36
15.54
14.67
14.88
15.82
16.84
17.44
17.50
17.46
17.98
19.51
21.92
24.49
26.19
26.19
24.29
20.96
17.12
13.74
11.42
10.27
9.97
9.98
9.82
9.17
7.98
6.35
4.45
2.42
0.30
-1.90
-4.21
-6.56
-8.79
-10.71
-12.29
-13.78
-15.65
-18.47
-22.52
-27.61
-33.01
-37.63
-40.39
-40.55
-37.93
-32.79
-25.69
-17.29
-8.22
0.86
9.32
16.53
22.11
26.09
28.91
31.25
33.67
36.44
39.43
42.31
44.87
47.11
49.20
51.27
53.18
54.46
54.63
53.46
51.30
48.96
47.43
47.39
48.90
51.25
53.26
53.58
51.07
44.99
35.12
21.81
6.00
-10.83
-26.84
-40.28
-49.98
-55.65
-57.92
-58.00
-57.15
-56.21
-55.38
-54.32
-52.37
-48.90
-43.45
-35.76
-25.82
-13.82
-0.15
14.48
29.08
42.45
53.39
60.97
64.84
65.34
63.36
59.97
55.99
51.63
46.51
39.86
30.93
19.24
4.82
-11.88
-30.01
-48.47
-65.95
-80.98
-92.14
-98.40
-99.38
-95.60
-88.30
-79.08
-69.23
-59.24
-48.71
-36.62
-22.08
-4.90
14.02
32.98
50.08
63.87
73.54
78.76
79.21
74.50
64.47
49.81
32.30
14.59
-0.84
-12.68
-21.35
-28.62
-36.59
-46.60
-58.71
-71.90
-84.74
-96.00
-104.74
-110.17
-111.48
-108.00
-99.70
-87.62
-73.83
-60.92
-51.10
-45.50
-43.88
-44.92
-46.73
-47.45
-45.68
-40.56
-31.86
-19.99
-6.01
8.48
21.74
32.28
39.30
42.79
43.28
41.55
38.28
34.00
29.18
24.40
20.39
17.90
17.46
19.18
22.70
27.38
32.48
37.43
41.96
46.10
50.05
54.00
57.99
61.77
64.87
66.73
66.98
65.55
62.83
59.53
56.53
54.56
54.04
54.95
56.84
58.99
60.59
61.04
60.02
57.74
54.86
52.35
51.24
52.15
55.02
59.00
62.69
64.60
63.70
59.77
53.46
46.07
39.12
33.97
31.53
32.06
35.11
39.58
43.91
46.47
45.98
41.92
34.71
25.61
16.44
9.12
5.24
5.81
11.11
20.79
34.01
49.68
66.76
84.52
102.78
121.95
142.93
166.76
194.24
225.70
260.84
298.72
337.62
374.91
407.13
430.44
441.53
438.75
422.80
396.66
364.68
331.05
298.65
268.52
240.32
213.14
186.35
159.94
134.31
109.91
86.84
64.76
42.92
20.49
-3.29
-28.75
-55.75
-83.68
-111.68
-138.98
-165.28
-190.97
-217.03
-244.69
-274.92
-307.91
-342.97
-378.90
-414.40
-448.71
-481.92
-514.88
-548.95
-585.83
-627.43
-675.37
-729.97
-788.85
-846.16
-893.20
-920.73
-922.26
-896.55
-848.12
-785.33
-717.06
-649.71
-586.01
-525.82
-468.12
-412.60
-360.03
-311.42
-266.96
-225.57
-185.35
-144.52
-102.28
-58.98
-15.98
25.31
63.92
99.53
132.41
163.21
193.05
223.65
257.17
295.23
337.63
381.13
419.28
443.94
447.99
427.85
384.39
322.18
247.91
169.25
94.44
31.49
-12.91
-34.65
-33.22
-11.95
23.04
65.30
110.50
157.59
206.77
256.78
303.74
342.14
367.12
376.31
370.89
355.07
335.07
316.08
300.35
287.03
273.56
257.15
235.30
206.40
166.58
117.40
66.49
23.10
-8.22
-28.72
-41.63
-49.24
-51.95
-49.29
-41.09
-29.45
-18.79
-13.69
-16.31
-24.60
-33.98
-39.70
-38.75
-31.16
-20.12
-10.72
-7.68
-14.04
-27.75
-44.87
-60.94
-72.13
-75.48
-69.54
-55.10
-33.97
-13.70
-2.05
-3.94
-18.44
-38.33
-52.94
-53.60
-38.21
-12.15
14.86
34.63
44.10
45.87
45.25
46.54
50.63
55.11
56.21
51.23
39.84
23.84
6.52
-8.36
-17.48
-18.98
-13.31
-3.01
8.50
18.66
26.69
33.59
40.86
49.01
56.80
61.88
62.38
58.36
52.12
47.18
46.54
51.37
60.57
71.00
78.58
79.70
72.45
57.29
37.18
16.48
-0.61
-11.73
-17.18
-19.32
-21.05
-24.18
-28.62
-32.62
-34.05
-31.66
-25.87
-18.55
-11.97
-7.87
-6.85
-8.43
-11.47
-15.05
-18.36
-20.95
-22.76
-23.84
-24.32
-24.14
-22.99
-20.35
-15.84
-9.46
-1.82
6.02
13.03
18.52
22.35
24.83
26.50
27.69
28.31
27.99
26.30
23.11
18.38
12.09
4.37
-4.18
-12.27
-18.06
-19.75
-16.32
-7.88
3.96
16.68
27.78
35.42
38.32
35.16
24.26
4.44
-22.53
-51.62
-76.47
-92.43
-98.00
-94.42
-84.55
-71.81
-59.43
-49.16
-41.91
-37.85
-36.39
-36.30
-36.25
-35.18
-32.86
-31.51
-31.67
-34.46
-41.13
-52.70
-69.23
-89.26
-109.11
-120.44
-117.94
-98.86
-65.33
-24.03
16.13
47.45
66.15
73.25
72.78
68.75
64.11
59.74
55.49
51.49
49.43
50.15
53.97
59.98
65.88
69.79
70.55
68.61
65.82
64.66
67.13
73.98
84.05
94.10
100.12
98.41
87.10
67.05
41.79
16.25
-4.83
-18.74
-25.66
-27.90
-28.66
-30.60
-34.87
-40.88
-46.85
-50.66
-50.82
-47.04
-40.06
-31.28
-22.11
-13.66
-6.64
-1.57
1.09
0.87
-2.47
-8.62
-16.50
-24.37
-30.33
-32.97
-31.86
-27.61
-21.35
-14.16
-6.61
1.23
9.45
17.75
25.29
30.85
33.39
32.61
29.15
24.48
20.31
18.01
18.19
20.58
24.08
26.98
27.42
23.96
16.16
5.06
-7.00
-17.02
-22.44
-22.09
-16.65
-8.22
0.57
7.56
11.78
13.46
13.56
12.96
11.89
9.74
5.54
-1.32
-10.43
-20.24
-28.59
-33.61
-34.58
-32.22
-28.30
-24.77
-23.05
-23.84
-27.37
-33.74
-42.99
-54.77
-67.98
-80.67
-90.48
-95.50
-94.91
-89.25
-80.18
-69.91
-60.52
-53.42
-49.04
-46.64
-44.41
-39.94
-31.06
-16.85
1.77
22.10
40.57
54.09
61.11
62.05
58.80
53.93
49.67
47.33
47.21
48.74
50.80
52.10
51.64
48.92
44.26
38.61
33.30
29.59
28.24
29.36
32.44
36.50
40.49
43.59
45.47
46.45
47.25
48.66
51.04
54.07
56.95
58.88
59.75
60.43
62.58
67.84
76.82
88.54
100.54
109.83
114.22
113.39
109.02
104.12
101.54
102.74
107.09
112.22
115.16
113.51
106.32
94.35
79.67
65.08
53.30
45.79
41.98
38.83
31.32
13.84
-17.65
-63.36
-118.41
-173.53
-217.86
-243.12
-247.41
-236.77
-223.30
-220.01
-234.81
-266.49
-304.89
-335.50
-346.32
-333.46
-302.44
-264.69
-231.30
-207.74
-192.35
-178.88
-161.14
-136.59
-107.08
-76.51
-47.50
-19.62
9.87
43.40
80.53
117.23
147.36
165.69
170.46
164.31
152.95
142.51
137.05
137.23
140.60
143.23
141.58
133.90
120.70
104.37
88.13
74.73
65.63
60.78
59.02
58.69
58.29
56.91
54.44
51.68
49.66
49.01
49.73
51.44
53.70
56.34
59.58
63.91
70.00
77.55
84.96
89.98
90.92
87.54
81.14
73.92
68.02
65.07
65.14
66.78
67.87
66.52
61.35
51.09
34.38
7.78
-27.83
-66.56
-100.23
-123.04
-133.70
-134.35
-128.56
-119.67
-109.83
-99.47
-88.64
-77.83
-68.05
-60.29
-54.84
-51.35
-48.96
-46.64
-43.19
-38.16
-32.09
-26.16
-21.54
-18.73
-17.65
-17.67
-17.86
-17.11
-14.82
-11.23
-7.26
-4.10
-2.52
-2.79
-4.53
-6.80
-8.35
-8.29
-6.46
-3.61
-1.05
0.10
-0.83
-3.65
-7.36
-10.53
-12.20
-12.09
-10.98
-10.58
-11.99
-16.16
-23.62
-34.55
-48.49
-63.79
-77.27
-83.93
-80.10
-64.10
-38.11
-7.73
20.06
39.78
49.52
51.08
48.26
44.45
41.35
38.66
35.43
31.28
26.99
23.90
22.91
23.83
25.37
26.11
24.91
21.83
17.71
13.90
11.58
11.21
12.36
13.98
15.02
14.79
13.30
11.13
9.14
8.01
7.93
8.59
9.42
9.94
9.93
9.59
9.38
9.67
10.64
12.21
14.30
16.83
20.10
24.54
30.23
36.44
41.78
44.81
44.95
42.76
39.68
37.16
35.92
35.73
35.89
35.81
35.20
33.43
29.15
20.26
4.81
-17.66
-45.14
-72.99
-95.43
-107.79
-108.42
-98.82
-82.40
-62.65
-41.56
-19.57
3.81
28.75
54.23
78.16
98.30
112.97
121.35
123.16
117.92
105.17
84.78
57.66
26.25
-5.68
-34.04
-55.80
-68.14
-71.55
-68.38
-61.54
-53.58
-46.23
-40.30
-37.02
-35.87
-36.30
-38.10
-40.89
-44.05
-46.94
-48.99
-49.77
-47.37
-42.72
-36.98
-31.27
-26.20
-21.87
-18.01
-14.25
-10.15
-5.71
-1.50
1.85
3.67
3.71
2.33
0.41
-1.00
-0.91
0.97
3.94
6.86
8.37
7.62
4.55
-0.01
-5.24
-9.81
-13.31
-16.38
-20.20
-25.87
-34.11
-45.15
-58.13
-72.96
-88.05
-100.28
-105.35
-99.21
-80.17
-50.46
-15.94
16.00
39.25
51.62
54.69
52.30
48.20
44.28
40.52
36.19
31.14
26.20
22.85
21.91
23.01
24.74
25.52
24.30
21.37
18.06
15.96
16.49
19.58
24.26
29.05
32.63
34.49
35.13
35.63
37.07
40.00
44.06
48.37
51.98
54.47
55.95
56.95
57.85
58.60
59.06
59.22
60.05
62.76
67.39
71.39
70.19
59.09
36.49
5.58
-26.89
-53.70
-71.43
-81.69
-88.71
-94.88
-97.84
-91.40
-69.46
-34.11
4.67
32.98
40.30
24.93
-5.66
-39.95
-68.69
-87.27
-95.16
-92.89
-80.04
-55.32
-19.06
24.19
65.31
93.34
100.32
84.22
49.95
7.07
-33.81
-65.32
-85.37
-96.82
-104.88
-112.58
-119.17
-120.10
-109.68
-84.44
-46.06
-0.80
43.47
76.27
93.18
96.96
94.81
93.44
95.56
99.24
100.49
96.34
86.69
75.31
67.23
66.23
73.23
87.22
103.60
117.71
125.49
123.46
110.29
86.72
56.06
23.71
-4.16
-22.86
-30.69
-30.33
-27.97
-29.73
-39.31
-56.44
-78.03
-100.58
-122.26
-143.69
-164.00
-184.39
-206.78
-233.08
-263.47
-295.67
-324.74
-343.29
-343.19
-319.75
-273.49
-210.00
-137.85
-64.41
5.25
67.68
120.20
160.43
185.76
196.34
196.26
185.39
168.25
150.76
136.06
123.78
118.57
119.38
126.34
140.15
160.35
180.53
193.21
190.13
165.20
117.40
51.10
-22.72
-90.02
-138.03
-158.04
-147.43
-109.53
-51.37
18.77
92.09
161.10
218.70
257.99
273.60
263.92
232.51
188.04
141.66
102.62
75.73
59.65
47.99
32.51
5.32
-34.07
-77.84
-114.48
-136.59
-144.02
-141.85
-135.99
-129.99
-123.33
-113.62
-99.61
-82.88
-67.38
-56.92
-53.09
-54.32
-58.54
-61.28
-59.80
-54.76
-49.73
-49.21
-56.25
-71.13
-88.82
-106.12
-119.41
-125.38
-121.67
-107.19
-82.62
-50.48
-14.86
19.80
49.26
72.19
89.61
103.39
114.89
123.08
125.11
115.76
91.61
53.57
9.48
-28.14
-47.60
-42.70
-16.31
19.90
50.26
62.13
50.89
21.87
-14.47
-49.86
-80.38
-105.80
-126.57
-140.75
-143.22
-128.35
-92.96
-39.66
22.18
83.51
136.36
178.00
211.73
244.49
277.18
307.08
338.28
366.53
379.31
369.28
335.81
284.49
224.40
164.31
110.30
64.23
23.04
-16.74
-56.13
-94.27
-129.64
-161.77
-192.22
-223.91
-260.44
-306.02
-361.47
-421.99
-478.26
-518.79
-533.70
-518.25
-474.21
-409.39
-335.38
-261.97
-193.85
-130.80
-70.13
-9.62
50.93
110.57
168.95
226.44
284.95
346.07
408.05
464.73
507.37
527.97
523.30
495.96
450.81
394.20
332.43
271.15
215.56
170.87
141.66
129.81
132.17
136.96
131.19
107.23
66.15
15.67
-34.55
-77.33
-110.63
-137.33
-167.75
-209.06
-260.07
-312.95
-359.35
-395.50
-422.81
-445.62
-468.94
-503.52
-555.82
-623.97
-699.32
-771.56
-832.06
-874.09
-892.49
-841.63
-704.39
-504.79
-294.41
-117.21
9.95
91.82
141.63
171.85
190.25
194.23
181.19
156.02
128.98
109.63
102.44
107.16
121.15
141.17
160.06
170.20
173.63
176.73
185.10
200.61
222.40
248.55
276.82
301.81
319.57
333.51
348.55
367.81
391.24
417.60
446.09
476.74
508.42
539.95
574.59
611.91
645.86
666.06
663.35
633.93
580.33
509.17
403.96
268.86
123.57
-7.37
-109.23
-179.78
-222.60
-248.33
-265.49
-280.55
-294.18
-308.32
-323.31
-341.23
-362.83
-387.05
-403.43
-403.47
-384.67
-348.14
-300.47
-249.28
-201.59
-161.39
-129.67
-105.54
-87.89
-75.57
-65.34
-56.42
-47.76
-40.65
-36.78
-37.42
-43.46
-56.34
-77.29
-101.40
-123.65
-137.19
-135.70
-115.45
-77.68
-29.20
19.33
57.87
81.55
90.99
91.46
88.77
86.75
86.12
85.57
83.22
78.54
72.73
67.32
63.59
61.35
59.58
57.32
55.00
54.39
56.53
60.97
64.41
61.80
48.53
23.23
-11.03
-46.07
-73.14
-86.83
-86.77
-76.97
-63.14
-50.04
-39.92
-33.09
-29.77
-30.12
-35.19
-44.99
-57.27
-67.24
-69.10
-58.45
-34.28
-1.83
30.84
55.76
68.44
69.01
61.35
50.60
40.87
34.16
30.53
30.07
32.52
38.46
48.40
61.37
74.33
82.42
80.37
64.20
35.84
1.21
-31.71
-56.24
-69.61
-73.08
-70.46
-65.68
-60.77
-55.54
-49.37
-42.37
-36.15
-33.76
-37.36
-47.64
-62.71
-78.11
-87.54
-85.78
-70.78
-44.52
-14.17
12.20
28.66
33.76
30.45
23.94
18.51
15.64
14.14
11.50
6.43
-0.55
-7.46
-12.15
-13.21
-11.05
-6.97
-2.51
1.29
4.64
8.42
13.74
21.33
30.53
40.72
50.50
59.13
64.89
67.13
66.05
62.54
57.89
53.40
50.15
48.43
48.05
48.17
48.08
47.24
45.53
43.39
41.50
40.62
41.31
44.60
51.14
60.56
70.64
76.90
73.63
56.15
23.49
-20.43
-66.81
-105.10
-126.55
-126.78
-106.45
-70.08
-24.12
24.70
68.67
100.28
114.80
111.45
93.68
67.87
41.02
18.00
0.28
-15.65
-33.74
-57.04
-86.24
-119.10
-151.61
-178.30
-192.70
-188.57
-161.64
-111.69
-45.29
24.83
84.01
121.00
129.66
112.41
79.10
40.61
8.04
-13.98
-29.08
-43.87
-61.62
-80.25
-94.06
-99.00
-95.25
-86.51
-77.21
-70.03
-64.65
-59.36
-54.71
-50.68
-49.62
-54.76
-67.81
-86.83
-106.26
-118.07
-112.32
-87.19
-47.83
-4.95
30.11
50.29
55.37
50.33
43.77
40.41
41.28
46.04
52.90
60.04
66.35
72.11
77.53
82.68
87.22
90.71
94.82
101.69
113.39
127.35
141.49
152.80
158.22
155.74
139.43
110.66
76.35
44.69
20.52
4.52
-5.72
-12.85
-18.51
-22.06
-23.11
-22.01
-20.00
-18.57
-18.12
-18.24
-18.00
-16.49
-14.22
-11.12
-7.66
-4.81
-3.61
-4.31
-6.54
-9.58
-12.68
-15.41
-17.22
-17.92
-17.80
-17.37
-16.94
-16.69
-16.74
-17.30
-18.70
-21.15
-24.84
-29.79
-35.59
-41.28
-45.56
-47.27
-45.96
-42.20
-37.42
-33.28
-30.90
-30.22
-30.21
-29.49
-27.10
-22.98
-17.90
-13.04
-9.15
-6.03
-2.46
2.74
10.00
18.73
27.40
34.36
38.36
39.45
38.97
38.85
39.99
41.88
43.09
42.19
39.73
37.24
35.73
34.70
32.88
28.65
21.49
12.58
4.03
-2.53
-7.61
-12.83
-20.48
-28.71
-33.61
-30.68
-16.70
7.80
37.44
62.08
71.34
59.47
28.30
-14.20
-57.67
-91.52
-109.68
-108.32
-92.44
-73.31
-61.29
-59.09
-61.80
-62.11
-55.95
-44.89
-33.78
-27.58
-27.35
-29.82
-29.85
-24.32
-13.65
-0.97
9.81
15.89
16.34
12.69
8.06
5.62
6.91
11.33
16.84
21.16
22.85
21.53
18.18
14.62
12.55
12.74
14.80
17.61
19.99
21.28
21.30
20.49
19.62
19.22
19.44
19.94
20.05
19.25
17.07
13.71
9.52
4.98
0.43
-3.71
-7.22
-10.10
-12.24
-13.47
-13.75
-13.11
-11.05
-8.36
-5.36
-2.47
-0.12
1.09
1.47
1.04
-0.10
-1.72
-3.61
-5.24
-5.67
-5.14
-3.63
-1.07
2.35
6.36
10.68
14.97
19.18
23.28
27.07
30.65
33.98
36.87
39.08
40.37
40.29
38.82
35.95
31.48
25.54
18.37
10.26
1.59
-7.20
-15.62
-23.06
-28.93
-33.25
-36.07
-37.49
-37.70
-36.93
-35.38
-33.08
-29.79
-25.04
-19.45
-13.60
-8.15
-3.82
-1.24
-0.79
-2.11
-3.99
-4.53
-3.41
-0.43
4.08
9.30
14.06
17.16
18.09
17.33
16.37
14.62
11.47
5.95
-3.15
-17.03
-36.95
-64.41
-101.97
-138.92
-168.49
-186.01
-188.87
-175.32
-144.86
-100.38
-48.78
0.83
40.87
66.08
76.73
77.18
72.83
67.50
62.32
56.94
51.27
46.53
43.22
41.83
42.08
42.91
42.94
40.89
36.63
31.16
26.37
23.11
21.72
21.82
22.48
22.58
21.27
18.43
14.69
11.22
8.68
7.33
7.00
7.12
7.03
6.20
4.53
2.32
0.15
-1.60
-2.77
-3.45
-3.88
-4.38
-5.20
-6.40
-7.87
-9.40
-10.80
-11.98
-12.99
-13.92
-14.92
-16.12
-17.60
-19.33
-21.28
-23.28
-25.19
-26.77
-27.78
-27.94
-27.03
-24.92
-21.60
-17.17
-11.87
-6.05
-0.10
5.58
10.65
14.82
17.92
19.90
20.83
20.83
20.09
18.81
17.13
15.18
13.00
10.59
8.00
5.27
2.46
-0.38
-3.15
-5.81
-8.36
-10.86
-13.42
-16.01
-18.59
-21.09
-23.46
-25.64
-27.60
-29.47
-31.45
-33.88
-36.74
-40.00
-43.57
-47.25
-50.80
-54.06
-57.06
-60.05
-63.44
-67.15
-71.03
-74.80
-77.97
-80.13
-81.06
-80.96
-80.44
-80.33
-80.71
-81.40
-81.73
-80.61
-76.76
-69.04
-56.57
-38.42
-18.02
3.25
24.77
46.62
69.33
93.65
120.37
150.16
183.18
218.47
254.14
286.42
310.57
322.33
319.56
303.08
276.33
243.94
209.97
177.32
147.05
119.21
93.81
71.35
52.53
37.71
26.44
17.54
9.96
3.03
-3.25
-8.30
-11.35
-12.02
-10.56
-7.86
-5.09
-3.13
-2.32
-2.44
-2.77
-2.47
-1.03
1.57
4.72
7.49
8.99
8.71
6.64
3.27
-0.77
-5.12
-9.93
-15.95
-24.26
-35.86
-51.24
-70.12
-91.24
-112.55
-131.45
-145.27
-151.87
-150.13
-140.21
-123.52
-102.22
-78.68
-54.96
-32.62
-12.80
3.57
15.77
23.36
26.36
25.35
21.24
14.92
7.09
-1.75
-10.95
-19.50
-26.08
-29.44
-29.02
-25.33
-19.77
-13.98
-9.12
-5.44
-2.38
0.86
4.73
9.13
13.59
17.63
21.04
23.81
25.95
27.29
27.53
26.43
24.07
20.88
17.53
14.61
12.40
10.78
9.38
7.71
5.20
1.37
-3.97
-10.59
-17.68
-24.06
-28.65
-30.98
-31.55
-31.61
-32.57
-35.27
-39.51
-44.08
-47.32
-47.86
-45.06
-39.02
-30.33
-19.69
-7.76
4.79
17.16
28.46
37.81
44.54
48.43
49.66
48.59
45.56
40.82
34.61
27.22
19.02
10.65
2.90
-3.52
-8.21
-11.19
-12.96
-14.29
-15.99
-18.70
-22.41
-26.43
-29.59
-30.81
-29.51
-25.80
-20.31
-13.88
-7.46
-1.50
4.11
9.61
15.01
20.15
24.89
29.36
33.95
38.20
41.79
44.80
47.46
49.86
51.90
53.30
53.75
52.82
48.69
41.11
31.93
23.94
18.95
16.76
15.49
12.77
6.79
-5.27
-23.11
-43.45
-62.75
-79.93
-96.86
-116.63
-141.73
-173.76
-216.34
-269.10
-326.26
-377.85
-412.98
-422.79
-402.62
-353.39
-263.53
-142.18
-15.13
90.04
160.63
200.37
220.11
229.81
235.92
242.25
244.79
240.16
227.28
206.24
176.75
138.55
91.98
44.47
5.55
-20.85
-34.62
-38.06
-34.10
-25.52
-14.51
-2.53
9.42
19.61
24.49
22.74
16.14
8.45
3.17
2.03
4.90
10.45
16.42
19.79
19.25
15.58
10.91
7.44
6.34
7.78
11.11
15.01
17.73
18.42
17.33
15.49
14.10
13.95
15.41
18.41
22.46
26.85
31.14
35.12
38.77
42.12
44.82
46.74
47.48
46.54
43.49
38.23
30.93
22.05
12.70
3.36
-5.36
-12.96
-19.15
-23.81
-26.99
-28.88
-29.74
-29.77
-29.28
-28.46
-27.47
-26.45
-25.52
-24.71
-24.07
-23.58
-23.08
-22.58
-22.02
-21.42
-20.87
-20.53
-20.52
-20.96
-22.10
-23.58
-25.25
-26.86
-28.19
-29.14
-30.01
-30.57
-30.69
-30.10
-28.35
-25.08
-20.04
-13.34
-5.61
2.14
8.94
14.01
17.16
18.81
19.65
20.40
21.24
21.78
21.04
18.33
13.31
6.52
-0.78
-7.12
-11.45
-13.72
-14.68
-15.69
-17.62
-20.85
-25.31
-30.94
-38.01
-46.52
-55.69
-61.48
-60.71
-50.27
-29.61
-1.66
28.20
54.40
75.33
91.92
106.52
119.93
130.09
132.42
122.81
100.90
71.14
41.49
19.35
8.38
7.02
10.55
13.90
14.33
12.31
9.92
8.86
8.76
8.00
5.26
1.53
-0.08
4.13
16.14
34.15
53.34
68.01
74.16
70.87
60.18
45.53
30.24
19.47
17.05
25.72
46.18
76.05
109.08
136.47
149.51
142.89
116.85
76.52
30.16
-13.87
-49.54
-74.17
-87.78
-91.90
-88.77
-80.58
-69.56
-57.47
-45.75
-35.45
-27.27
-21.30
-17.11
-13.94
-11.60
-11.17
-14.70
-24.11
-39.50
-58.43
-76.33
-88.43
-91.98
-87.53
-78.77
-70.14
-64.34
-60.70
-56.08
-47.06
-32.43
-14.12
4.03
18.36
27.49
32.66
36.32
40.01
43.17
43.57
39.16
30.17
19.51
11.52
9.38
13.05
18.96
21.98
18.11
6.27
-10.92
-28.96
-43.53
-52.44
-56.16
-56.89
-56.82
-56.98
-57.07
-55.84
-52.13
-45.56
-36.88
-27.79
-20.34
-16.21
-15.79
-17.61
-18.11
-12.69
2.54
28.40
61.58
95.24
121.18
132.99
128.60
110.80
85.71
60.26
39.80
26.54
19.80
16.99
15.59
14.61
14.62
16.60
20.28
23.04
20.66
9.68
-10.28
-35.15
-57.83
-71.45
-72.77
-63.89
-50.73
-39.82
-35.16
-36.57
-40.78
-43.97
-44.32
-42.91
-42.62
-46.13
-53.75
-62.70
-67.78
-63.48
-46.87
-19.27
13.70
44.37
66.31
76.74
76.59
69.50
59.22
47.61
34.36
18.56
0.32
-18.38
-34.53
-46.68
-54.78
-60.03
-64.16
-68.55
-73.37
-77.58
-79.96
-80.60
-83.19
-90.75
-103.19
-117.63
-130.47
-139.68
-145.86
-151.20
-158.14
-170.89
-189.88
-211.44
-230.64
-244.97
-255.30
-263.78
-271.25
-276.85
-283.23
-291.48
-299.61
-304.08
-302.14
-293.11
-277.76
-257.03
-205.76
-119.35
-15.29
80.30
150.39
191.97
209.75
210.74
203.04
193.48
181.77
167.65
154.30
145.80
144.46
149.34
158.22
171.00
189.28
212.13
234.96
256.45
275.89
291.50
299.91
289.23
254.94
202.04
150.57
107.70
77.58
59.56
54.82
62.71
79.56
100.09
117.98
126.51
121.50
107.12
92.92
89.33
101.65
127.69
152.89
161.16
142.35
98.15
41.50
-14.14
-61.31
-99.67
-132.34
-160.18
-180.86
-191.33
-190.78
-181.06
-166.26
-151.50
-141.22
-138.11
-140.31
-143.35
-142.89
-136.79
-125.22
-110.15
-93.83
-77.38
-62.58
-46.91
-26.75
0.28
33.96
71.60
108.86
141.14
164.73
166.49
139.77
85.42
11.68
-70.04
-150.09
-222.93
-286.48
-338.43
-381.50
-415.44
-439.41
-453.16
-457.58
-454.27
-444.57
-430.49
-413.28
-394.21
-372.27
-346.74
-317.80
-286.62
-254.89
-224.19
-195.61
-169.55
-146.25
-124.40
-102.84
-81.04
-59.14
-37.68
-17.24
1.82
19.53
35.90
51.71
67.55
83.57
99.50
114.77
128.71
140.76
150.56
157.79
162.61
165.23
165.82
164.49
161.30
156.30
149.48
140.86
130.36
117.95
103.61
87.39
69.51
50.34
30.48
10.66
-8.25
-25.33
-39.64
-50.21
-56.10
-56.41
-50.39
-37.56
-17.86
8.15
39.29
73.82
109.60
144.42
176.28
203.55
225.07
240.18
248.67
250.69
246.83
238.12
226.08
212.66
199.98
189.96
183.98
182.58
185.44
191.66
200.11
209.80
220.11
230.86
242.20
254.61
268.87
285.83
305.84
328.17
350.62
369.80
382.16
385.07
377.82
361.70
339.38
313.72
286.89
260.09
233.81
208.49
184.79
163.52
145.10
129.10
114.25
99.25
83.18
66.01
48.69
32.86
20.13
11.21
5.64
2.13
-0.34
-2.34
-3.99
-5.32
-6.45
-7.66
-9.15
-10.94
-12.82
-13.64
-12.78
-10.50
-7.77
-5.48
-3.75
-1.89
1.00
5.42
13.49
25.94
41.56
57.67
71.69
82.52
90.56
96.91
102.58
112.91
131.04
156.14
183.65
208.24
226.79
239.04
246.47
251.05
262.27
286.61
324.61
370.64
416.81
457.16
488.63
510.17
522.03
535.96
561.72
602.39
652.68
702.64
742.80
766.53
770.45
690.32
497.06
207.94
-117.34
-413.65
-643.49
-800.56
-896.69
-949.68
-976.57
-980.63
-964.50
-932.31
-889.61
-840.91
-787.16
-727.35
-661.52
-592.39
-517.07
-437.70
-365.38
-313.86
-291.72
-297.16
-318.85
-341.19
-350.54
-335.23
-293.92
-235.30
-173.39
-120.60
-82.78
-59.27
-46.33
-40.40
-37.14
-34.01
-29.46
-22.37
-11.81
2.26
17.99
31.41
37.50
33.14
18.14
-3.70
-27.37
-47.16
-59.01
-62.03
-58.49
-52.22
-46.57
-43.00
-40.86
-38.38
-34.00
-27.50
-20.09
-13.57
-9.31
-7.58
-7.52
-7.63
-6.66
-4.02
-0.23
3.37
5.42
5.24
3.19
0.46
-1.62
-2.27
-1.52
-0.03
1.27
1.68
1.01
-0.37
-1.88
-2.97
-3.44
-3.32
-2.93
-2.82
-3.64
-5.93
-9.77
-14.51
-18.80
-21.16
-20.63
-17.42
-12.86
-8.78
-6.40
-5.78
-5.86
-5.29
-3.42
-0.70
1.71
2.87
2.79
2.40
2.87
4.71
7.35
9.57
10.37
9.73
8.62
8.36
9.75
12.55
15.70
17.96
18.68
18.00
16.63
15.21
13.92
12.43
10.20
6.95
2.89
-1.34
-4.95
-7.28
-8.01
-7.21
-5.16
-2.29
0.91
3.90
6.17
7.34
7.28
6.11
4.10
1.55
-1.38
-4.68
-8.39
-12.38
-16.30
-19.56
-21.58
-21.99
-20.86
-18.68
-16.15
-13.89
-12.15
-10.71
-9.12
-7.07
-4.71
-2.69
-1.88
-2.87
-5.68
-9.70
-13.83
-16.91
-18.02
-16.62
-12.66
-6.53
0.94
8.68
15.53
20.58
23.31
23.75
22.39
20.00
17.41
15.35
14.20
13.92
14.15
14.32
14.04
13.17
11.88
10.41
8.85
7.15
5.15
2.87
0.58
-1.24
-2.12
-1.90
-0.78
0.85
2.57
4.12
5.40
6.33
6.71
6.28
4.85
2.44
-0.70
-4.05
-6.97
-8.79
-9.08
-7.76
-5.21
-2.25
0.12
0.92
-0.34
-3.50
-7.74
-11.85
-14.68
-15.49
-14.06
-10.56
-5.42
0.86
7.66
14.25
19.83
23.71
25.52
25.23
23.16
19.78
15.40
10.03
3.57
-4.00
-12.26
-20.35
-27.16
-31.85
-34.33
-35.42
-36.56
-39.12
-43.72
-49.88
-56.26
-61.22
-63.37
-61.94
-56.75
-48.08
-36.54
-23.03
-8.86
4.42
15.38
23.09
27.50
29.32
29.57
29.09
28.18
26.73
24.47
21.36
17.64
13.82
10.37
7.52
5.31
3.68
2.60
2.14
2.38
3.26
4.61
6.17
7.72
9.18
10.53
11.70
12.51
12.71
12.15
10.87
9.10
7.12
5.10
3.04
0.85
-1.48
-3.71
-5.34
-5.85
-4.93
-2.68
0.39
3.55
6.14
7.86
8.82
9.39
9.97
10.72
11.41
11.56
10.74
8.89
6.40
4.06
2.63
2.50
3.47
4.84
5.83
5.91
5.04
3.59
2.04
0.68
-0.46
-1.44
-2.30
-2.93
-3.15
-2.98
-2.63
-2.43
-2.60
-3.07
-3.47
-3.42
-2.72
-1.47
0.08
1.76
3.58
5.69
8.11
10.62
12.70
13.79
13.47
11.60
8.33
3.96
-1.12
-6.42
-11.26
-14.72
-15.84
-13.96
-9.09
-2.09
5.52
12.01
16.14
17.45
16.29
13.50
9.97
6.39
3.17
0.59
-1.09
-1.61
-0.95
0.55
2.13
2.87
1.96
-0.98
-5.82
-11.93
-18.28
-23.73
-27.25
-28.16
-26.33
-22.25
-16.86
-11.25
-6.22
-2.20
0.88
3.32
5.42
7.32
8.88
9.78
9.83
9.13
8.17
7.65
8.18
10.01
12.83
15.94
18.56
20.15
20.63
20.27
19.44
18.41
17.30
16.21
15.41
15.30
16.14
17.72
19.26
19.64
17.91
13.89
8.46
3.36
0.52
1.29
5.73
12.57
19.67
24.77
26.35
24.00
18.42
11.01
3.29
-3.50
-8.63
-11.82
-13.14
-12.89
-11.60
-9.96
-8.79
-8.86
-10.65
-14.22
-19.06
-24.04
-27.66
-28.50
-25.80
-19.88
-12.18
-4.91
-0.47
-0.76
-6.63
-17.67
-32.35
-48.32
-62.86
-73.54
-78.77
-78.23
-72.90
-64.50
-54.64
-44.33
-33.76
-22.74
-11.16
0.54
11.28
19.62
24.57
25.86
23.89
19.09
11.79
2.36
-8.47
-19.44
-29.15
-36.24
-40.39
-42.76
-46.12
-53.42
-65.83
-81.68
-96.86
-106.93
-108.54
-100.77
-84.85
-63.25
-37.61
-7.72
27.96
71.33
118.28
159.73
186.29
194.06
185.30
165.93
141.84
116.32
89.77
60.67
28.92
-4.78
-36.88
-62.78
-78.62
-82.72
-76.29
-62.45
-45.46
-28.90
-14.80
-2.82
7.37
16.59
25.73
35.46
46.36
57.72
67.50
72.98
72.22
64.67
51.48
36.05
19.65
3.04
-13.35
-28.81
-42.09
-51.49
-55.87
-55.13
-49.74
-41.84
-33.69
-27.03
-22.36
-18.97
-15.32
-10.03
-2.38
7.41
18.08
28.21
36.42
41.63
43.30
41.52
36.98
30.77
24.13
17.91
12.75
8.94
6.36
4.74
3.71
2.95
2.20
1.26
-0.03
-1.62
-3.24
-4.57
-5.33
-5.43
-4.99
-4.26
-3.49
-2.90
-2.50
-2.26
-2.17
-2.34
-2.92
-3.96
-5.35
-6.83
-8.10
-8.95
-9.34
-9.35
-9.13
-8.74
-8.19
-7.42
-6.42
-5.23
-3.98
-2.81
-1.82
-1.07
-0.52
-0.11
0.21
0.50
0.80
1.18
1.65
2.21
2.79
3.28
3.62
3.76
3.76
3.68
3.62
3.64
3.77
4.02
4.46
5.14
6.06
7.13
8.19
9.00
9.40
9.33
8.91
8.35
7.94
7.89
8.28
9.02
9.88
10.64
11.16
11.49
11.77
12.10
12.45
12.67
12.56
12.05
11.21
10.20
9.13
7.97
6.52
4.56
1.91
-1.54
-5.85
-10.99
-16.75
-22.56
-27.57
-30.79
-31.52
-29.67
-25.86
-21.16
-16.71
-13.27
-11.05
-9.87
-9.32
-9.02
-8.70
-8.16
-7.26
-5.93
-4.19
-2.22
-0.28
1.33
2.41
2.84
2.66
2.06
1.36
0.91
1.00
1.78
3.11
4.63
5.75
5.92
4.86
2.75
0.26
-1.77
-2.70
-2.38
-1.20
0.14
1.04
1.30
1.20
1.26
1.89
3.16
4.72
6.05
6.78
6.83
6.36
5.50
4.27
2.53
0.20
-2.50
-5.00
-6.62
-7.00
-6.38
-5.58
-5.57
-6.95
-9.54
-12.49
-14.70
-15.36
-14.36
-12.21
-9.79
-7.92
-7.15
-7.55
-8.75
-10.07
-10.71
-10.10
-8.18
-5.44
-2.63
-0.39
1.09
2.05
2.79
3.40
3.58
2.97
1.47
-0.53
-2.45
-3.89
-4.93
-5.90
-6.98
-7.79
-7.44
-5.19
-1.10
3.75
7.77
9.78
9.78
8.93
8.81
10.31
13.04
15.52
16.16
14.25
10.53
6.68
4.46
4.64
6.68
9.09
10.26
9.34
6.53
2.85
-0.59
-3.15
-4.85
-6.16
-7.50
-8.86
-9.84
-9.88
-8.67
-6.35
-3.47
-0.71
1.42
2.73
3.36
3.55
3.47
3.15
2.51
1.61
0.68
0.15
0.36
1.29
2.35
2.67
1.59
-0.78
-3.49
-5.26
-5.33
-4.15
-3.28
-4.45
-8.30
-13.72
-18.22
-19.26
-15.65
-8.13
1.12
9.76
16.24
20.20
21.92
21.68
19.51
15.46
10.08
4.58
0.49
-1.08
-0.08
2.47
4.95
5.86
4.40
0.63
-4.64
-10.09
-14.27
-15.94
-14.42
-9.88
-3.40
3.30
8.33
10.22
8.39
3.33
-3.57
-10.43
-15.58
-18.02
-17.75
-15.62
-12.83
-10.44
-9.07
-8.84
-9.59
-11.05
-12.78
-14.04
-13.84
-11.19
-5.74
1.81
9.78
16.22
19.87
20.86
20.48
20.43
21.66
23.81
25.41
24.77
20.98
14.44
6.66
-0.57
-5.88
-8.84
-9.77
-9.31
-7.95
-5.78
-2.63
1.56
6.42
11.04
14.19
14.80
12.42
7.48
1.21
-4.82
-9.26
-11.52
-11.89
-11.23
-10.44
-10.01
-9.95
-9.95
-9.66
-8.85
-7.32
-4.85
-1.22
3.47
8.35
11.86
12.17
8.13
0.07
-9.98
-19.01
-24.25
-24.39
-20.04
-13.23
-6.37
-1.13
2.13
4.17
6.08
8.56
11.48
14.12
15.65
15.72
14.57
12.74
10.67
8.37
5.55
2.00
-1.99
-5.56
-7.59
-7.30
-4.62
-0.27
4.52
8.64
11.48
12.98
13.54
13.67
13.78
14.02
14.39
14.78
15.11
15.38
15.62
15.77
15.62
14.73
12.50
8.40
2.08
-6.42
-16.65
-27.83
-38.90
-48.54
-55.20
-57.19
-53.17
-42.68
-26.69
-7.78
10.38
24.01
30.40
28.75
20.33
8.01
-4.78
-15.05
-21.12
-22.66
-20.49
-16.05
-11.17
-7.70
-7.08
-9.90
-15.61
-22.65
-28.99
-32.85
-33.45
-31.32
-28.03
-25.29
-24.04
-23.92
-23.66
-21.67
-16.94
-9.43
-0.26
8.62
15.01
17.13
14.11
6.13
-5.27
-17.55
-27.46
-32.01
-29.40
-19.56
-4.05
14.47
32.97
48.85
59.66
64.54
64.52
61.33
56.07
49.06
41.35
33.30
25.64
19.14
14.25
10.71
7.60
4.04
-0.12
-4.13
-6.91
-7.50
-5.68
-2.13
1.85
4.85
5.99
5.27
3.39
1.09
-1.14
-3.36
-5.99
-9.51
-14.15
-19.57
-24.95
-29.30
-31.97
-32.76
-32.04
-30.43
-28.50
-26.58
-24.66
-22.50
-19.86
-16.68
-13.05
-9.18
-5.27
-1.54
1.68
4.02
5.18
5.15
4.37
3.71
4.14
6.28
10.10
14.89
19.57
23.20
25.39
26.35
26.65
26.88
27.40
28.28
29.41
30.68
31.98
33.23
34.23
34.70
34.37
33.06
30.81
27.78
24.23
20.43
16.64
13.14
10.19
7.97
6.44
5.31
4.17
2.67
0.74
-1.40
-3.28
-4.48
-4.80
-4.39
-3.60
-2.86
-2.56
-2.97
-4.24
-6.32
-8.94
-11.64
-13.87
-15.25
-15.62
-15.08
-13.85
-12.03
-9.58
-6.35
-2.22
2.59
7.69
12.59
17.04
21.05
24.83
28.54
32.07
34.98
36.50
35.99
33.37
29.24
24.76
21.22
19.58
20.19
22.74
26.07
28.84
29.85
28.37
24.07
17.12
8.17
-1.55
-10.47
-17.67
-22.77
-26.10
-28.50
-31.18
-35.27
-41.27
-48.87
-57.11
-65.57
-74.12
-82.77
-91.29
-99.29
-106.16
-111.19
-113.74
-109.56
-96.55
-76.00
-52.60
-31.97
-17.85
-10.82
-8.87
-8.76
-7.17
-2.26
6.55
17.86
30.99
44.73
57.41
67.23
72.78
73.43
68.99
60.04
47.97
34.97
23.33
15.01
11.50
13.03
18.44
25.08
29.79
30.10
25.31
16.58
6.60
-1.51
-5.40
-4.41
0.24
6.29
11.71
15.60
18.13
19.82
20.72
20.12
16.90
10.40
1.05
-9.54
-19.18
-26.09
-29.23
-28.29
-23.26
-14.27
-1.74
13.11
28.12
40.64
48.39
50.44
47.38
40.86
32.58
23.60
14.09
3.67
-7.92
-20.43
-32.99
-44.39
-53.38
-59.02
-60.86
-59.04
-54.28
-47.86
-41.21
-35.45
-30.95
-27.16
-22.98
-17.29
-9.49
0.18
10.88
21.54
31.25
39.31
45.19
48.33
48.13
44.30
37.34
28.63
20.16
13.88
10.84
10.81
12.38
13.82
14.04
13.08
11.90
11.55
12.39
13.70
14.21
12.91
9.76
5.63
1.65
-1.58
-4.27
-7.05
-10.33
-13.94
-17.27
-19.93
-22.21
-24.94
-28.85
-33.82
-38.77
-42.12
-42.72
-40.39
-35.83
-30.16
-24.21
-18.32
-12.59
-7.27
-2.95
-0.32
0.33
-0.67
-2.41
-3.86
-4.29
-3.64
-2.36
-1.14
-0.57
-1.03
-2.59
-5.04
-7.80
-9.97
-10.42
-8.15
-2.73
5.35
14.65
23.12
28.79
30.52
28.42
23.80
18.68
14.91
13.38
13.68
14.45
14.10
11.63
7.17
1.78
-3.09
-6.38
-7.86
-8.00
-7.48
-6.63
-5.26
-2.79
1.24
6.73
12.93
18.63
22.65
24.23
23.35
20.65
17.07
13.43
10.04
6.62
2.69
-2.08
-7.49
-12.84
-17.24
-20.02
-20.90
-19.94
-17.23
-12.88
-7.13
-0.70
5.19
9.20
10.43
8.85
5.35
1.29
-2.13
-4.32
-5.49
-6.27
-7.39
-9.30
-12.00
-15.05
-17.69
-19.21
-19.35
-18.80
-19.01
-21.50
-26.99
-34.74
-42.75
-48.49
-49.96
-46.59
-39.69
-31.63
-24.64
-19.86
-17.09
-15.03
-11.98
-6.31
2.73
14.16
25.90
35.88
42.95
47.11
49.36
50.91
53.02
56.08
58.59
58.11
52.36
40.00
20.44
-5.99
-37.88
-71.42
-100.66
-119.45
-122.57
-107.40
-75.34
-32.53
12.56
47.70
63.35
61.87
51.31
39.43
29.62
23.19
19.10
15.23
9.59
1.73
-7.54
-17.59
-27.47
-35.46
-38.98
-35.97
-25.67
-9.28
10.74
31.26
48.62
60.15
64.99
64.15
59.44
52.78
45.79
39.95
36.37
35.16
35.67
36.88
37.73
37.14
34.29
28.89
21.53
13.43
5.84
-0.27
-4.43
-6.69
-7.62
-7.92
-8.05
-8.00
-7.36
-5.78
-3.27
-0.23
2.63
4.59
5.33
5.01
4.23
3.68
3.81
4.62
5.63
6.22
5.84
4.22
1.43
-2.24
-6.44
-10.77
-14.82
-18.18
-20.51
-21.69
-21.85
-21.31
-20.44
-19.41
-18.15
-16.48
-14.31
-11.79
-9.34
-7.44
-6.39
-6.19
-6.56
-7.11
-7.54
-7.70
-7.54
-7.01
-6.07
-4.64
-2.76
-0.57
1.60
3.32
4.19
3.98
2.75
0.89
-1.00
-2.31
-2.71
-2.19
-1.06
0.26
1.46
2.39
3.08
3.58
3.84
3.77
3.27
2.38
1.27
0.20
-0.57
-0.89
-0.73
-0.26
0.25
0.48
0.22
-0.55
-1.62
-2.63
-3.23
-3.29
-2.90
-2.32
-1.85
-1.62
-1.60
-1.66
-1.66
-1.60
-1.54
-1.61
-1.82
-2.11
-2.35
-2.47
-2.46
-2.44
-2.55
-2.86
-3.30
-3.68
-3.76
-3.37
-2.51
-1.33
-0.07
1.06
1.89
2.35
2.41
2.12
1.59
0.95
0.35
-0.14
-0.53
-0.96
-1.56
-2.36
-3.29
-4.19
-4.85
-5.14
-5.01
-4.53
-3.79
-2.95
-2.19
-1.65
-1.39
-1.31
-1.20
-0.79
0.04
1.23
2.46
3.41
3.85
3.79
3.38
2.81
2.12
1.27
0.22
-0.93
-1.91
-2.35
-2.07
-1.12
0.09
1.07
1.45
1.17
0.55
0.04
0.01
0.54
1.42
2.22
2.58
2.32
1.49
0.32
-0.98
-2.25
-3.40
-4.41
-5.25
-5.86
-6.15
-6.06
-5.54
-4.66
-3.50
-2.22
-0.98
0.12
1.05
1.85
2.50
2.93
3.00
2.64
2.00
1.41
1.24
1.69
2.60
3.58
4.23
4.40
4.30
4.27
4.53
4.99
5.25
4.92
3.88
2.41
0.98
-0.01
-0.44
-0.53
-0.62
-0.89
-1.29
-1.52
-1.31
-0.53
0.70
2.03
3.10
3.59
3.38
2.55
1.26
-0.23
-1.71
-2.98
-3.90
-4.33
-4.17
-3.37
-1.97
-0.19
1.65
3.13
3.86
3.55
2.13
-0.27
-3.25
-6.21
-8.47
-9.41
-8.64
-6.17
-2.37
2.07
6.31
9.60
11.32
11.14
8.99
5.08
-0.12
-5.92
-11.53
-16.18
-19.28
-20.45
-19.57
-16.75
-12.25
-6.50
-0.03
6.53
12.43
16.96
19.50
19.77
17.88
14.42
10.21
6.00
2.12
-1.57
-5.57
-10.28
-15.59
-20.74
-24.50
-25.66
-23.61
-18.53
-11.31
-3.13
4.93
12.12
17.98
22.14
24.22
23.89
21.14
16.45
10.76
5.29
1.07
-1.34
-2.02
-1.51
-0.54
0.33
0.82
0.93
0.77
0.43
-0.06
-0.68
-1.39
-2.07
-2.61
-2.90
-2.88
-2.53
-1.83
-0.79
0.53
1.99
3.32
4.25
4.56
4.19
3.27
2.11
1.06
0.39
0.19
0.36
0.60
0.63
0.33
-0.28
-1.01
-1.66
-2.13
-2.49
-2.87
-3.37
-3.95
-4.51
-4.96
-5.29
-5.62
-6.04
-6.54
-6.95
-7.03
-6.61
-5.71
-4.55
-3.45
-2.75
-2.63
-3.13
-4.08
-5.23
-6.36
-7.34
-8.07
-8.45
-8.28
-7.22
-4.95
-1.36
3.27
8.28
12.77
15.95
17.42
17.31
16.11
14.43
12.77
11.35
10.15
9.08
8.09
7.23
6.63
6.33
6.28
6.23
5.88
4.96
3.48
1.64
-0.16
-1.51
-2.22
-2.44
-2.52
-2.87
-3.71
-4.91
-6.08
-6.80
-6.84
-6.27
-5.39
-4.55
-3.97
-3.62
-3.32
-2.84
-2.06
-1.07
-0.07
0.72
1.23
1.49
1.59
1.54
1.16
0.17
-1.64
-4.20
-7.01
-9.27
-10.19
-9.35
-6.87
-3.42
0.08
2.85
4.41
4.69
3.86
2.27
0.27
-1.74
-3.39
-4.30
-4.26
-3.24
-1.46
0.70
2.79
4.50
5.67
6.28
6.43
6.26
5.93
5.59
5.40
5.50
5.95
6.68
7.48
8.06
8.21
7.90
7.32
6.75
6.40
6.26
6.09
5.43
3.82
1.00
-2.94
-7.56
-12.17
-16.04
-18.58
-19.53
-18.98
-17.28
-14.96
-12.47
-10.13
-8.04
-6.20
-4.55
-3.08
-1.83
-0.88
-0.28
-0.02
-0.06
-0.29
-0.60
-0.88
-1.05
-1.03
-0.77
-0.28
0.42
1.24
2.13
3.02
3.90
4.72
5.41
5.85
5.88
5.33
4.12
2.28
0.05
-2.16
-3.92
-4.84
-4.80
-3.90
-2.47
-0.86
0.60
1.69
2.31
2.45
2.21
1.80
1.50
1.57
2.09
2.94
3.80
4.37
4.52
4.40
4.36
4.72
5.59
6.82
8.08
9.11
9.78
10.15
10.29
10.22
9.82
9.01
7.77
6.24
4.56
2.82
0.88
-1.50
-4.54
-8.24
-12.33
-16.35
-19.81
-22.31
-23.60
-23.54
-22.10
-19.36
-15.60
-11.28
-6.97
-3.11
0.07
2.60
4.68
6.50
8.17
9.67
10.93
11.86
12.39
12.49
12.13
11.28
9.94
8.19
6.16
4.07
2.12
0.44
-0.94
-2.12
-3.32
-4.69
-6.32
-8.09
-9.71
-10.78
-10.94
-9.99
-7.97
-5.14
-1.92
1.20
3.87
5.89
7.31
8.26
8.88
9.20
9.09
8.39
6.98
4.96
2.59
0.20
-1.95
-3.79
-5.40
-6.93
-8.43
-9.83
-10.96
-11.63
-11.73
-11.21
-10.09
-8.45
-6.37
-3.94
-1.27
1.56
4.37
6.93
8.91
9.91
9.56
7.73
4.59
0.64
-3.38
-6.77
-9.03
-10.02
-9.84
-8.74
-6.98
-4.81
-2.47
-0.28
1.42
2.35
2.42
1.78
0.82
-0.04
-0.50
-0.44
0.04
0.75
1.50
2.11
2.45
2.39
1.87
0.97
-0.07
-0.94
-1.36
-1.21
-0.66
0.04
0.68
1.20
1.70
2.31
3.11
4.04
4.96
5.73
6.25
6.52
6.52
6.27
5.76
5.10
4.46
4.07
4.14
4.71
5.62
6.62
7.41
7.76
7.60
7.02
6.19
5.32
4.57
3.97
3.48
3.02
2.55
2.08
1.68
1.40
1.28
1.22
1.11
0.78
0.13
-0.84
-2.03
-3.29
-4.49
-5.50
-6.22
-6.53
-6.34
-5.60
-4.40
-2.95
-1.61
-0.69
-0.39
-0.67
-1.32
-2.06
-2.65
-3.00
-3.12
-3.09
-2.91
-2.53
-1.92
-1.17
-0.50
-0.19
-0.45
-1.26
-2.36
-3.35
-3.87
-3.79
-3.22
-2.45
-1.73
-1.22
-0.87
-0.57
-0.22
0.21
0.63
0.99
1.27
1.54
1.93
2.52
3.36
4.38
5.45
6.40
7.08
7.34
7.13
6.47
5.42
4.09
2.54
0.83
-1.04
-3.02
-5.03
-6.96
-8.68
-10.13
-11.26
-12.06
-12.46
-12.35
-11.59
-10.14
-8.14
-5.92
-3.93
-2.52
-1.85
-1.78
-2.04
-2.33
-2.49
-2.52
-2.50
-2.51
-2.52
-2.49
-2.35
-2.11
-1.75
-1.17
-0.15
1.49
3.78
6.47
9.04
10.93
11.75
11.44
10.28
8.65
6.93
5.39
4.17
3.37
3.05
3.26
3.94
4.93
6.02
6.96
7.56
7.72
7.44
6.86
6.12
5.38
4.69
3.98
3.13
2.03
0.70
-0.70
-1.93
-2.79
-3.23
-3.37
-3.42
-3.58
-3.88
-4.28
-4.62
-4.79
-4.72
-4.38
-3.80
-3.01
-2.09
-1.11
-0.19
0.60
1.15
1.41
1.33
0.89
0.16
-0.73
-1.62
-2.33
-2.77
-3.00
-3.15
-3.34
-3.58
-3.76
-3.68
-3.19
-2.21
-0.73
1.19
3.46
5.88
8.14
9.83
10.54
10.04
8.42
6.04
3.40
0.92
-1.17
-2.82
-4.04
-4.80
-4.98
-4.52
-3.47
-2.08
-0.65
0.59
1.57
2.47
3.50
4.79
6.27
7.64
8.57
8.83
8.38
7.42
6.28
5.22
4.43
3.97
3.83
3.95
4.20
4.42
4.37
3.86
2.78
1.14
-0.97
-3.45
-6.23
-9.25
-12.35
-15.30
-17.74
-19.39
-20.12
-19.93
-18.97
-17.34
-15.06
-12.17
-8.81
-5.30
-2.08
0.50
2.32
3.54
4.53
5.63
7.03
8.63
10.12
11.19
11.63
11.47
10.88
10.07
9.17
8.20
7.12
5.97
4.83
3.92
3.37
3.19
3.17
2.98
2.30
1.02
-0.73
-2.62
-4.25
-5.30
-5.65
-5.35
-4.57
-3.45
-2.11
-0.65
0.81
2.01
2.62
2.32
0.95
-1.37
-4.30
-7.39
-10.24
-12.58
-14.33
-15.43
-15.84
-15.48
-14.29
-12.30
-9.69
-6.72
-3.70
-0.89
1.53
3.46
4.83
5.61
5.80
5.46
4.71
3.67
2.51
1.37
0.40
-0.24
-0.43
-0.10
0.71
1.90
3.29
4.75
6.11
7.25
8.01
8.28
8.01
7.28
6.26
5.16
4.14
3.28
2.56
1.96
1.48
1.13
0.89
0.72
0.54
0.36
0.23
0.26
0.45
0.70
0.79
0.52
-0.22
-1.36
-2.74
-4.13
-5.28
-5.98
-6.02
-5.29
-3.85
-1.96
-0.04
1.46
2.27
2.37
1.97
1.34
0.71
0.18
-0.24
-0.55
-0.71
-0.68
-0.46
-0.10
0.25
0.46
0.43
0.16
-0.25
-0.66
-0.96
-1.11
-1.09
-0.94
-0.66
-0.26
0.25
0.84
1.43
1.98
2.51
3.11
3.88
4.83
5.81
6.52
6.63
5.94
4.53
2.73
1.02
-0.26
-0.95
-1.14
-1.03
-0.79
-0.49
-0.16
0.13
0.28
0.18
-0.19
-0.71
-1.18
-1.47
-1.55
-1.60
-1.80
-2.33
-3.15
-4.13
-5.05
-5.74
-6.13
-6.28
-6.28
-6.23
-6.18
-6.11
-5.92
-5.48
-4.67
-3.43
-1.83
-0.04
1.71
3.18
4.26
4.91
5.25
5.41
5.46
5.41
5.14
4.58
3.73
2.73
1.83
1.24
1.07
1.27
1.63
1.93
1.97
1.71
1.20
0.53
-0.17
-0.86
-1.49
-2.03
-2.44
-2.66
-2.61
-2.27
-1.70
-1.04
-0.46
-0.11
-0.04
-0.22
-0.62
-1.21
-2.02
-3.03
-4.18
-5.34
-6.37
-7.19
-7.77
-8.16
-8.40
-8.45
-8.21
-7.51
-6.29
-4.60
-2.66
-0.74
0.92
2.22
3.16
3.83
4.29
4.59
4.75
4.80
4.79
4.71
4.50
4.08
3.42
2.63
2.00
1.87
2.45
3.73
5.42
7.06
8.22
8.69
8.50
7.84
6.92
5.83
4.54
2.96
1.10
-0.83
-2.52
-3.59
-3.87
-3.44
-2.63
-1.80
-1.22
-0.89
-0.70
-0.53
-0.38
-0.38
-0.64
-1.11
-1.51
-1.47
-0.72
0.77
2.70
4.67
6.31
7.47
8.22
8.81
9.40
10.06
10.69
11.10
11.10
10.59
9.60
8.26
6.80
5.45
4.41
3.72
3.25
2.62
1.36
-0.94
-4.45
-8.93
-13.82
-18.42
-22.07
-24.42
-25.44
-25.30
-24.28
-22.57
-20.27
-17.43
-14.17
-10.69
-7.31
-4.29
-1.82
0.05
1.41
2.40
3.13
3.71
4.16
4.52
4.82
5.05
5.22
5.27
5.18
4.96
4.69
4.46
4.37
4.42
4.52
4.56
4.42
4.02
3.40
2.59
1.68
0.72
-0.21
-1.02
-1.51
-1.44
-0.61
1.03
3.29
5.73
7.82
9.15
9.56
9.13
8.11
6.72
5.10
3.28
1.28
-0.80
-2.79
-4.50
-5.84
-6.79
-7.45
-7.89
-8.14
-8.08
-7.56
-6.48
-4.85
-2.79
-0.50
1.86
4.11
6.14
7.85
9.09
9.75
9.69
8.84
7.25
5.06
2.52
-0.07
-2.42
-4.31
-5.62
-6.34
-6.52
-6.26
-5.65
-4.78
-3.77
-2.81
-2.15
-2.04
-2.61
-3.80
-5.33
-6.76
-7.71
-7.90
-7.29
-6.01
-4.33
-2.52
-0.89
0.22
0.44
-0.57
-2.94
-6.43
-10.40
-13.96
-16.29
-16.92
-15.83
-13.36
-10.00
-6.18
-2.20
1.66
5.08
7.68
9.08
9.13
8.01
6.17
4.23
2.71
1.86
1.65
1.78
1.89
1.64
0.86
-0.48
-2.24
-4.27
-6.37
-8.38
-10.18
-11.66
-12.80
-13.68
-14.49
-15.41
-16.52
-17.73
-18.75
-19.27
-19.08
-18.17
-16.64
-14.48
-11.43
-7.14
-1.43
5.34
12.16
17.67
20.78
21.20
19.66
17.52
16.15
16.26
17.71
19.77
21.58
22.64
22.90
22.57
21.85
20.70
18.86
16.07
12.33
7.98
3.61
-0.26
-3.34
-5.71
-7.71
-9.66
-11.70
-13.66
-15.05
-15.35
-14.24
-11.81
-8.61
-5.50
-3.21
-2.10
-2.01
-2.35
-2.45
-1.81
-0.37
1.56
3.53
5.24
6.61
7.79
9.02
10.49
12.31
14.49
17.01
19.75
22.50
24.93
26.60
26.98
25.62
22.25
16.86
9.77
1.61
-6.80
-14.60
-20.97
-25.31
-27.32
-27.14
-25.32
-22.75
-20.41
-19.00
-18.66
-18.77
-18.26
-16.05
-11.67
-5.55
1.00
6.30
8.91
8.24
4.75
-0.09
-4.39
-6.35
-4.96
-0.26
6.65
14.01
20.16
24.18
26.25
27.42
29.05
32.02
36.30
40.95
44.47
45.41
42.79
36.40
26.75
14.93
2.43
-9.11
-18.19
-23.78
-25.54
-23.84
-19.51
-13.46
-6.46
0.98
8.49
15.67
22.03
27.07
30.46
32.16
32.42
31.59
29.96
27.56
24.21
19.72
14.10
7.68
1.05
-5.27
-10.97
-16.07
-20.70
-24.89
-28.39
-30.75
-31.56
-30.70
-28.40
-25.23
-21.78
-18.59
-16.10
-14.65
-14.44
-15.43
-17.21
-19.03
-20.07
-19.85
-18.49
-16.72
-15.44
-15.19
-15.80
-16.52
-16.47
-15.22
-13.05
-10.82
-9.46
-9.38
-10.28
-11.17
-10.86
-8.49
-3.85
2.47
9.35
15.44
19.57
20.99
19.59
15.84
10.72
5.39
0.97
-1.78
-2.61
-1.73
0.39
3.27
6.53
9.95
13.27
16.05
17.67
17.51
15.35
11.66
7.60
4.63
3.92
5.74
9.32
13.13
15.52
15.39
12.54
7.64
1.87
-3.62
-7.98
-10.86
-12.30
-12.57
-12.09
-11.39
-11.01
-11.35
-12.51
-14.13
-15.51
-15.89
-14.83
-12.38
-9.02
-5.47
-2.39
-0.22
0.82
0.68
-0.50
-2.39
-4.45
-5.93
-6.22
-5.00
-2.46
0.72
3.64
5.52
5.93
4.93
2.91
0.35
-2.36
-5.01
-7.50
-9.61
-10.99
-11.25
-10.15
-7.90
-5.11
-2.60
-0.99
-0.41
-0.47
-0.59
-0.35
0.19
0.61
0.42
-0.56
-2.11
-3.75
-4.93
-5.38
-5.11
-4.32
-3.34
-2.46
-1.87
-1.82
-2.60
-4.21
-6.49
-8.92
-10.61
-10.66
-8.47
-3.94
2.17
8.30
12.91
14.56
12.66
7.78
1.27
-5.21
-10.12
-12.77
-13.62
-13.38
-13.28
-14.44
-17.36
-22.06
-28.07
-34.34
-39.89
-44.47
-48.09
-51.94
-58.58
-68.88
-83.99
-104.11
-126.71
-146.23
-160.05
-161.23
-143.46
-104.83
-48.31
21.42
95.47
165.42
225.14
271.04
302.16
318.78
321.27
310.64
288.72
257.99
221.32
180.42
135.45
83.01
25.48
-29.95
-74.61
-103.55
-117.46
-120.36
-116.95
-110.66
-102.92
-93.66
-83.23
-72.77
-63.89
-57.77
-54.35
-52.64
-51.36
-49.27
-45.36
-39.76
-33.54
-28.07
-24.34
-22.41
-21.66
-21.24
-20.32
-18.22
-14.97
-11.25
-7.92
-5.61
-4.43
-4.01
-3.85
-3.49
-2.51
-0.88
1.09
2.96
4.41
5.36
5.91
6.29
6.68
7.25
8.01
8.86
9.65
10.26
10.70
11.02
11.30
11.64
12.08
12.67
13.40
14.23
15.12
15.99
16.72
17.21
17.32
16.91
16.03
14.61
12.85
10.84
8.75
6.78
5.09
3.79
2.90
2.43
2.29
2.36
2.50
2.58
2.48
2.20
1.80
1.36
1.05
1.02
1.41
2.25
3.55
5.24
7.22
9.32
11.35
13.11
14.45
15.32
15.51
15.04
14.04
12.79
11.64
10.99
11.25
12.79
16.00
20.68
26.69
33.79
41.65
49.91
58.20
66.22
73.79
80.99
87.32
92.73
97.35
101.42
105.26
109.18
113.54
118.71
125.14
132.33
140.04
147.98
155.77
162.83
168.29
170.78
167.97
163.28
157.13
149.70
141.18
131.72
121.47
110.57
99.14
87.39
75.81
64.16
52.75
42.05
32.54
24.49
17.92
12.56
8.04
4.17
0.27
-3.80
-7.93
-12.04
-16.22
-20.95
-26.98
-35.00
-45.24
-57.73
-71.65
-85.83
-99.33
-111.84
-123.95
-136.88
-151.85
-169.52
-190.06
-212.71
-236.30
-259.40
-280.53
-298.16
-311.34
-319.88
-324.42
-325.74
-323.48
-315.77
-299.84
-273.72
-238.06
-196.80
-156.30
-123.20
-102.15
-94.28
-97.28
-106.20
-114.65
-116.14
-105.75
-81.93
-48.14
-12.17
16.40
30.48
28.84
16.55
2.22
-6.27
-5.01
5.05
19.85
34.79
46.44
52.92
53.34
47.38
35.89
21.24
7.34
-1.66
-2.77
4.74
19.33
37.93
56.79
72.02
80.15
78.63
66.85
46.82
23.09
1.89
-11.07
-12.52
-3.04
13.13
29.73
40.96
43.78
38.91
30.04
21.67
17.01
16.64
18.55
19.45
16.42
8.36
-3.23
-14.32
-19.88
-16.31
-3.65
13.39
26.60
27.86
13.37
-13.90
-44.90
-68.60
-76.91
-67.68
-44.49
-13.56
19.17
49.34
73.55
88.58
91.80
82.96
65.57
46.29
31.91
25.92
26.96
30.15
30.15
24.03
12.14
-2.97
-18.68
-33.41
-46.36
-56.88
-63.79
-65.76
-62.21
-53.83
-42.29
-29.53
-17.32
-7.02
0.41
4.77
7.17
9.97
15.42
23.63
31.85
35.76
32.54
23.83
16.05
17.31
32.62
60.36
92.66
119.51
134.09
135.89
129.89
122.65
118.01
114.88
108.54
93.70
67.77
32.39
-7.42
-44.97
-73.81
-89.42
-90.25
-77.83
-56.63
-32.78
-12.42
0.35
4.55
2.33
-2.22
-4.77
-2.55
4.32
12.80
17.55
12.88
-4.58
-33.97
-69.83
-104.00
-128.96
-140.79
-140.40
-131.96
-120.22
-107.89
-95.18
-80.80
-63.92
-45.41
-27.39
-11.70
1.22
12.35
23.21
34.70
47.08
60.40
74.85
90.08
104.21
113.17
111.55
95.00
62.80
19.42
-26.56
-65.64
-90.65
-98.93
-92.10
-74.40
-50.89
-26.73
-6.70
5.37
7.65
1.33
-9.83
-21.53
-31.39
-40.19
-50.79
-65.50
-83.89
-102.45
-116.56
-122.95
-121.13
-112.69
-99.47
-82.24
-60.74
-34.72
-4.88
27.55
61.76
97.54
134.29
169.51
198.21
214.26
213.36
195.32
164.54
127.67
90.39
55.16
21.68
-10.74
-40.65
-63.91
-76.14
-75.83
-66.25
-54.22
-46.73
-47.37
-55.12
-65.91
-75.64
-82.31
-85.98
-87.34
-86.40
-82.24
-74.02
-61.90
-46.66
-29.37
-11.00
7.49
24.63
37.95
44.92
43.61
33.89
17.91
-0.03
-14.18
-18.73
-9.93
11.57
40.34
67.60
85.01
88.52
80.17
66.30
53.47
44.96
39.99
36.01
31.30
26.45
23.41
23.35
25.35
26.87
25.45
20.60
14.35
9.83
9.76
15.53
26.99
42.91
60.81
77.05
87.14
87.23
75.63
54.21
28.23
4.69
-10.11
-13.11
-5.80
6.27
15.78
16.78
7.28
-9.93
-28.55
-41.08
-41.65
-27.96
-2.24
29.49
59.53
81.20
90.92
88.98
79.16
66.92
57.31
53.06
53.34
54.03
48.99
32.39
1.49
-41.39
-88.82
-130.25
-155.39
-157.76
-136.69
-97.38
-49.31
-3.42
30.55
45.93
40.30
15.90
-20.95
-61.45
-96.75
-120.26
-129.14
-124.52
-110.28
-91.02
-70.24
-49.59
-28.73
-6.26
19.28
48.23
78.67
106.14
124.69
128.62
115.00
85.40
46.25
7.09
-22.36
-35.66
-31.63
-14.58
7.39
25.54
34.02
31.74
21.96
9.93
0.11
-5.34
-6.83
-6.28
-5.86
-7.10
-10.73
-16.84
-25.17
-34.96
-44.95
-53.59
-59.67
-62.65
-62.84
-61.50
-60.42
-61.07
-63.76
-67.43
-69.88
-68.65
-62.03
-49.76
-32.78
-12.23
11.31
37.76
66.93
97.63
127.31
152.30
168.92
174.65
168.96
153.27
130.54
104.37
78.28
55.03
35.76
20.02
6.22
-7.12
-20.22
-31.55
-38.48
-38.77
-31.83
-19.17
-3.76
10.89
22.03
28.53
31.11
31.89
33.25
36.93
43.22
51.17
58.91
63.93
63.74
56.26
40.77
18.77
-5.87
-28.35
-44.80
-54.08
-57.67
-57.74
-55.18
-48.97
-37.05
-18.38
5.36
30.45
52.79
69.26
77.87
77.00
64.99
40.94
6.63
-32.04
-65.80
-85.50
-86.89
-73.17
-53.77
-39.24
-35.72
-42.23
-52.40
-59.28
-59.67
-55.64
-52.41
-54.30
-61.78
-71.49
-78.95
-81.58
-80.14
-77.64
-76.25
-74.86
-69.51
-55.77
-32.22
-2.26
27.18
49.18
60.26
61.77
58.67
56.15
56.76
59.02
58.78
51.90
36.98
16.38
-4.81
-20.95
-28.02
-24.72
-12.31
6.31
27.28
46.42
59.87
64.89
61.07
51.00
39.77
32.98
34.18
42.64
53.11
58.08
51.20
30.38
-1.71
-39.28
-76.47
-109.47
-136.82
-158.13
-172.51
-178.39
-174.30
-160.09
-137.15
-107.66
-73.82
-37.67
-1.73
30.34
54.07
66.10
66.48
59.66
53.03
53.31
62.81
77.79
90.64
94.16
86.10
70.55
55.96
50.49
57.63
74.55
94.01
108.33
112.90
107.23
93.47
73.99
50.49
24.40
-2.00
-25.41
-42.46
-51.49
-53.52
-51.68
-49.42
-48.40
-48.11
-46.99
-44.13
-40.37
-38.09
-39.64
-45.89
-55.46
-64.92
-70.05
-67.12
-54.38
-33.07
-7.23
17.83
37.82
51.31
60.01
67.19
75.15
83.80
90.59
92.41
87.67
77.37
64.36
51.77
41.48
33.99
29.12
26.49
25.62
25.61
24.82
21.42
14.37
4.36
-6.36
-14.87
-19.15
-19.02
-16.16
-12.98
-11.24
-11.23
-12.13
-13.01
-14.10
-17.14
-24.46
-37.17
-53.69
-69.76
-80.05
-80.94
-72.45
-58.31
-43.85
-33.04
-26.86
-23.20
-18.84
-11.33
-0.24
12.93
25.79
35.83
40.97
39.85
32.30
20.00
6.65
-2.95
-4.95
1.61
14.12
27.85
38.46
44.13
45.64
44.84
42.37
36.92
26.95
12.49
-3.55
-16.82
-24.02
-25.20
-23.69
-23.84
-28.43
-36.80
-46.01
-52.62
-54.89
-53.79
-52.08
-52.40
-55.60
-60.30
-63.69
-63.13
-57.65
-48.52
-39.00
-33.32
-34.74
-43.94
-58.35
-72.56
-80.42
-77.13
-60.94
-33.85
-0.73
32.29
60.06
79.77
91.33
96.19
95.74
90.63
80.98
67.61
52.68
39.51
31.22
29.20
32.35
37.45
40.55
38.72
31.19
19.89
8.87
2.75
4.50
13.60
25.64
34.04
33.06
21.07
1.62
-18.26
-31.60
-35.01
-30.25
-22.93
-19.31
-23.22
-34.59
-49.68
-63.20
-70.82
-71.18
-66.22
-60.19
-57.25
-59.29
-64.64
-68.17
-63.69
-47.18
-19.04
15.91
50.44
78.26
96.41
105.94
111.18
117.57
128.89
145.90
166.13
184.95
197.25
198.96
187.66
164.70
135.08
105.42
81.43
66.29
59.92
59.64
61.45
60.33
54.91
47.65
42.03
39.43
38.26
34.81
24.73
4.85
-28.59
-74.23
-126.23
-177.93
-224.70
-263.11
-290.38
-304.70
-306.57
-302.81
-298.43
-293.95
-286.74
-273.45
-250.89
-217.62
-175.46
-106.72
-20.15
57.23
106.98
131.93
144.15
154.31
167.03
182.32
198.64
210.61
216.42
215.49
206.97
188.10
157.17
116.12
71.17
31.02
1.14
-13.55
-10.37
8.53
35.19
59.29
71.82
67.69
46.16
7.95
-42.39
-97.14
-146.95
-183.22
-198.85
-190.42
-159.82
-114.64
-67.10
-28.11
-3.47
7.32
8.74
6.27
3.51
1.68
0.93
1.98
7.66
21.60
45.62
77.41
110.91
138.29
152.64
149.96
129.83
95.35
51.98
6.70
-33.34
-62.08
-76.01
-75.38
-64.21
-49.13
-36.67
-31.06
-32.76
-38.96
-45.46
-48.81
-47.56
-42.40
-35.36
-28.57
-24.15
-23.94
-29.21
-39.98
-54.82
-70.51
-83.02
-89.26
-88.57
-83.58
-79.04
-79.33
-86.13
-97.26
-107.82
-113.05
-111.21
-104.45
-97.57
-95.00
-98.26
-105.15
-110.52
-108.67
-95.93
-72.69
-43.39
-14.74
7.23
19.66
23.88
24.61
27.78
37.54
54.77
77.20
101.17
124.14
146.32
169.93
197.25
227.92
257.66
279.30
285.39
271.56
238.47
192.04
141.61
96.58
62.84
41.53
29.94
24.20
21.92
22.85
27.29
33.66
37.61
33.27
16.99
-9.71
-39.78
-63.81
-74.76
-72.17
-62.25
-54.17
-55.05
-66.19
-82.96
-97.98
-105.43
-103.76
-95.48
-84.70
-74.07
-63.28
-50.07
-32.50
-10.87
12.06
32.21
46.52
54.15
56.49
55.82
53.83
50.56
44.50
33.86
17.62
-2.97
-24.56
-42.63
-53.45
-55.41
-50.16
-41.67
-34.23
-30.14
-28.41
-25.62
-18.30
-5.36
10.71
24.68
30.92
26.05
10.38
-12.48
-37.19
-58.50
-72.48
-76.99
-71.84
-58.97
-42.15
-25.92
-13.81
-6.89
-3.42
-0.03
6.10
16.05
29.16
44.26
60.32
76.42
90.63
99.97
101.43
93.60
78.25
59.67
42.43
29.35
20.80
15.60
12.92
13.29
17.80
26.74
38.32
49.10
55.32
54.62
46.84
33.88
18.59
3.68
-9.16
-19.67
-28.75
-37.79
-47.73
-58.60
-69.32
-78.08
-83.07
-82.85
-76.96
-66.33
-53.14
-40.35
-30.31
-23.75
-19.50
-15.26
-8.89
0.37
11.77
24.21
37.09
50.45
63.71
74.57
79.07
73.30
55.93
29.97
2.09
-19.96
-30.61
-28.36
-15.85
1.90
19.76
34.01
43.04
46.93
46.53
42.47
34.62
22.38
5.71
-13.76
-32.44
-46.13
-52.29
-51.66
-48.30
-47.22
-51.44
-59.90
-67.71
-68.76
-58.83
-37.81
-9.46
20.32
45.86
63.65
72.94
75.00
71.89
65.36
56.08
43.86
28.72
12.06
-3.17
-13.29
-15.62
-10.29
-0.65
7.87
10.34
4.65
-7.54
-22.00
-34.06
-40.72
-41.62
-38.30
-32.93
-26.97
-20.69
-13.51
-5.09
3.87
11.26
14.22
10.73
1.03
-11.57
-21.70
-23.74
-14.00
7.41
36.10
64.74
85.73
93.61
86.85
67.71
41.07
12.60
-12.54
-30.58
-39.53
-39.03
-30.49
-16.36
0.30
16.44
29.40
37.12
38.08
31.37
17.43
-1.25
-19.80
-32.18
-33.71
-23.86
-7.29
7.89
13.97
7.89
-6.95
-22.79
-32.50
-34.02
-31.86
-33.92
-45.81
-66.53
-88.15
-100.45
-96.72
-77.67
-50.86
-26.11
-10.33
-4.67
-5.18
-6.40
-5.12
-2.00
-0.25
-2.81
-9.73
-17.45
-20.51
-14.54
1.01
22.21
42.17
54.25
55.23
46.72
34.20
23.90
19.76
21.74
26.21
28.29
24.59
14.75
1.19
-12.72
-24.79
-35.06
-45.34
-57.30
-70.39
-81.06
-83.76
-73.64
-48.89
-12.15
29.98
68.62
95.39
105.00
97.15
76.55
51.25
29.82
18.06
17.04
23.08
30.08
32.63
28.14
17.26
2.47
-13.70
-29.79
-44.84
-57.51
-65.73
-67.70
-63.32
-55.34
-48.25
-45.62
-47.84
-51.11
-49.10
-36.56
-12.82
17.16
44.60
60.26
58.52
39.52
9.03
-24.13
-51.35
-67.05
-69.74
-61.07
-43.92
-20.69
6.97
37.44
67.77
93.51
110.16
115.33
110.42
99.79
88.35
78.30
68.20
54.20
33.22
5.82
-23.65
-49.08
-65.48
-70.80
-65.97
-53.39
-35.87
-16.52
0.89
11.96
13.14
3.49
-14.53
-36.28
-57.27
-74.84
-88.31
-97.49
-101.80
-100.41
-93.71
-84.31
-76.45
-73.53
-75.30
-77.19
-72.40
-55.74
-26.95
8.86
43.17
67.95
78.40
74.50
60.26
42.26
27.39
20.62
23.17
32.06
41.52
45.87
42.52
33.09
22.02
13.63
9.44
7.80
5.33
-0.55
-10.23
-21.70
-31.86
-37.75
-37.17
-29.20
-14.40
5.27
26.37
44.81
56.73
59.68
53.60
40.98
25.47
10.41
-2.45
-12.83
-20.72
-25.27
-24.61
-17.05
-2.58
16.20
34.97
49.57
57.86
60.21
58.65
55.34
51.44
47.18
42.35
37.04
31.29
24.84
17.24
8.74
0.96
-3.18
-1.32
6.32
16.34
23.45
23.56
15.87
2.73
-12.36
-26.84
-39.54
-49.61
-55.21
-53.62
-43.22
-25.64
-6.60
6.19
6.82
-5.46
-25.76
-46.07
-59.66
-64.59
-64.03
-63.61
-67.53
-76.02
-85.12
-89.06
-83.25
-66.77
-42.55
-15.77
8.55
27.33
39.67
46.15
47.73
45.16
39.47
32.53
27.31
26.67
31.94
41.68
52.08
58.62
58.45
51.77
41.45
31.33
24.22
21.20
22.01
26.15
33.27
42.78
53.02
61.05
63.70
58.98
47.16
30.52
12.41
-4.11
-16.82
-24.54
-27.12
-25.68
-22.78
-22.17
-27.49
-40.27
-58.23
-75.52
-84.83
-80.66
-61.93
-32.47
1.03
31.87
55.53
70.27
76.17
73.82
63.87
47.42
26.97
6.43
-9.78
-18.56
-19.27
-13.45
-3.87
6.86
16.85
24.58
28.63
28.02
23.15
16.18
10.36
8.13
9.32
11.09
9.87
3.86
-5.62
-14.98
-21.31
-24.54
-27.50
-33.56
-43.71
-55.20
-62.89
-62.63
-53.93
-40.34
-27.23
-18.84
-15.86
-15.72
-14.44
-9.06
0.36
11.02
18.88
21.20
17.94
11.51
5.00
0.17
-3.35
-7.18
-12.02
-16.33
-16.78
-10.77
1.09
14.62
23.98
24.95
17.64
6.18
-4.21
-10.60
-14.05
-18.08
-25.28
-34.75
-41.99
-41.84
-31.95
-14.80
3.12
14.42
14.18
2.04
-17.89
-38.90
-54.24
-59.48
-53.74
-39.29
-20.48
-1.96
12.82
22.96
30.38
38.65
50.76
67.22
85.72
102.29
113.25
116.81
113.01
103.00
87.88
68.50
46.01
22.74
2.21
-11.98
-17.82
-16.01
-9.51
-2.24
2.37
2.24
-2.81
-11.24
-19.83
-24.46
-21.55
-9.63
9.26
29.76
44.85
48.79
39.76
20.87
-1.16
-19.27
-29.15
-30.91
-28.57
-27.43
-31.38
-40.84
-52.53
-60.93
-60.90
-50.00
-29.39
-3.28
22.83
43.68
55.74
57.91
51.59
40.04
27.61
18.35
14.57
16.29
20.95
24.31
21.64
9.36
-13.23
-42.80
-72.46
-93.77
-99.98
-89.19
-65.53
-37.54
-14.35
-1.71
0.00
-5.04
-11.18
-14.37
-13.67
-10.61
-7.53
-6.05
-6.66
-9.48
-14.64
-22.33
-32.08
-42.16
-49.65
-51.41
-45.55
-32.26
-13.72
6.89
26.30
41.86
51.65
54.79
51.97
45.42
38.26
32.80
29.25
25.42
18.21
6.01
-9.44
-23.24
-29.63
-25.22
-11.15
7.48
24.29
34.63
37.05
32.39
22.15
6.81
-13.89
-39.46
-67.24
-92.20
-108.49
-111.51
-99.92
-76.16
-45.55
-14.33
12.28
30.97
40.17
39.43
29.52
12.76
-6.70
-23.42
-32.18
-29.89
-16.96
2.63
22.92
38.10
44.43
41.35
31.60
20.35
13.31
14.95
26.80
46.35
67.60
83.35
88.40
82.13
68.49
53.45
41.44
32.96
25.10
13.95
-2.14
-21.19
-38.68
-50.21
-53.96
-50.90
-43.67
-34.57
-24.81
-14.97
-6.29
-1.08
-1.22
-6.31
-12.78
-15.34
-10.29
1.30
12.80
15.01
1.35
-27.55
-62.90
-90.88
-98.89
-81.03
-40.55
11.71
62.01
99.13
117.81
119.22
108.61
91.98
73.53
55.20
37.78
22.55
11.46
6.54
8.41
15.76
26.06
36.85
46.90
55.93
63.39
67.31
64.43
52.26
31.83
8.85
-8.01
-10.92
2.61
27.99
55.31
74.12
78.52
69.67
54.14
39.00
26.96
14.89
-3.35
-31.50
-67.14
-101.82
-125.37
-131.52
-120.56
-97.84
-70.01
-41.57
-14.37
9.95
27.70
33.24
22.29
-4.46
-40.14
-74.31
-97.85
-107.03
-104.25
-95.14
-84.50
-73.98
-62.63
-49.53
-36.18
-26.45
-24.45
-31.55
-45.08
-59.48
-69.35
-72.33
-69.78
-65.29
-62.43
-63.19
-67.55
-73.96
-80.28
-83.93
-82.32
-73.69
-58.39
-39.46
-21.49
-8.72
-2.75
-1.85
-1.84
1.45
9.67
21.00
31.37
37.10
37.54
36.09
39.03
52.65
79.65
116.76
154.66
181.36
187.57
171.49
140.63
108.52
87.80
83.32
89.79
95.48
89.34
67.86
36.53
5.93
-15.73
-28.00
-37.86
-54.18
-80.58
-111.99
-136.70
-143.31
-127.55
-95.03
-57.95
-28.57
-13.51
-12.21
-19.83
-31.98
-47.40
-67.32
-92.21
-118.57
-138.25
-141.64
-122.16
-79.77
-21.47
41.33
96.94
136.94
157.61
159.55
146.34
123.32
96.52
71.72
53.32
43.19
40.39
41.78
43.53
42.87
39.01
33.09
26.85
21.50
17.05
12.95
8.91
5.39
3.46
3.59
5.24
6.96
7.57
6.70
4.80
2.15
-2.21
-10.21
-23.10
-39.44
-54.85
-63.75
-62.37
-50.91
-33.48
-15.42
-0.22
11.98
23.74
37.58
53.83
70.07
82.16
86.31
80.48
64.72
40.56
10.65
-21.68
-52.20
-76.15
-89.51
-90.50
-80.27
-62.57
-42.27
-23.41
-8.08
3.44
11.72
17.12
19.32
17.92
13.23
6.57
0.10
-4.54
-7.21
-9.63
-14.33
-22.81
-34.11
-44.60
-49.72
-46.40
-35.26
-20.76
-9.18
-5.30
-9.87
-19.34
-28.11
-31.63
-28.35
-19.63
-7.28
8.42
28.80
54.66
83.50
108.52
120.74
113.71
87.39
49.50
12.53
-11.84
-17.90
-8.02
9.33
24.33
30.47
26.53
15.72
2.39
-10.71
-22.81
-33.48
-40.97
-41.89
-33.04
-14.11
11.06
35.55
52.63
58.96
55.81
47.25
37.23
27.07
15.29
-0.07
-19.10
-39.00
-55.15
-63.48
-62.33
-52.38
-35.17
-12.06
15.83
46.40
75.38
96.93
105.55
98.93
79.17
51.94
23.73
-0.57
-18.80
-30.74
-36.59
-36.22
-29.78
-18.83
-6.99
1.00
1.54
-6.07
-19.15
-33.21
-44.45
-51.34
-54.85
-57.26
-60.25
-63.91
-66.85
-67.20
-63.89
-57.67
-50.97
-46.71
-46.87
-50.86
-55.05
-53.73
-41.92
-17.78
15.94
52.92
86.08
110.33
123.90
127.21
120.82
104.17
76.62
39.80
-0.77
-36.58
-59.49
-65.50
-56.33
-37.98
-17.32
0.82
14.42
22.83
25.35
21.09
10.27
-4.86
-20.38
-32.52
-39.68
-42.80
-43.99
-44.39
-43.38
-39.35
-31.67
-21.88
-13.48
-10.09
-13.10
-20.72
-28.45
-31.35
-26.27
-13.16
5.03
23.79
39.20
49.32
54.38
55.60
53.56
47.57
36.61
21.21
4.79
-6.81
-8.51
0.83
16.94
31.96
38.50
33.48
19.01
0.61
-16.22
-28.04
-34.01
-34.32
-29.53
-20.68
-9.80
-0.44
3.75
0.87
-7.92
-18.68
-26.93
-30.29
-29.63
-27.72
-27.10
-27.93
-27.91
-24.31
-16.21
-5.44
4.23
9.65
10.25
8.37
7.56
10.48
17.10
25.02
31.01
32.70
29.22
21.46
11.31
0.94
-7.56
-12.62
-13.60
-11.05
-6.36
-0.93
4.65
10.98
18.96
28.72
38.73
46.46
49.79
48.39
44.10
39.72
37.04
35.88
34.30
30.36
23.86
17.45
15.55
22.33
39.23
63.67
89.84
111.16
122.98
124.01
116.12
102.34
84.73
63.78
38.87
10.17
-20.31
-48.93
-72.02
-87.43
-95.54
-98.43
-98.37
-96.56
-92.79
-86.40
-77.48
-67.65
-59.45
-55.18
-55.49
-58.71
-61.89
-62.31
-58.91
-52.84
-46.72
-43.19
-43.75
-48.02
-53.73
-57.40
-55.15
-43.44
-20.41
12.87
51.81
88.84
115.85
127.31
122.59
105.87
84.12
64.10
49.99
43.29
43.37
47.94
53.11
53.61
44.27
22.57
-9.08
-43.23
-70.04
-82.03
-77.25
-59.87
-37.69
-18.33
-6.37
-2.96
-6.82
-15.43
-25.58
-33.29
-34.85
-29.00
-18.47
-9.79
-9.99
-22.17
-42.60
-61.76
-68.54
-55.64
-23.35
20.58
64.18
95.72
107.35
96.97
67.83
27.14
-16.08
-53.28
-78.44
-89.58
-88.88
-81.34
-72.60
-66.45
-63.78
-62.72
-60.14
-53.13
-40.11
-21.26
1.72
25.54
45.93
58.39
60.01
50.91
34.75
17.39
4.64
-0.38
1.68
7.10
11.13
10.24
3.14
-9.56
-26.46
-45.25
-62.27
-72.34
-70.23
-53.04
-22.14
16.80
55.57
86.34
104.00
107.02
96.85
77.00
52.34
28.34
10.55
3.18
7.90
22.79
42.85
61.92
75.05
79.61
75.74
65.40
51.17
35.73
21.17
8.56
-1.95
-11.03
-19.75
-28.47
-36.20
-40.56
-38.59
-28.21
-9.41
15.50
42.39
66.20
81.99
85.63
74.20
46.99
6.77
-39.43
-81.45
-109.74
-119.24
-111.68
-94.30
-75.47
-59.99
-47.50
-34.01
-15.82
7.17
30.83
48.82
55.31
47.67
27.50
0.23
-26.13
-43.22
-45.26
-31.92
-9.46
10.92
18.20
7.23
-18.48
-48.96
-73.10
-84.32
-82.92
-74.27
-64.22
-55.68
-47.93
-38.57
-26.10
-11.50
2.37
12.25
15.92
12.89
4.50
-6.45
-16.28
-21.41
-19.76
-11.88
-1.01
8.37
12.60
10.67
4.28
-3.50
-10.08
-14.93
-19.26
-24.51
-30.78
-36.24
-37.95
-33.47
-22.69
-8.14
6.17
16.78
22.07
22.03
17.26
8.20
-4.39
-18.36
-29.89
-34.86
-31.25
-20.93
-8.82
0.07
3.46
2.72
1.27
1.95
5.06
8.91
11.28
11.22
9.30
6.61
3.91
1.66
0.74
2.82
9.02
18.57
28.19
33.70
32.45
25.06
14.84
5.66
-0.53
-4.45
-8.38
-14.09
-21.47
-28.54
-32.66
-32.47
-28.62
-23.30
-18.88
-16.40
-14.69
-10.87
-2.11
12.68
31.52
49.78
61.92
63.76
54.27
35.24
10.15
-17.19
-43.15
-63.80
-74.49
-70.26
-48.04
-9.24
39.02
85.65
119.69
134.70
131.13
115.48
96.41
80.81
71.43
66.85
63.48
57.82
47.61
32.15
12.30
-9.40
-28.87
-41.20
-42.69
-33.13
-16.74
-0.65
8.39
7.23
-2.47
-16.04
-28.73
-38.22
-45.13
-51.01
-56.14
-58.87
-57.09
-50.94
-44.02
-42.12
-50.03
-67.89
-89.97
-106.81
-109.28
-92.62
-58.03
-11.51
38.74
84.34
117.94
133.75
128.60
103.68
65.60
25.46
-4.82
-17.14
-10.95
7.16
27.49
42.19
48.27
47.27
41.86
33.09
19.74
0.24
-24.63
-50.86
-72.74
-85.45
-87.20
-79.46
-65.44
-48.15
-29.29
-9.44
10.90
30.50
47.11
58.09
61.16
55.07
40.49
20.55
0.73
-12.96
-16.30
-8.95
5.38
21.13
34.10
43.37
50.76
58.59
67.18
74.54
77.81
75.67
69.08
60.15
49.80
36.44
16.91
-10.85
-44.92
-78.86
-103.99
-113.01
-103.47
-78.98
-47.94
-20.26
-3.73
-1.29
-10.60
-25.51
-39.14
-46.90
-47.82
-43.90
-38.21
-33.22
-30.01
-28.82
-29.97
-33.89
-40.54
-48.36
-53.97
-52.84
-41.54
-19.85
7.81
33.36
47.85
45.51
26.99
-0.31
-25.10
-36.77
-29.74
-5.34
29.41
65.13
93.25
108.43
108.85
95.81
72.91
45.32
18.81
-1.21
-10.85
-8.61
4.74
26.29
51.40
74.20
88.26
88.20
71.54
40.68
2.90
-31.46
-52.93
-56.71
-44.52
-23.57
-2.82
11.04
16.13
14.48
9.31
2.21
-7.53
-20.57
-35.39
-47.32
-50.91
-43.45
-27.09
-7.62
9.46
22.79
35.92
54.18
79.69
107.88
128.85
132.73
116.00
84.51
50.24
24.52
11.72
7.85
4.64
-4.42
-19.74
-36.29
-47.24
-48.51
-40.74
-28.03
-14.96
-4.38
3.15
8.40
11.68
12.76
11.07
6.01
-3.43
-18.93
-42.22
-73.46
-109.45
-143.52
-167.10
-173.29
-159.70
-129.72
-91.14
-52.96
-22.29
-2.44
7.08
9.41
8.42
7.21
7.47
9.66
13.67
19.24
26.08
33.30
39.23
41.27
36.98
25.78
9.90
-5.74
-15.74
-16.71
-8.76
4.86
19.83
33.17
44.39
54.21
62.73
67.84
66.06
54.84
35.20
12.55
-5.30
-11.54
-3.92
14.24
35.20
50.02
52.09
39.51
15.58
-12.98
-39.14
-58.70
-71.27
-79.02
-83.88
-85.72
-82.69
-73.23
-58.84
-44.57
-36.54
-37.62
-44.86
-50.62
-47.04
-30.73
-4.93
22.76
45.03
58.71
65.47
68.98
71.22
70.51
63.10
47.15
25.79
6.87
-0.98
6.31
25.44
47.46
62.91
67.02
61.66
53.05
47.46
47.47
50.85
52.63
48.32
35.94
16.13
-8.85
-36.29
-63.19
-86.02
-100.41
-102.25
-89.49
-64.20
-32.95
-5.37
9.33
6.21
-12.90
-39.90
-63.71
-75.00
-70.01
-51.36
-25.61
0.43
22.74
40.18
52.59
59.29
59.40
53.32
44.16
36.90
36.02
43.01
55.17
67.03
72.84
68.68
53.88
31.19
5.99
-15.36
-27.48
-27.90
-17.76
-1.39
15.11
26.13
28.72
23.33
13.13
2.33
-5.70
-9.20
-8.16
-4.12
0.33
2.37
-0.24
-8.23
-20.34
-33.71
-45.17
-52.30
-53.90
-49.86
-40.74
-27.72
-12.71
1.51
11.66
15.16
11.46
2.94
-5.67
-9.41
-5.52
5.32
18.83
29.31
32.35
27.03
16.38
6.06
1.30
4.06
12.20
20.57
23.76
18.82
6.43
-9.98
-26.33
-39.74
-49.19
-55.31
-59.48
-63.24
-67.93
-74.11
-80.88
-85.53
-84.50
-75.19
-58.00
-36.63
-16.23
-0.37
10.94
20.94
33.23
48.71
64.21
74.25
74.17
62.99
43.85
22.17
3.01
-10.67
-17.94
-19.07
-14.56
-5.13
7.94
22.23
34.37
40.93
39.72
31.09
17.81
3.98
-7.18
-14.75
-20.05
-24.97
-30.07
-34.06
-34.91
-32.26
-28.38
-26.77
-29.47
-34.79
-37.82
-33.59
-20.96
-3.95
10.28
15.92
12.01
2.52
-6.94
-12.41
-12.71
-8.52
-0.37
12.37
30.08
50.96
70.45
82.91
85.11
78.65
68.93
61.54
58.97
59.45
58.81
53.68
43.62
31.68
22.22
18.03
17.81
17.81
14.30
5.87
-5.53
-16.49
-22.53
-20.09
-8.13
10.03
29.91
47.42
59.69
65.43
62.67
52.66
40.74
33.81
33.86
39.81
47.37
50.55
44.46
24.58
-6.76
-40.07
-64.38
-77.96
-83.75
-87.83
-97.11
-116.85
-152.86
-204.60
-263.32
-316.33
-358.45
-385.28
-394.95
-389.50
-342.69
-256.08
-162.92
-105.51
-73.00
-52.58
-31.24
-2.25
31.05
56.69
65.19
52.14
23.01
-9.42
-35.96
-44.69
-28.97
8.33
54.99
97.76
128.83
149.89
167.51
162.64
127.25
70.77
24.38
-13.68
-47.28
-80.96
-109.49
-126.96
-133.17
-125.43
-104.10
-73.78
-43.10
-16.62
5.20
24.09
41.13
54.97
69.83
87.84
106.40
118.58
120.30
113.16
100.80
86.86
74.33
72.49
87.10
117.08
155.99
198.17
244.79
296.13
348.72
394.51
430.33
452.05
456.01
442.89
419.17
401.10
400.02
418.23
401.70
320.56
188.06
45.37
-54.65
-119.89
-159.26
-179.11
-186.57
-182.66
-162.25
-124.38
-75.53
-28.15
2.20
10.00
-17.66
-76.20
-143.48
-192.45
-211.50
-205.59
-187.07
-168.80
-153.59
-141.01
-128.58
-115.20
-101.92
-92.22
-90.03
-97.95
-117.20
-143.09
-169.85
-191.09
-191.64
-163.42
-111.68
-52.62
-3.27
26.35
37.00
35.50
30.80
28.32
28.25
28.36
27.51
26.84
27.79
30.20
30.76
24.96
8.51
-20.04
-57.02
-94.38
-123.12
-137.31
-136.42
-124.36
-101.54
-75.79
-52.36
-32.69
-16.04
-1.71
9.80
17.17
19.51
17.43
12.28
7.14
5.01
7.74
15.00
24.56
33.06
37.10
34.61
24.54
9.25
-6.37
-15.81
-13.98
1.01
27.01
58.29
86.98
104.56
105.36
87.37
53.07
7.94
-40.43
-83.05
-111.37
-119.65
-107.25
-77.89
-38.16
5.94
49.70
88.98
119.42
137.29
139.49
123.90
91.40
43.32
-7.72
-43.57
-53.50
-39.60
-13.82
10.94
26.73
32.76
33.24
34.14
38.06
42.64
43.75
36.34
17.67
-11.68
-47.99
-87.18
-126.87
-162.68
-193.72
-208.37
-199.37
-168.25
-123.80
-75.50
-30.41
7.19
34.88
51.49
58.35
57.15
50.37
40.88
31.49
23.99
19.44
18.35
20.08
23.50
26.33
26.73
24.19
19.77
15.08
11.51
10.00
10.50
12.46
14.33
14.71
13.13
10.12
6.59
3.43
1.32
0.45
0.63
1.08
0.96
-0.12
-2.01
-4.32
-6.61
-8.52
-9.91
-10.84
-11.64
-12.67
-14.14
-16.05
-18.32
-20.85
-23.54
-26.32
-29.20
-32.13
-34.98
-37.55
-39.61
-40.89
-41.07
-39.99
-37.49
-33.68
-28.75
-23.08
-17.09
-11.36
-6.49
-2.81
-0.48
0.51
0.37
-0.47
-1.49
-2.03
-1.72
-0.31
2.38
6.41
11.64
17.79
24.48
30.60
36.25
41.29
45.43
48.66
50.97
52.43
53.04
52.73
51.60
49.64
47.66
44.78
40.81
35.71
29.72
23.05
15.97
9.01
2.56
-3.11
-7.90
-11.50
-13.86
-14.76
-14.30
-12.73
-10.10
-6.83
-3.36
-0.13
2.65
4.72
6.41
7.79
7.35
6.35
5.35
4.60
4.15
5.26
6.95
9.18
11.51
13.52
15.04
15.68
15.17
13.40
10.32
6.13
1.81
-2.41
-6.42
-9.99
-13.25
-16.42
-19.86
-24.20
-32.47
-43.40
-56.29
-70.71
-86.06
-101.73
-116.94
-129.90
-140.83
-149.10
-153.90
-155.43
-154.33
-151.38
-147.50
-143.61
-140.52
-139.23
-139.72
-141.79
-145.66
-151.28
-158.02
-164.70
-169.34
-169.21
-166.11
-159.74
-149.91
-137.14
-122.17
-105.57
-87.48
-67.57
-45.29
-20.47
7.26
37.32
68.29
98.66
127.32
153.84
178.53
202.10
225.42
249.95
276.85
306.42
337.64
367.67
392.06
405.97
405.94
391.29
364.92
331.76
296.84
263.41
232.23
202.10
171.38
139.25
106.31
74.29
44.85
18.86
-3.78
-23.77
-41.67
-57.46
-70.33
-79.16
-83.03
-81.79
-76.15
-67.36
-56.67
-44.95
-32.72
-20.43
-9.01
-0.06
4.47
3.02
-4.79
-17.69
-32.95
-47.15
-57.20
-61.24
-59.05
-51.75
-41.30
-29.73
-18.71
-9.45
-2.73
1.03
1.77
-0.03
-3.31
-6.57
-8.22
-7.07
-2.71
4.41
13.19
22.29
30.55
37.21
41.99
44.95
46.35
46.44
45.43
43.54
41.01
38.14
35.25
32.57
30.19
28.02
25.70
22.77
18.67
12.93
5.24
-4.43
-15.79
-28.23
-40.87
-52.69
-62.70
-70.13
-74.49
-75.68
-73.88
-69.47
-62.91
-54.74
-45.56
-36.07
-26.96
-18.84
-12.09
-6.95
-3.54
-2.06
-2.84
-6.30
-12.72
-22.00
-33.43
-45.75
-57.31
-66.40
-71.65
-72.28
-68.29
-60.43
-49.98
-38.46
-27.14
-16.81
-7.61
0.83
9.06
17.50
26.20
34.90
43.08
50.19
55.71
59.24
60.44
59.11
55.28
49.29
41.84
33.80
26.01
19.01
12.84
7.07
1.01
-6.02
-14.35
-23.89
-34.10
-44.29
-53.75
-61.96
-68.58
-73.25
-75.61
-75.20
-71.69
-65.03
-55.58
-44.07
-31.45
-18.68
-6.58
4.24
13.33
20.37
25.21
27.84
28.46
27.46
25.33
22.60
19.72
17.00
14.51
12.12
9.61
6.76
3.60
0.47
-1.97
-2.99
-2.01
1.08
5.88
11.56
17.19
22.02
25.65
28.08
29.52
30.22
30.37
30.05
29.30
28.17
26.74
25.04
23.03
20.53
17.30
13.14
8.09
2.41
-3.41
-8.83
-13.40
-16.91
-19.29
-20.66
-21.17
-20.99
-20.33
-19.33
-18.14
-16.81
-15.38
-13.90
-12.47
-11.27
-10.48
-10.23
-10.52
-11.29
-12.46
-14.05
-16.17
-18.97
-22.43
-26.34
-30.16
-33.18
-34.64
-33.95
-30.85
-25.56
-18.73
-11.27
-4.17
1.77
5.99
8.22
8.41
6.70
3.45
-0.71
-4.96
-8.41
-10.38
-10.54
-9.07
-6.41
-3.09
0.48
4.08
7.57
10.83
13.69
16.02
17.75
18.93
19.68
20.04
19.91
19.11
17.45
14.89
11.57
7.75
3.62
-0.70
-5.22
-9.89
-14.60
-19.04
-22.76
-25.27
-26.18
-25.31
-22.82
-19.15
-14.96
-10.95
-7.59
-4.93
-2.64
-0.12
3.06
6.92
10.97
14.41
16.45
16.71
15.34
12.82
9.80
6.77
4.04
1.73
-0.06
-1.21
-1.64
-1.37
-0.54
0.61
1.88
3.17
4.44
5.67
6.79
7.60
7.87
7.44
6.30
4.67
2.98
1.71
1.22
1.71
3.06
4.95
6.96
8.73
10.02
10.71
10.77
10.10
8.65
6.47
3.74
0.77
-2.00
-4.16
-5.35
-5.47
-4.64
-3.04
-0.82
1.89
5.01
8.51
12.42
16.77
21.31
25.58
29.28
32.39
35.36
38.93
43.98
51.17
60.60
71.35
81.73
90.23
95.96
98.91
99.64
98.73
96.48
92.78
86.78
77.56
64.92
49.29
31.42
11.28
-12.28
-40.58
-70.63
-96.31
-112.18
-116.13
-109.43
-94.64
-74.25
-49.67
-20.59
14.40
55.55
99.41
143.05
182.28
213.83
236.52
250.91
258.21
258.94
251.83
234.67
205.46
164.11
113.78
61.11
12.52
-27.93
-59.21
-82.99
-102.40
-121.60
-143.12
-167.17
-192.57
-218.28
-243.59
-267.92
-291.11
-313.69
-338.57
-366.92
-397.21
-426.51
-452.50
-474.20
-491.22
-502.45
-504.98
-497.04
-474.89
-435.27
-378.74
-311.11
-241.02
-175.47
-116.85
-45.77
41.12
132.70
211.81
267.05
296.44
304.99
300.85
291.58
282.10
270.92
256.22
238.06
218.35
199.47
183.50
171.84
164.91
162.00
159.28
154.24
146.64
137.78
129.21
122.01
116.60
112.76
109.87
105.81
99.57
91.28
81.32
69.51
55.08
38.01
18.63
-1.17
-19.35
-33.67
-42.54
-45.62
-43.73
-38.32
-30.81
-22.34
-13.78
-6.28
-0.68
2.71
4.28
4.86
5.27
6.09
7.42
9.06
10.65
11.87
12.62
13.08
13.54
14.16
14.90
15.39
14.97
12.97
8.92
2.59
-5.96
-15.63
-25.15
-32.99
-37.45
-37.21
-32.04
-23.21
-13.19
-4.67
0.75
3.11
3.87
4.87
7.10
10.19
12.82
13.89
13.19
11.54
10.07
9.48
9.71
10.09
9.71
7.89
4.47
-0.30
-5.84
-11.40
-16.23
-19.86
-22.34
-24.11
-25.52
-26.32
-25.47
-21.64
-14.15
-3.71
7.52
16.89
22.59
24.51
24.01
22.68
21.23
18.91
14.26
6.47
-3.65
-13.83
-21.59
-25.66
-26.43
-25.26
-23.26
-20.44
-15.98
-9.20
-0.59
8.06
14.30
16.28
13.47
6.63
-2.73
-13.05
-22.92
-31.25
-37.23
-40.49
-41.24
-40.19
-38.10
-35.36
-32.00
-28.02
-23.94
-20.89
-20.26
-22.78
-27.95
-33.99
-38.54
-39.53
-35.96
-28.10
-17.15
-4.87
6.92
16.61
23.13
26.22
26.58
25.53
24.38
23.67
22.85
20.63
15.82
8.17
-1.04
-9.26
-13.56
-11.95
-4.29
7.54
20.45
31.55
39.20
43.54
45.70
46.72
46.45
43.64
36.68
24.98
9.70
-6.36
-19.96
-28.83
-32.53
-32.06
-28.99
-24.59
-19.59
-14.43
-9.72
-6.22
-4.43
-4.28
-5.16
-6.20
-6.74
-6.48
-5.31
-3.07
0.38
5.04
10.43
15.74
20.06
22.70
23.21
21.35
17.06
10.82
3.94
-1.55
-3.57
-1.00
5.61
14.42
23.30
31.20
38.39
45.59
52.56
57.54
57.94
51.83
39.38
23.07
6.64
-6.60
-14.76
-17.64
-16.46
-13.28
-10.29
-9.27
-11.30
-16.30
-22.95
-28.68
-30.15
-24.13
-8.81
14.91
42.87
68.29
84.43
87.12
76.34
55.78
30.22
2.36
-28.74
-66.24
-112.19
-164.34
-215.71
-257.14
-281.31
-285.45
-271.41
-243.39
-205.28
-159.28
-106.25
-47.29
15.16
77.40
134.80
182.62
216.83
234.77
235.66
220.99
194.09
159.23
120.45
80.55
41.60
5.83
-23.89
-44.72
-55.25
-56.78
-53.11
-48.65
-45.91
-43.62
-37.43
-22.50
3.24
37.20
72.57
101.11
116.77
117.94
107.66
91.44
74.10
57.72
41.62
24.15
4.89
-14.49
-31.44
-44.41
-54.26
-63.52
-74.14
-85.25
-92.90
-92.11
-80.10
-58.50
-32.84
-9.98
5.33
12.31
13.58
12.84
12.44
12.13
9.74
2.90
-9.21
-25.16
-41.71
-55.26
-63.48
-66.09
-64.75
-61.73
-58.51
-54.86
-49.11
-39.46
-25.66
-9.84
3.99
11.71
11.14
3.29
-7.96
-17.59
-21.87
-20.05
-14.52
-9.45
-8.75
-14.40
-25.87
-40.92
-56.84
-71.61
-84.00
-93.11
-97.88
-97.29
-90.89
-79.39
-64.56
-48.37
-31.92
-14.95
3.64
24.51
46.72
67.61
83.66
92.01
91.86
84.86
74.52
65.03
59.99
61.37
69.07
81.02
93.64
102.99
106.01
101.42
89.88
73.42
54.42
34.70
15.29
-2.87
-18.30
-28.72
-31.81
-26.43
-13.66
3.30
20.24
33.68
42.36
47.43
51.44
56.67
63.80
71.64
78.30
82.55
84.69
86.11
87.87
89.07
86.27
74.92
51.71
16.92
-25.07
-67.32
-103.29
-129.16
-144.82
-152.36
-153.63
-148.39
-134.60
-110.74
-78.47
-43.42
-12.97
7.69
18.64
24.90
32.79
45.37
60.38
72.08
75.92
72.63
68.80
73.34
91.88
122.77
157.37
184.49
196.00
190.44
172.69
150.61
130.42
113.65
97.21
76.35
48.59
16.50
-12.92
-31.87
-36.68
-30.50
-21.73
-19.24
-27.31
-43.78
-62.45
-77.67
-87.98
-96.01
-105.05
-114.91
-120.53
-114.45
-91.68
-53.71
-9.06
29.98
52.23
51.62
28.91
-9.33
-53.30
-92.82
-120.33
-133.06
-133.51
-127.62
-121.73
-119.24
-119.46
-118.93
-114.73
-107.34
-101.10
-101.81
-113.00
-133.13
-155.55
-171.04
-171.65
-153.66
-118.92
-73.69
-26.22
15.96
47.85
67.45
74.99
71.69
58.91
38.28
12.55
-13.54
-33.93
-43.30
-39.82
-26.33
-9.22
4.90
12.51
14.57
15.33
19.27
28.52
42.28
58.01
73.39
87.45
100.32
112.05
121.71
127.49
127.93
123.13
115.06
106.45
99.35
94.17
89.91
85.19
79.21
72.11
64.68
57.49
50.59
43.56
36.02
27.97
19.90
12.44
6.02
0.80
-3.34
-6.57
-9.06
-10.98
-12.59
-14.22
-16.19
-18.55
-20.95
-22.64
-22.74
-20.57
-16.00
-9.68
-2.83
3.14
7.05
8.23
6.52
2.25
-3.79
-10.31
-15.58
-17.79
-15.66
-9.26
-0.59
6.78
9.00
3.63
-9.22
-26.93
-45.64
-62.00
-74.58
-84.08
-92.43
-101.26
-110.90
-120.27
-127.63
-131.55
-131.43
-127.21
-118.63
-104.84
-84.81
-58.19
-26.45
6.64
35.74
56.00
65.30
65.47
61.40
58.43
59.52
64.09
68.74
69.55
64.49
54.43
42.60
32.78
27.51
27.44
31.98
40.13
50.95
63.27
75.19
83.96
86.71
81.50
68.28
48.98
27.01
6.33
-9.92
-20.23
-24.98
-25.83
-24.84
-23.75
-23.51
-24.31
-25.63
-26.55
-26.00
-23.08
-17.28
-8.81
1.31
11.43
19.85
25.71
29.56
33.15
38.57
47.09
58.24
69.97
79.57
84.91
85.34
81.59
75.04
66.69
56.79
45.12
31.86
18.00
5.06
-5.66
-13.63
-19.02
-22.33
-23.69
-22.93
-20.06
-15.71
-11.10
-7.72
-6.82
-9.17
-14.94
-23.66
-34.20
-44.80
-53.34
-57.87
-57.37
-52.22
-44.12
-35.35
-27.91
-22.94
-20.74
-21.26
-24.41
-29.84
-36.56
-42.69
-45.99
-44.87
-39.07
-29.70
-18.55
-7.40
2.66
11.42
19.26
26.92
35.05
43.83
52.70
60.17
64.18
62.92
55.74
43.68
29.31
15.65
5.06
-1.58
-4.91
-6.35
-7.11
-7.58
-7.24
-5.04
-0.11
7.63
17.15
26.53
33.62
36.84
35.73
30.85
23.20
13.50
2.15
-10.29
-22.54
-32.76
-39.55
-43.13
-45.41
-48.99
-55.35
-63.45
-69.99
-71.16
-64.86
-51.99
-35.97
-20.83
-9.19
-1.38
4.06
8.83
13.69
18.12
20.94
21.23
19.07
15.52
12.11
10.03
9.46
9.45
8.41
5.00
-1.03
-8.54
-15.50
-20.01
-21.20
-19.74
-17.25
-15.39
-14.83
-15.04
-14.70
-12.57
-8.29
-2.62
2.84
6.34
6.73
3.99
-0.75
-5.61
-8.65
-8.58
-5.22
0.43
6.58
11.38
13.49
12.53
9.20
5.05
1.86
0.94
2.74
6.65
11.49
16.00
19.40
21.58
22.87
23.51
23.49
22.56
20.55
17.60
14.22
11.10
8.81
7.49
6.86
6.33
5.29
3.30
0.32
-3.28
-6.86
-9.68
-11.21
-11.36
-10.55
-9.63
-9.55
-10.92
-13.80
-17.66
-21.54
-24.38
-25.50
-24.92
-23.54
-22.92
-24.59
-29.05
-35.09
-39.88
-40.01
-33.21
-19.56
-1.80
15.76
29.01
35.57
35.33
29.86
21.42
12.03
3.30
-3.60
-7.81
-8.91
-7.13
-3.45
0.67
3.75
4.78
3.49
0.24
-4.11
-8.47
-11.77
-13.24
-12.70
-10.63
-8.02
-6.02
-5.39
-6.29
-8.37
-11.12
-14.21
-17.65
-21.58
-25.90
-30.04
-32.99
-33.59
-31.23
-26.18
-19.61
-13.05
-7.47
-2.68
2.64
10.07
20.46
33.27
46.74
58.62
67.02
71.04
70.65
66.37
58.87
48.87
37.38
25.84
15.91
9.00
5.66
5.24
6.15
6.54
5.05
1.28
-4.11
-9.59
-13.35
-13.90
-10.71
-4.54
2.86
9.47
13.90
15.99
16.67
17.25
18.57
20.45
21.87
21.56
18.68
13.13
5.44
-3.58
-13.02
-22.04
-29.73
-35.20
-37.65
-36.51
-31.61
-23.28
-12.49
-0.84
9.59
16.85
19.87
19.02
15.89
12.50
10.22
9.13
8.29
6.66
3.93
0.84
-1.44
-2.18
-1.64
-0.80
-0.59
-1.35
-2.74
-4.22
-5.54
-6.85
-8.33
-9.82
-10.83
-10.86
-9.85
-8.34
-7.13
-6.73
-7.00
-7.28
-6.94
-5.87
-4.55
-3.64
-3.44
-3.72
-3.89
-3.61
-3.06
-2.83
-3.46
-4.86
-6.43
-7.39
-7.43
-6.82
-6.11
-5.67
-5.27
-4.26
-2.07
1.30
5.20
8.70
11.08
12.15
12.17
11.58
10.61
9.24
7.27
4.57
1.27
-2.32
-5.97
-9.60
-13.28
-17.01
-20.65
-23.82
-26.03
-26.80
-25.76
-22.91
-18.70
-14.13
-10.58
-9.31
-10.85
-14.60
-18.98
-22.11
-22.75
-20.85
-17.32
-13.27
-9.14
-4.49
1.38
8.49
15.68
21.04
23.23
22.66
21.45
22.41
27.26
35.50
44.65
51.55
53.97
51.55
45.60
38.03
30.28
22.67
14.71
5.79
-4.11
-14.24
-23.44
-30.71
-35.69
-38.60
-40.01
-40.43
-40.12
-39.11
-37.31
-34.77
-31.74
-28.48
-25.03
-21.20
-16.73
-11.70
-6.75
-2.95
-1.51
-3.27
-8.23
-15.41
-23.01
-28.98
-31.65
-30.42
-25.83
-19.23
-12.04
-5.26
0.52
4.77
6.71
5.46
0.49
-7.77
-17.77
-27.16
-33.70
-35.91
-33.45
-26.89
-17.23
-5.50
7.35
20.36
32.46
42.44
49.26
52.24
51.36
47.29
41.39
35.35
30.67
28.17
27.68
28.15
28.22
26.88
23.77
19.22
14.00
9.05
5.28
3.34
3.61
5.87
9.37
13.00
15.68
16.81
16.48
15.31
14.07
13.32
13.17
13.47
13.96
14.49
15.01
15.40
15.45
14.93
13.77
12.19
10.60
9.49
9.11
9.34
9.65
9.29
7.61
4.47
0.38
-3.60
-6.37
-7.39
-7.00
-6.25
-6.14
-7.06
-8.49
-9.39
-8.98
-7.33
-5.27
-3.88
-3.74
-4.65
-5.90
-6.91
-7.60
-8.33
-9.40
-10.59
-11.20
-10.45
-8.09
-4.65
-1.21
1.22
2.30
2.50
2.79
4.00
6.39
9.58
12.92
15.92
18.43
20.49
21.96
22.42
21.15
17.71
12.29
5.88
-0.08
-4.25
-6.02
-5.68
-4.14
-2.44
-1.25
-0.78
-0.98
-1.85
-3.58
-6.41
-10.35
-14.81
-18.77
-21.09
-21.12
-18.94
-15.30
-11.19
-7.40
-4.32
-2.04
-0.60
-0.14
-0.80
-2.55
-5.00
-7.52
-9.54
-10.86
-11.70
-12.54
-13.77
-15.41
-16.95
-17.50
-16.09
-12.10
-5.60
2.56
10.94
18.06
22.81
24.69
23.64
19.91
13.96
6.54
-1.30
-8.13
-12.57
-13.69
-11.40
-6.61
-0.83
4.30
7.61
8.65
7.64
5.27
2.48
0.18
-0.90
-0.48
1.18
3.40
5.36
6.40
6.22
4.86
2.53
-0.51
-3.99
-7.65
-11.10
-13.88
-15.61
-16.13
-15.56
-14.09
-11.85
-8.93
-5.56
-2.32
-0.26
-0.60
-4.05
-10.35
-18.05
-24.89
-28.57
-27.72
-22.48
-14.53
-6.45
-0.79
0.99
-0.85
-4.19
-5.64
-1.66
9.99
29.01
52.25
74.55
90.47
96.22
90.87
76.50
57.13
37.09
19.74
6.90
-1.08
-4.96
-6.18
-6.28
-6.42
-6.58
-5.38
-0.63
9.23
23.78
40.15
54.03
61.69
61.81
55.89
47.01
37.97
29.74
21.64
12.57
2.51
-6.89
-13.12
-14.07
-9.14
0.44
12.16
23.15
31.07
34.63
33.63
28.85
21.45
12.44
2.29
-9.00
-21.23
-33.45
-43.94
-51.20
-55.23
-58.38
-64.80
-78.29
-99.66
-125.12
-146.86
-155.86
-145.50
-114.34
-66.81
-11.65
40.86
81.93
106.34
112.97
104.28
85.20
61.83
40.15
25.01
19.05
22.04
30.66
39.43
42.65
36.69
21.72
1.51
-18.50
-34.30
-45.74
-56.58
-72.04
-95.04
-123.50
-150.10
-165.07
-160.47
-133.76
-89.17
-36.16
14.10
52.69
75.37
82.75
78.46
66.47
49.29
27.75
2.36
-24.82
-49.58
-66.43
-71.00
-62.31
-43.69
-21.47
-2.29
9.70
14.28
14.62
15.36
20.17
30.04
42.80
53.96
58.76
54.21
40.41
20.35
-1.53
-21.22
-36.31
-46.31
-51.89
-54.06
-53.82
-52.19
-50.44
-49.89
-51.20
-53.75
-55.52
-54.22
-48.68
-39.84
-30.45
-23.61
-21.10
-22.25
-24.08
-22.33
-13.15
5.45
32.83
65.75
99.34
128.31
148.37
157.04
154.00
140.71
119.81
94.43
67.87
43.25
23.22
9.61
3.00
2.57
6.45
12.19
17.29
19.69
18.14
12.55
4.08
-5.11
-12.54
-16.27
-15.64
-11.49
-5.82
-1.13
0.52
-2.00
-8.45
-17.37
-26.48
-33.38
-36.30
-34.49
-28.38
-19.16
-8.29
2.90
13.31
22.08
28.59
32.66
34.84
36.24
38.00
40.65
43.77
46.33
47.47
46.89
44.82
41.53
36.83
30.23
21.38
10.66
-0.99
-12.51
-23.18
-32.50
-39.67
-43.40
-42.35
-36.34
-27.17
-18.35
-13.36
-13.46
-16.44
-17.45
-11.49
3.90
27.19
53.27
75.33
87.48
86.91
74.91
56.37
38.11
26.68
26.16
36.81
54.86
74.66
91.21
101.82
106.12
104.98
99.27
89.36
75.25
55.89
30.35
-1.66
-39.65
-82.65
-129.32
-177.48
-223.45
-262.01
-288.79
-300.30
-294.28
-270.45
-231.97
-185.98
-142.24
-109.86
-93.73
-94.66
-108.50
-127.87
-145.41
-157.79
-167.48
-181.08
-205.65
-229.06
-237.50
-222.03
-184.69
-135.30
-84.15
-38.07
0.33
32.09
58.07
81.66
102.69
118.86
128.37
131.48
131.20
133.07
143.54
164.80
193.61
220.47
233.02
221.41
183.22
125.37
62.44
11.13
-16.27
-17.64
-1.68
17.28
25.87
17.32
-6.52
-36.94
-63.39
-78.35
-80.44
-74.34
-66.68
-61.69
-58.78
-53.71
-41.90
-22.01
2.31
23.27
31.64
21.02
-9.04
-52.28
-97.66
-133.09
-149.54
-143.82
-118.35
-79.24
-33.03
14.91
60.37
98.74
124.11
130.48
114.64
79.05
32.28
-13.64
-48.12
-66.05
-68.83
-62.26
-52.59
-43.10
-33.36
-20.44
-1.43
24.73
56.54
90.28
121.16
144.69
158.12
160.93
154.47
140.89
122.25
100.44
77.72
57.12
42.39
36.90
42.01
56.12
75.03
93.51
107.38
114.86
116.52
114.27
109.75
103.58
95.56
85.48
73.92
62.75
54.42
50.98
52.82
58.21
63.84
66.05
62.12
51.05
33.62
11.93
-11.19
-32.72
-49.86
-60.61
-64.30
-61.79
-55.13
-46.43
-36.99
-27.13
-16.72
-6.09
3.55
10.56
13.92
13.98
12.88
13.07
15.84
20.32
24.05
24.37
19.76
10.40
-2.53
-16.61
-29.45
-38.89
-43.11
-40.86
-32.12
-19.11
-6.47
-0.01
-2.55
-13.15
-27.18
-38.99
-44.58
-42.91
-35.46
-24.81
-13.55
-1.69
11.23
25.17
39.49
54.36
72.50
98.79
137.92
178.98
208.02
213.15
192.74
155.26
112.29
72.59
39.97
13.97
-7.83
-25.41
-36.84
-39.92
-34.67
-24.50
-15.40
-14.01
-24.88
-48.80
-80.93
-113.53
-139.37
-155.00
-160.37
-157.77
-150.08
-139.52
-127.30
-113.13
-96.74
-78.67
-60.45
-43.91
-30.39
-20.20
-12.89
-7.69
-3.50
0.39
4.28
7.99
11.15
13.37
14.62
15.19
15.48
15.91
16.64
17.40
17.63
16.66
14.00
9.54
3.55
-3.43
-10.84
-18.21
-25.24
-31.70
-37.36
-42.09
-45.83
-48.66
-50.66
-51.85
-52.10
-51.15
-48.77
-44.83
-39.40
-32.76
-25.34
-17.59
-9.85
-2.27
5.25
12.91
20.87
28.97
36.66
43.06
47.28
48.81
47.82
45.20
42.25
40.19
39.72
40.85
43.03
45.40
47.18
47.78
46.81
43.89
38.59
30.51
19.49
5.95
-9.08
-24.21
-38.06
-49.66
-58.60
-64.84
-68.39
-69.18
-67.02
-61.96
-54.47
-45.56
-36.54
-28.60
-22.45
-18.14
-15.29
-13.34
-11.87
-10.72
-9.82
-9.05
-8.07
-6.38
-3.52
0.54
5.27
9.66
12.66
13.62
12.60
10.36
7.84
5.69
3.93
2.09
-0.36
-3.44
-6.54
-8.65
-8.98
-7.47
-4.94
-2.68
-1.78
-2.58
-4.57
-6.74
-8.10
-8.24
-7.36
-6.09
-4.97
-4.22
-3.56
-2.42
-0.27
3.16
7.77
13.26
19.26
25.41
31.36
36.65
40.60
42.50
41.83
38.44
32.69
25.28
17.06
8.71
0.71
-6.66
-13.24
-18.87
-23.34
-26.47
-28.04
-27.95
-26.25
-23.28
-19.58
-15.76
-12.21
-9.00
-5.90
-2.68
0.67
3.80
6.18
7.42
7.53
6.93
6.13
5.40
4.62
3.44
1.62
-0.72
-3.07
-4.88
-5.90
-6.36
-6.79
-7.66
-9.03
-10.49
-11.37
-11.15
-9.75
-7.56
-5.18
-3.05
-1.27
0.37
2.15
4.19
6.25
7.86
8.53
8.02
6.45
4.30
2.18
0.61
-0.16
-0.21
0.27
1.00
1.79
2.49
2.95
2.96
2.33
1.01
-0.78
-2.53
-3.70
-4.00
-3.54
-2.76
-2.16
-2.00
-2.11
-2.05
-1.34
0.29
2.71
5.51
8.09
9.85
10.25
8.90
5.64
0.68
-5.32
-11.35
-16.24
-19.11
-19.53
-17.78
-14.59
-10.86
-7.31
-4.25
-1.63
0.72
2.86
4.54
5.31
4.79
2.92
0.08
-2.97
-5.44
-6.80
-7.01
-6.39
-5.46
-4.55
-3.75
-2.90
-1.82
-0.39
1.37
3.38
5.59
7.93
10.32
12.51
14.16
14.91
14.59
13.26
11.19
8.72
6.24
4.03
2.33
1.37
1.38
2.50
4.63
7.39
10.14
12.15
12.74
11.53
8.53
4.12
-0.98
-5.90
-9.71
-11.62
-11.22
-8.53
-4.14
1.08
6.23
10.71
14.30
17.02
18.76
19.03
17.01
11.98
3.86
-6.52
-17.48
-27.02
-33.54
-36.31
-35.46
-31.68
-25.76
-18.31
-9.77
-0.50
8.94
17.81
25.27
30.59
33.26
33.14
30.43
25.73
19.91
14.01
8.96
5.36
3.27
2.25
1.61
0.68
-0.87
-3.03
-5.56
-8.22
-10.85
-13.37
-15.63
-17.41
-18.43
-18.51
-17.71
-16.30
-14.61
-12.91
-11.25
-9.56
-7.75
-5.75
-3.51
-1.09
1.53
4.53
8.15
12.51
17.43
22.43
26.96
30.77
33.57
35.26
35.77
35.00
32.86
29.30
24.51
18.96
13.45
8.17
2.97
-2.46
-8.16
-13.74
-18.48
-21.76
-23.51
-24.15
-25.38
-29.05
-36.57
-48.45
-64.58
-84.94
-110.08
-141.30
-173.69
-200.57
-214.87
-212.73
-195.03
-165.72
-129.00
-87.79
-43.76
2.15
48.04
90.75
126.62
153.13
168.41
172.63
168.48
159.94
151.13
144.28
139.65
136.00
131.86
126.66
119.27
110.76
102.50
95.38
88.91
81.64
71.90
58.73
42.17
23.37
4.47
-12.85
-27.47
-39.10
-47.93
-54.22
-57.76
-58.44
-56.06
-50.26
-41.73
-31.68
-21.41
-11.82
-3.27
4.73
11.85
17.53
21.50
22.80
20.55
14.46
5.01
-6.76
-18.65
-29.66
-38.86
-45.18
-49.23
-52.86
-58.34
-67.59
-81.79
-100.33
-123.99
-153.51
-181.26
-198.70
-199.32
-181.69
-149.30
-115.49
-82.00
-49.76
-19.89
7.16
32.32
54.87
74.19
90.02
102.42
112.87
121.39
127.92
132.68
135.08
134.20
129.80
122.81
115.03
109.11
105.78
104.53
104.27
102.83
97.39
85.22
64.42
34.79
-0.92
-38.22
-71.32
-94.80
-106.06
-106.22
-99.02
-89.07
-79.93
-73.25
-69.96
-71.06
-78.03
-92.26
-113.58
-138.99
-163.00
-179.45
-183.93
-175.61
-157.11
-132.74
-106.28
-79.44
-51.89
-22.65
8.24
38.89
65.90
85.75
96.48
98.55
94.63
88.26
82.15
77.39
73.69
70.50
67.93
66.88
68.00
70.76
73.13
72.45
66.91
56.55
43.35
30.31
20.23
14.68
13.62
15.66
18.68
20.52
19.70
15.93
10.37
5.23
2.76
4.13
8.83
14.91
20.05
22.60
22.27
19.85
16.42
12.62
8.50
3.84
-1.24
-5.93
-9.03
-9.66
-7.92
-5.03
-2.72
-2.23
-3.72
-6.13
-7.83
-7.44
-4.52
0.33
5.88
10.88
14.61
16.89
17.87
17.66
16.31
13.80
10.35
6.38
2.38
-1.25
-4.33
-6.74
-8.33
-8.85
-8.17
-6.60
-5.10
-4.99
-7.19
-11.53
-16.50
-19.92
-19.99
-16.36
-10.31
-4.17
-0.23
0.22
-2.75
-8.01
-13.95
-19.08
-22.29
-22.95
-20.87
-16.25
-9.65
-2.02
5.45
11.68
15.92
18.08
18.63
18.39
18.03
17.70
17.06
15.72
13.85
12.22
11.83
13.05
15.18
16.62
15.79
12.26
7.20
2.83
1.12
2.60
6.00
9.05
9.88
8.03
4.59
1.29
-0.74
-1.64
-2.60
-4.93
-9.08
-14.22
-18.62
-20.61
-19.47
-15.71
-10.63
-5.49
-0.88
3.36
7.60
11.79
15.23
16.85
16.04
13.18
9.54
6.70
5.59
5.92
6.46
5.86
3.55
0.11
-3.12
-4.80
-4.33
-2.08
0.90
3.37
4.44
3.65
1.02
-3.12
-8.22
-13.63
-18.84
-23.72
-28.68
-34.56
-42.01
-50.89
-60.05
-67.75
-72.48
-73.48
-70.78
-64.77
-55.68
-43.55
-28.66
-11.96
5.08
21.20
36.08
50.22
63.71
75.30
82.73
84.08
79.04
69.61
59.28
51.32
46.98
44.48
40.73
34.33
27.14
23.40
27.09
39.83
60.34
85.67
111.85
135.35
154.16
167.33
173.60
171.35
160.50
144.29
129.02
119.73
116.59
114.32
104.14
77.30
29.18
-38.04
-116.55
-187.81
-232.63
-244.41
-231.30
-206.80
-180.51
-155.63
-131.40
-106.44
-80.69
-56.46
-37.57
-25.68
-19.23
-14.84
-9.60
-2.17
7.28
17.20
26.16
31.56
32.28
28.84
22.24
12.96
0.97
-13.31
-28.36
-42.30
-55.12
-67.11
-79.07
-91.69
-104.92
-117.26
-126.41
-131.22
-127.27
-117.19
-105.42
-94.53
-83.67
-69.87
-51.67
-32.05
-17.82
-15.23
-25.77
-42.33
-52.45
-45.39
-18.54
20.63
58.70
83.61
90.76
83.80
72.36
66.13
69.77
81.10
92.61
95.79
85.50
62.98
34.79
10.16
-3.87
-5.88
-0.26
5.88
7.18
3.20
-2.20
-3.99
0.73
10.82
21.59
27.17
23.37
9.61
-10.58
-31.03
-45.04
-48.18
-40.28
-25.26
-9.37
1.52
4.37
-0.42
-10.01
-20.69
-28.68
-30.55
-23.36
-5.50
21.67
52.76
79.39
93.67
92.10
77.69
58.28
42.62
36.00
38.25
44.69
49.14
46.90
36.73
21.23
5.46
-4.94
-6.49
0.49
11.70
20.56
21.61
13.47
-0.35
-13.49
-20.05
-17.86
-9.62
-0.83
3.16
-0.58
-12.10
-29.83
-51.89
-75.62
-97.41
-112.73
-117.41
-109.64
-92.20
-71.77
-56.94
-53.73
-60.69
-70.04
-72.72
-63.88
-45.70
-26.28
-13.52
-11.42
-17.98
-25.11
-25.15
-16.92
-6.48
-2.43
-10.57
-28.27
-47.48
-59.08
-54.49
-29.96
11.75
63.52
118.13
170.07
218.53
263.59
289.00
281.31
240.54
180.42
116.84
67.85
32.38
9.50
-1.69
-4.10
-4.75
-10.94
-30.69
-69.69
-127.30
-194.92
-256.60
-297.09
-307.28
-284.09
-230.82
-156.49
-73.80
4.03
66.93
110.44
134.25
141.96
141.90
145.11
161.13
194.36
231.52
255.83
255.55
230.39
189.51
144.12
102.17
66.87
38.15
14.91
-1.97
-10.84
-11.66
-7.13
-1.72
0.15
-4.03
-14.23
-28.04
-40.51
-46.07
-43.13
-34.12
-24.93
-22.79
-33.11
-57.02
-90.16
-123.05
-144.97
-148.46
-132.37
-102.17
-67.17
-36.42
-15.71
-6.60
-6.89
-12.64
-20.01
-26.64
-30.79
-32.40
-33.34
-36.64
-45.03
-58.72
-74.70
-87.76
-92.86
-87.47
-72.96
-53.31
-32.82
-14.54
0.25
11.46
19.30
24.23
27.45
30.46
34.63
40.55
47.64
54.54
59.84
62.62
62.52
59.54
53.77
45.71
36.56
28.09
22.07
19.52
20.15
22.54
24.75
24.90
21.99
16.21
8.88
1.96
-2.80
-4.89
-5.35
-6.27
-9.58
-15.74
-23.38
-30.09
-33.89
-34.26
-32.27
-29.65
-27.55
-25.83
-23.23
-18.21
-9.83
1.65
14.75
27.15
36.38
40.53
38.94
32.53
23.39
13.89
5.68
-1.02
-7.07
-13.57
-20.79
-27.79
-32.70
-33.78
-30.26
-22.82
-13.17
-3.18
5.82
13.39
19.68
24.83
28.56
30.35
29.81
27.14
23.24
19.01
14.82
10.18
4.20
-3.68
-12.92
-21.72
-27.70
-28.76
-24.11
-14.56
-2.17
10.53
21.43
29.42
34.35
36.69
36.99
35.68
33.16
30.02
26.99
24.66
23.12
21.85
20.07
17.39
14.17
11.24
9.17
7.53
5.03
0.36
-6.90
-15.82
-24.67
-32.01
-37.41
-41.29
-44.12
-45.63
-44.74
-40.34
-32.26
-21.64
-10.60
-1.21
5.31
8.74
9.47
7.94
4.46
-0.50
-5.95
-10.43
-12.54
-11.74
-8.83
-5.67
-4.17
-5.28
-8.48
-12.21
-14.89
-15.97
-16.20
-17.08
-19.71
-23.93
-28.22
-30.62
-29.88
-26.24
-21.36
-17.26
-15.17
-14.92
-15.16
-14.31
-11.49
-6.89
-1.49
3.63
7.79
10.84
12.85
13.80
13.58
12.27
10.37
8.67
7.82
7.87
8.16
7.80
6.30
3.83
1.17
-0.90
-2.11
-2.95
-4.19
-6.32
-9.12
-11.62
-12.69
-11.52
-8.10
-3.21
2.02
6.64
10.35
13.55
17.10
21.83
28.02
35.03
41.40
45.39
45.76
42.30
35.82
27.83
20.15
14.34
11.37
11.35
13.46
16.20
17.98
17.71
15.18
11.22
7.00
3.43
0.80
-0.97
-1.78
-1.29
0.72
3.85
7.22
9.82
11.20
11.82
12.71
14.49
16.31
15.38
7.77
-9.29
-35.84
-68.72
-102.61
-131.76
-151.56
-159.79
-156.78
-144.63
-125.22
-99.58
-67.88
-30.53
11.04
54.59
97.58
137.94
170.42
189.77
193.85
185.74
170.97
153.46
134.15
112.21
86.72
58.01
29.83
4.56
-15.30
-28.47
-35.57
-38.64
-40.24
-42.65
-47.38
-54.45
-62.06
-68.44
-72.69
-74.92
-75.65
-75.21
-73.53
-70.30
-64.99
-57.40
-47.80
-37.13
-26.69
-17.53
-10.02
-3.94
1.30
6.37
