1530061602.00
64.000000
-0.00
-0.00
-0.00
-0.00
-0.00
-0.00
-0.00
-0.00
-0.00
-0.00
0.00
0.01
0.01
-0.00
-0.03
-0.05
-0.05
0.00
0.13
0.36
0.66
1.01
1.37
1.72
2.06
2.40
2.79
3.24
3.80
4.42
5.06
5.67
6.21
6.69
7.15
7.68
8.30
9.13
10.09
11.07
11.94
12.63
13.17
13.70
14.43
15.53
17.26
19.47
21.92
24.31
26.46
28.39
30.39
32.87
36.17
40.71
46.17
52.08
57.82
62.98
67.53
71.90
76.74
82.63
90.22
99.11
108.57
117.69
125.74
132.52
138.48
144.90
150.60
158.11
168.35
181.59
196.58
210.07
217.29
213.21
194.33
160.01
113.19
58.29
0.01
-58.48
-116.17
-173.54
-231.36
-289.56
-346.92
-401.19
-450.61
-493.90
-530.48
-559.92
-581.58
-594.54
-597.79
-590.82
-573.44
-545.85
-507.81
-458.49
-396.98
-323.35
-239.71
-150.47
-61.58
21.19
93.51
153.39
200.84
236.91
262.81
279.54
288.06
289.66
286.13
279.36
270.88
261.50
251.22
239.58
226.15
210.96
194.65
178.27
162.83
149.00
136.82
125.86
115.40
104.85
94.00
83.06
72.52
62.91
54.57
47.51
41.44
35.91
30.54
25.05
19.40
13.81
8.52
3.83
0.04
-2.70
-4.40
-5.32
-5.81
-6.24
-6.80
-7.48
-8.14
-8.59
-8.73
-8.66
-8.52
-8.45
-8.48
-8.50
-8.37
-7.99
-7.34
-6.54
-5.80
-5.30
-5.10
-5.16
-5.30
-5.34
-5.16
-4.76
-4.23
-3.69
-3.21
-2.80
-2.42
-2.07
-1.75
-1.52
-1.45
-1.53
-1.73
-1.95
-2.10
-2.12
-2.03
-1.90
-1.81
-1.80
-1.85
-1.90
-1.87
-1.73
-1.52
-1.30
-1.14
-1.07
-1.04
-0.99
-0.90
-0.79
-0.73
-0.77
-0.89
-1.01
-1.03
-0.88
-0.56
-0.14
0.26
0.57
0.71
0.72
0.67
0.63
0.68
0.87
1.20
1.61
2.05
2.45
2.79
3.11
3.49
3.96
4.49
4.95
5.14
4.95
4.37
3.49
2.49
1.51
0.56
-0.43
-1.48
-2.56
-3.56
-4.36
-4.89
-5.19
-5.35
-5.43
-5.43
-5.32
-5.06
-4.71
-4.37
-4.15
-4.08
-4.12
-4.13
-3.99
-3.68
-3.23
-2.77
-2.38
-2.09
-1.90
-1.78
-1.70
-1.68
-1.71
-1.77
-1.81
-1.76
-1.59
-1.35
-1.07
-0.82
-0.58
-0.34
-0.09
0.17
0.36
0.46
0.45
0.38
0.32
0.33
0.35
0.27
0.01
-0.44
-0.97
-1.34
-1.38
-0.99
-0.28
0.51
1.13
1.38
1.24
0.79
0.25
-0.23
-0.51
-0.59
-0.47
-0.26
-0.06
0.04
0.00
-0.20
-0.53
-0.93
-1.30
-1.55
-1.65
-1.58
-1.42
-1.27
-1.23
-1.36
-1.65
-2.02
-2.35
-2.59
-2.68
-2.64
-2.46
-2.14
-1.67
-1.09
-0.47
0.07
0.37
0.37
0.08
-0.39
-0.90
-1.30
-1.52
-1.56
-1.45
-1.25
-1.02
-0.77
-0.52
-0.25
0.03
0.31
0.57
0.80
1.03
1.28
1.62
2.06
2.59
3.09
3.45
3.56
3.40
3.07
2.71
2.47
2.42
2.51
2.61
2.58
2.34
1.93
1.45
0.99
0.63
0.36
0.18
0.12
0.23
0.60
1.21
1.96
2.67
3.11
3.16
2.84
2.28
1.66
1.16
0.84
0.68
0.60
0.52
0.39
0.22
0.05
-0.07
-0.11
-0.09
-0.04
-0.00
-0.00
-0.05
-0.12
-0.17
-0.19
-0.19
-0.18
-0.22
-0.33
-0.54
-0.81
-1.09
-1.35
-1.55
-1.73
-1.90
-2.11
-2.33
-2.49
-2.49
-2.24
-1.73
-1.04
-0.32
0.25
0.54
0.51
0.26
-0.10
-0.42
-0.61
-0.66
-0.58
-0.44
-0.27
-0.09
0.06
0.16
0.19
0.17
0.15
0.18
0.27
0.39
0.48
0.51
0.47
0.41
0.34
0.29
0.22
0.10
-0.10
-0.36
-0.63
-0.89
-1.08
-1.19
-1.20
-1.13
-0.99
-0.83
-0.65
-0.46
-0.25
0.01
0.31
0.63
0.95
1.24
1.50
1.74
1.94
2.09
2.15
2.10
1.92
1.66
1.35
1.05
0.80
0.62
0.50
0.44
0.43
0.48
0.61
0.80
1.02
1.22
1.30
1.23
1.01
0.72
0.43
0.20
0.04
-0.06
-0.11
-0.11
-0.03
0.11
0.24
0.24
0.03
-0.43
-1.05
-1.63
-2.01
-2.06
-1.78
-1.28
-0.68
-0.10
0.39
0.75
0.94
0.97
0.87
0.73
0.64
0.65
0.76
0.87
0.89
0.79
0.61
0.44
0.36
0.38
0.43
0.43
0.29
0.00
-0.34
-0.64
-0.81
-0.84
-0.77
-0.65
-0.54
-0.48
-0.47
-0.49
-0.54
-0.64
-0.79
-1.02
-1.29
-1.54
-1.73
-1.80
-1.77
-1.65
-1.47
-1.23
-0.91
-0.49
-0.05
0.34
0.56
0.57
0.41
0.21
0.10
0.14
0.29
0.46
0.55
0.54
0.47
0.44
0.48
0.54
0.52
0.35
0.02
-0.38
-0.73
-0.89
-0.82
-0.59
-0.34
-0.23
-0.33
-0.61
-0.99
-1.35
-1.62
-1.77
-1.80
-1.73
-1.58
-1.37
-1.15
-0.97
-0.88
-0.89
-0.91
-0.86
-0.64
-0.25
0.25
0.72
1.08
1.29
1.42
1.55
1.71
1.86
1.91
1.75
1.38
0.86
0.32
-0.10
-0.37
-0.50
-0.57
-0.59
-0.56
-0.40
-0.11
0.28
0.64
0.88
0.91
0.76
0.53
0.29
0.13
0.04
-0.00
-0.00
0.01
0.05
0.09
0.15
0.22
0.29
0.37
0.44
0.46
0.41
0.29
0.09
-0.16
-0.40
-0.63
-0.79
-0.88
-0.84
-0.69
-0.44
-0.17
0.02
0.06
-0.05
-0.25
-0.48
-0.68
-0.86
-1.04
-1.20
-1.34
-1.38
-1.31
-1.15
-0.94
-0.75
-0.63
-0.55
-0.46
-0.35
-0.21
-0.12
-0.13
-0.30
-0.58
-0.89
-1.10
-1.15
-1.04
-0.85
-0.68
-0.58
-0.54
-0.47
-0.31
-0.03
0.35
0.75
1.15
1.56
2.03
2.56
3.06
3.39
3.39
2.99
2.25
1.33
0.42
-0.33
-0.85
-1.13
-1.25
-1.31
-1.36
-1.46
-1.59
-1.71
-1.77
-1.75
-1.65
-1.50
-1.33
-1.16
-1.02
-0.96
-1.08
-1.49
-2.22
-3.20
-4.22
-4.99
-5.29
-5.04
-4.34
-3.46
-2.66
-2.14
-1.93
-1.95
-2.10
-2.26
-2.39
-2.46
-2.47
-2.44
-2.38
-2.37
-2.44
-2.63
-2.91
-3.17
-3.33
-3.29
-3.02
-2.56
-1.96
-1.26
-0.50
0.31
1.17
2.06
2.90
3.61
4.11
4.33
4.27
4.06
3.85
3.78
3.91
4.17
4.42
4.52
4.42
4.18
3.91
3.73
3.64
3.60
3.51
3.33
3.06
2.80
2.58
2.42
2.23
1.94
1.48
0.91
0.31
-0.17
-0.48
-0.62
-0.65
-0.68
-0.74
-0.83
-0.90
-0.88
-0.74
-0.51
-0.26
-0.06
0.08
0.17
0.26
0.34
0.41
0.43
0.42
0.43
0.56
0.87
1.30
1.71
1.91
1.82
1.50
1.16
1.00
1.12
1.44
1.76
1.88
1.70
1.29
0.78
0.34
0.05
-0.09
-0.13
-0.11
-0.07
-0.04
-0.03
-0.06
-0.10
-0.14
-0.10
0.03
0.27
0.55
0.77
0.87
0.81
0.66
0.51
0.44
0.48
0.55
0.53
0.32
-0.06
-0.55
-1.01
-1.31
-1.39
-1.22
-0.83
-0.28
0.34
0.93
1.37
1.57
1.48
1.12
0.58
0.02
-0.45
-0.72
-0.75
-0.56
-0.18
0.31
0.85
1.35
1.71
1.82
1.63
1.15
0.50
-0.13
-0.54
-0.61
-0.36
0.04
0.38
0.52
0.40
0.09
-0.31
-0.66
-0.95
-1.16
-1.29
-1.33
-1.24
-0.98
-0.61
-0.21
0.05
0.08
-0.18
-0.66
-1.26
-1.87
-2.44
-2.91
-3.28
-3.53
-3.60
-3.44
-3.05
-2.47
-1.80
-1.17
-0.71
-0.49
-0.51
-0.70
-0.93
-1.06
-1.01
-0.78
-0.43
-0.05
0.28
0.54
0.73
0.90
1.10
1.39
1.81
2.33
2.90
3.37
3.65
3.69
3.56
3.38
3.29
3.34
3.46
3.47
3.22
2.64
1.80
0.93
0.30
0.12
0.50
1.40
2.69
4.13
5.48
6.49
6.99
6.93
6.32
5.26
3.88
2.32
0.71
-0.80
-2.12
-3.10
-3.64
-3.65
-3.10
-2.02
-0.49
1.32
3.18
4.88
6.23
7.17
7.75
8.16
8.58
9.18
9.93
10.70
11.20
11.18
10.51
9.25
7.62
5.92
4.37
3.09
2.05
1.13
0.25
-0.62
-1.50
-2.41
-3.39
-4.47
-5.65
-6.84
-7.91
-8.77
-9.39
-9.84
-10.22
-10.56
-10.81
-10.90
-10.79
-10.51
-10.18
-9.90
-9.69
-9.46
-9.09
-8.46
-7.57
-6.56
-5.61
-4.85
-4.31
-3.87
-3.37
-2.73
-1.96
-1.19
-0.56
-0.09
0.28
0.68
1.18
1.71
2.12
2.20
1.87
1.23
0.51
0.01
-0.10
0.21
0.75
1.23
1.34
0.88
-0.13
-1.51
-2.96
-4.17
-4.98
-5.38
-5.49
-5.52
-5.65
-5.96
-6.43
-6.98
-7.46
-7.72
-7.65
-7.22
-6.42
-5.35
-4.10
-2.76
-1.46
-0.32
0.53
1.05
1.23
1.21
1.16
1.20
1.39
1.64
1.86
2.00
2.08
2.17
2.31
2.48
2.56
2.46
2.15
1.69
1.24
0.94
0.84
0.89
0.98
0.98
0.84
0.59
0.34
0.19
0.22
0.39
0.61
0.77
0.80
0.75
0.74
0.89
1.29
1.86
2.46
2.86
2.89
2.49
1.74
0.82
-0.01
-0.54
-0.62
-0.23
0.59
1.68
2.91
4.10
5.11
5.81
6.11
5.99
5.54
4.92
4.33
3.98
3.97
4.31
4.89
5.53
6.10
6.56
6.95
7.43
8.17
9.33
11.00
13.11
15.42
17.49
18.76
18.67
16.90
13.48
8.82
3.61
-1.43
-5.78
-9.17
-11.61
-13.27
-14.31
-14.89
-15.13
-15.15
-15.09
-15.06
-15.11
-15.18
-15.18
-14.95
-14.38
-13.42
-12.13
-10.64
-9.13
-7.75
-6.60
-5.65
-4.84
-4.09
-3.37
-2.72
-2.22
-1.90
-1.76
-1.74
-1.73
-1.64
-1.41
-1.00
-0.41
0.34
1.17
1.96
2.59
2.95
2.99
2.77
2.38
1.89
1.37
0.82
0.27
-0.26
-0.68
-0.93
-0.98
-0.89
-0.72
-0.55
-0.38
-0.20
0.03
0.31
0.61
0.83
0.93
0.87
0.66
0.36
0.06
-0.14
-0.16
0.05
0.46
1.00
1.54
1.99
2.29
2.44
2.44
2.36
2.25
2.22
2.40
2.87
3.63
4.55
5.44
6.06
6.26
6.02
5.44
4.68
3.86
3.06
2.26
1.39
0.40
-0.73
-1.96
-3.15
-4.15
-4.82
-5.04
-4.82
-4.22
-3.37
-2.42
-1.52
-0.77
-0.28
-0.10
-0.22
-0.62
-1.19
-1.87
-2.55
-3.19
-3.75
-4.14
-4.29
-4.14
-3.65
-2.90
-2.00
-1.09
-0.26
0.43
0.97
1.35
1.53
1.44
1.10
0.56
0.00
-0.40
-0.49
-0.20
0.39
1.13
1.83
2.34
2.58
2.57
2.43
2.25
2.12
2.03
1.95
1.81
1.59
1.33
1.14
1.05
1.06
1.05
0.90
0.53
0.02
-0.45
-0.69
-0.62
-0.31
0.06
0.30
0.32
0.14
-0.14
-0.43
-0.69
-0.94
-1.19
-1.39
-1.45
-1.29
-0.89
-0.35
0.18
0.60
0.83
0.91
0.85
0.70
0.47
0.19
-0.07
-0.25
-0.28
-0.20
-0.05
0.08
0.15
0.24
0.41
0.74
1.18
1.61
1.86
1.86
1.65
1.39
1.20
1.17
1.26
1.40
1.52
1.61
1.70
1.79
1.78
1.53
0.95
0.08
-0.87
-1.62
-1.94
-1.78
-1.27
-0.67
-0.20
0.03
0.04
-0.09
-0.27
-0.49
-0.74
-1.03
-1.27
-1.37
-1.24
-0.87
-0.37
0.11
0.41
0.49
0.40
0.29
0.29
0.47
0.78
1.11
1.37
1.52
1.64
1.77
1.91
1.99
1.92
1.64
1.22
0.81
0.57
0.59
0.82
1.15
1.43
1.59
1.60
1.51
1.38
1.25
1.14
1.03
0.94
0.84
0.72
0.55
0.34
0.07
-0.25
-0.58
-0.88
-1.13
-1.28
-1.33
-1.28
-1.18
-1.09
-1.06
-1.14
-1.31
-1.48
-1.56
-1.44
-1.09
-0.54
0.11
0.73
1.24
1.56
1.72
1.77
1.78
1.77
1.76
1.72
1.68
1.70
1.84
2.15
2.62
3.11
3.50
3.68
3.65
3.48
3.28
3.07
2.81
2.38
1.70
0.80
-0.11
-0.77
-1.00
-0.79
-0.32
0.14
0.38
0.34
0.18
0.05
0.07
0.15
0.17
-0.01
-0.35
-0.73
-0.97
-1.01
-0.96
-1.02
-1.36
-2.00
-2.77
-3.44
-3.85
-4.00
-3.97
-3.88
-3.76
-3.58
-3.25
-2.81
-2.34
-1.97
-1.80
-1.80
-1.89
-2.00
-2.13
-2.33
-2.64
-3.02
-3.36
-3.58
-3.68
-3.75
-3.91
-4.19
-4.51
-4.75
-4.80
-4.67
-4.50
-4.42
-4.48
-4.62
-4.70
-4.56
-4.15
-3.48
-2.63
-1.69
-0.67
0.44
1.66
3.02
4.47
5.94
7.27
8.33
9.04
9.45
9.69
9.97
10.44
11.20
12.27
13.64
15.31
17.22
19.18
20.88
21.89
21.83
20.51
18.03
14.73
11.02
7.28
3.77
0.68
-1.84
-3.64
-4.67
-4.99
-4.86
-4.57
-4.38
-4.39
-4.49
-4.48
-4.16
-3.42
-2.24
-0.65
1.29
3.50
5.90
8.41
10.96
13.58
16.32
19.28
22.44
25.64
28.57
30.87
32.37
33.17
33.62
34.16
35.14
36.61
38.39
40.12
41.46
42.25
42.46
42.19
41.53
40.53
39.26
37.79
36.25
34.75
33.30
31.86
30.28
28.43
26.24
23.70
20.89
17.90
14.82
11.80
9.00
6.56
4.51
2.73
0.99
-0.97
-3.33
-6.09
-9.10
-12.22
-15.43
-18.79
-22.42
-26.36
-30.47
-34.46
-37.97
-40.74
-42.75
-44.25
-45.67
-47.63
-50.60
-54.59
-59.20
-63.76
-67.66
-70.47
-72.01
-72.26
-71.36
-69.37
-66.13
-61.32
-54.70
-46.34
-36.73
-26.70
-17.17
-9.30
-3.72
-0.15
2.56
5.87
10.81
17.51
25.20
32.53
37.25
38.00
35.39
31.85
30.35
32.68
38.79
47.30
56.17
61.46
60.35
52.35
39.55
25.50
13.91
8.13
10.67
21.61
34.30
39.91
31.64
8.33
-25.85
-64.27
-101.06
-133.33
-162.42
-196.95
-245.05
-309.48
-385.90
-465.78
-540.43
-602.60
-645.79
-636.32
-552.65
-399.31
-210.01
-26.42
123.91
232.31
302.04
343.19
363.98
363.65
341.49
301.91
255.48
214.30
186.47
172.53
169.56
172.14
171.62
162.34
143.76
120.31
98.13
81.51
71.73
68.09
68.34
68.01
63.78
54.82
43.10
31.77
23.27
18.51
17.34
18.52
19.45
18.14
13.99
8.05
2.15
-2.18
-4.37
-4.59
-3.71
-3.06
-3.47
-5.03
-7.15
-8.99
-10.01
-10.09
-9.42
-8.37
-7.24
-6.18
-5.19
-4.26
-3.38
-2.61
-2.02
-1.66
-1.52
-1.53
-1.62
-1.73
-1.91
-2.22
-2.73
-3.43
-4.22
-4.98
-5.58
-5.94
-6.03
-5.85
-5.41
-4.72
-3.78
-2.63
-1.31
0.12
1.62
3.13
4.59
5.92
7.04
7.86
8.35
8.52
8.46
8.35
8.33
8.55
9.01
9.62
10.24
10.70
10.95
10.98
10.82
10.48
9.94
9.10
7.89
6.30
4.40
2.42
0.61
-0.76
-1.56
-1.86
-1.93
-2.10
-2.66
-3.75
-5.33
-7.24
-9.32
-11.40
-13.35
-14.99
-16.05
-16.34
-15.74
-14.36
-12.49
-10.50
-8.70
-7.20
-5.97
-4.81
-3.54
-2.06
-0.41
1.21
2.58
3.53
4.06
4.32
4.55
4.94
5.58
6.41
7.28
8.06
8.62
8.89
8.79
8.27
7.35
6.15
4.91
3.93
3.42
3.41
3.74
4.06
4.02
3.38
2.08
0.28
-1.72
-3.61
-5.12
-6.10
-6.50
-6.35
-5.70
-4.61
-3.16
-1.50
0.17
1.60
2.67
3.35
3.74
3.99
4.17
4.28
4.19
3.81
3.12
2.20
1.19
0.26
-0.47
-0.92
-1.05
-0.87
-0.41
0.26
0.99
1.60
1.97
2.05
1.86
1.49
1.03
0.53
0.07
-0.31
-0.55
-0.61
-0.52
-0.41
-0.38
-0.52
-0.81
-1.19
-1.52
-1.71
-1.74
-1.64
-1.49
-1.36
-1.30
-1.29
-1.27
-1.09
-0.62
0.22
1.41
2.81
4.24
5.49
6.41
6.96
7.10
6.87
6.33
5.57
4.76
4.10
3.76
3.77
4.07
4.43
4.62
4.47
3.98
3.26
2.53
1.96
1.60
1.44
1.41
1.46
1.59
1.81
2.11
2.43
2.64
2.67
2.51
2.25
2.02
1.92
1.95
1.95
1.73
1.14
0.14
-1.10
-2.29
-3.11
-3.34
-2.97
-2.15
-1.15
-0.24
0.45
0.89
1.11
1.16
1.08
0.89
0.64
0.45
0.46
0.75
1.27
1.87
2.31
2.40
2.07
1.40
0.61
-0.03
-0.39
-0.47
-0.41
-0.44
-0.70
-1.24
-1.93
-2.63
-3.23
-3.71
-4.12
-4.52
-4.90
-5.21
-5.39
-5.39
-5.25
-5.08
-4.98
-5.01
-5.20
-5.55
-5.96
-6.34
-6.56
-6.49
-6.04
-5.19
-3.97
-2.46
-0.76
1.07
2.99
4.95
6.89
8.75
10.46
12.01
13.43
14.85
16.41
18.22
20.27
22.42
24.36
25.74
26.27
25.85
24.54
22.61
20.45
18.53
17.37
17.38
18.81
21.59
25.34
29.47
33.36
36.60
39.15
41.24
43.20
45.26
47.44
49.56
51.46
53.09
54.58
56.18
58.08
60.37
63.00
65.85
68.71
71.26
73.02
73.40
71.84
68.04
62.14
54.73
46.67
38.84
31.93
26.33
22.22
19.65
18.66
19.22
21.18
24.13
27.47
30.44
32.35
32.68
31.17
27.80
22.85
16.73
10.05
3.45
-2.45
-7.17
-10.44
-12.21
-12.50
-11.37
-8.90
-5.20
-0.46
5.24
12.00
20.15
29.98
41.38
53.40
64.31
72.03
74.89
72.35
65.12
54.84
43.39
32.26
22.32
14.02
7.65
3.52
1.74
1.91
2.94
3.17
0.87
-5.10
-14.83
-27.22
-40.40
-52.36
-61.63
-67.66
-70.86
-72.20
-72.76
-73.28
-74.03
-74.99
-76.04
-77.23
-78.68
-80.54
-82.79
-85.15
-87.27
-88.81
-89.71
-90.08
-90.14
-90.04
-89.71
-88.95
-87.47
-85.00
-81.42
-76.74
-71.11
-64.86
-58.38
-52.10
-46.33
-41.26
-36.95
-33.42
-30.72
-28.89
-27.92
-27.69
-27.91
-28.19
-28.16
-27.57
-26.37
-24.67
-22.74
-20.85
-19.22
-17.97
-17.00
-16.10
-15.03
-13.63
-11.94
-10.25
-8.99
-8.58
-9.23
-10.92
-13.37
-16.16
-18.88
-21.19
-22.91
-23.99
-24.49
-24.54
-24.32
-24.04
-23.85
-23.77
-23.63
-23.15
-22.02
-20.04
-17.27
-13.93
-10.35
-6.75
-3.24
0.13
3.24
5.85
7.65
8.43
8.21
7.23
5.96
4.78
3.96
3.52
3.31
3.15
2.90
2.51
2.03
1.51
1.05
0.70
0.45
0.28
0.09
-0.20
-0.65
-1.29
-2.07
-2.90
-3.66
-4.24
-4.63
-4.88
-5.12
-5.40
-5.74
-6.01
-6.06
-5.81
-5.25
-4.49
-3.67
-2.91
-2.29
-1.82
-1.53
-1.44
-1.57
-1.89
-2.30
-2.65
-2.80
-2.62
-2.13
-1.36
-0.41
0.64
1.73
2.77
3.70
4.45
4.96
5.23
5.31
5.26
5.14
4.96
4.68
4.25
3.66
2.94
2.20
1.53
0.99
0.54
0.07
-0.54
-1.35
-2.31
-3.28
-4.10
-4.65
-4.89
-4.84
-4.58
-4.17
-3.71
-3.31
-3.08
-3.11
-3.39
-3.79
-4.18
-4.39
-4.38
-4.22
-4.02
-3.84
-3.69
-3.54
-3.37
-3.22
-3.18
-3.29
-3.56
-3.88
-4.12
-4.14
-3.84
-3.19
-2.24
-1.06
0.26
1.62
2.92
4.12
5.19
6.15
7.06
7.93
8.77
9.53
10.14
10.56
10.74
10.64
10.29
9.70
8.92
8.01
7.06
6.12
5.24
4.44
3.72
3.09
2.56
2.13
1.80
1.50
1.14
0.63
-0.03
-0.79
-1.52
-2.11
-2.46
-2.55
-2.44
-2.16
-1.76
-1.23
-0.59
0.16
0.91
1.56
1.99
2.14
2.04
1.78
1.44
1.08
0.71
0.27
-0.23
-0.77
-1.25
-1.56
-1.68
-1.63
-1.52
-1.43
-1.35
-1.19
-0.79
-0.06
0.95
2.10
3.14
3.86
4.17
4.15
3.97
3.89
4.15
4.87
6.01
7.42
8.84
10.04
10.91
11.47
11.86
12.32
13.04
14.18
15.78
17.70
19.50
20.47
19.78
16.74
11.17
3.50
-5.24
-13.82
-21.18
-26.72
-30.39
-32.45
-33.25
-33.00
-31.73
-29.48
-26.40
-22.82
-19.21
-16.03
-13.54
-11.71
-10.30
-9.05
-7.82
-6.78
-6.28
-6.58
-7.65
-9.07
-10.20
-10.62
-10.37
-10.06
-10.59
-12.70
-16.56
-21.67
-27.04
-31.63
-34.69
-35.92
-35.50
-33.76
-31.09
-27.76
-23.96
-19.91
-15.89
-12.20
-9.04
-6.44
-4.25
-2.14
0.16
2.78
5.64
8.46
10.96
12.88
14.19
14.95
15.32
15.43
15.39
15.23
14.96
14.58
14.10
13.56
12.95
12.25
11.41
10.44
9.38
8.31
7.30
6.37
5.50
4.61
3.69
2.77
1.94
1.28
0.83
0.55
0.41
0.43
0.69
1.28
2.23
3.44
4.73
5.90
6.82
7.47
7.88
8.10
8.18
8.17
8.17
8.28
8.62
9.21
9.94
10.64
11.08
11.13
10.75
10.03
9.15
8.30
7.59
7.07
6.69
6.36
5.99
5.54
4.99
4.38
3.77
3.22
2.78
2.49
2.40
2.52
2.84
3.24
3.62
3.82
3.81
3.61
3.36
3.21
3.27
3.53
3.92
4.34
4.70
4.99
5.22
5.43
5.60
5.69
5.70
5.64
5.55
5.52
5.60
5.80
6.09
6.38
6.57
6.58
6.40
6.09
5.78
5.61
5.64
5.82
6.05
6.21
6.24
6.20
6.20
6.37
6.78
7.36
8.00
8.52
8.79
8.74
8.44
8.01
7.59
7.28
7.11
7.03
6.94
6.77
6.51
6.21
5.94
5.78
5.73
5.74
5.73
5.67
5.60
5.55
5.59
5.67
5.72
5.64
5.38
4.99
4.56
4.25
4.13
4.22
4.48
4.81
5.11
5.28
5.28
5.16
5.04
5.09
5.44
6.08
6.86
7.59
8.10
8.39
8.60
8.94
9.53
10.36
11.26
12.00
12.42
12.46
12.20
11.79
11.37
11.08
10.97
11.01
11.13
11.21
11.20
11.12
11.05
11.04
11.10
11.13
10.99
10.57
9.84
8.88
7.80
6.72
5.74
4.99
4.65
4.91
5.91
7.69
10.03
12.47
14.36
14.94
13.62
10.07
4.36
-3.02
-11.08
-18.65
-24.71
-28.67
-30.53
-30.84
-30.43
-30.32
-31.25
-33.37
-36.40
-39.87
-43.36
-46.49
-48.86
-49.88
-49.21
-46.53
-41.47
-33.76
-23.45
-10.84
3.55
19.00
34.35
47.43
55.63
56.88
50.45
37.24
19.88
1.99
-13.16
-21.48
-21.65
-16.61
-11.11
-8.57
-9.95
-14.06
-19.33
-24.53
-28.82
-32.03
-34.07
-34.68
-33.49
-31.00
-28.47
-27.30
-28.21
-30.92
-34.64
-38.45
-41.64
-44.03
-46.15
-48.62
-51.76
-55.25
-58.26
-60.06
-60.12
-58.04
-53.63
-47.09
-38.96
-30.13
-21.66
-14.57
-9.68
-7.22
-6.72
-7.10
-7.17
-5.99
-3.14
1.19
6.39
11.62
16.16
19.55
21.64
22.53
22.45
21.69
20.57
19.37
18.25
17.30
16.44
15.57
14.55
13.30
11.78
9.95
7.81
5.41
2.92
0.66
-0.94
-1.49
-0.73
1.30
4.33
7.95
11.73
15.35
18.60
21.38
23.61
25.25
26.27
26.72
26.77
26.62
26.51
26.58
26.85
27.24
27.60
27.81
27.86
27.77
27.62
27.43
27.13
26.63
25.87
24.87
23.75
22.66
21.73
21.00
20.36
19.65
18.67
17.31
15.60
13.63
11.60
9.72
8.14
6.91
5.91
4.94
3.74
2.10
-0.03
-2.51
-5.04
-7.21
-8.61
-8.95
-8.11
-6.15
-3.28
0.18
3.80
7.20
10.05
12.20
13.68
14.68
15.43
16.12
16.91
17.87
19.01
20.30
21.67
22.97
24.01
24.64
24.80
24.56
24.11
23.61
23.13
22.60
21.94
21.07
20.04
18.95
17.91
16.96
15.99
14.87
13.52
11.92
10.23
8.60
7.20
6.07
5.16
4.31
3.37
2.19
0.71
-1.08
-3.13
-5.32
-7.46
-9.29
-10.50
-10.79
-9.95
-8.01
-5.19
-1.85
1.56
4.69
7.32
9.36
10.80
11.65
11.96
11.82
11.42
11.01
10.85
11.08
11.67
12.43
13.08
13.40
13.31
12.85
12.18
11.47
10.81
10.17
9.49
8.69
7.77
6.77
5.78
4.86
4.00
3.13
2.14
1.02
-0.18
-1.33
-2.30
-3.08
-3.77
-4.58
-5.67
-7.12
-8.81
-10.53
-11.98
-12.89
-13.05
-12.35
-10.77
-8.39
-5.44
-2.21
0.99
3.90
6.36
8.33
9.76
10.66
11.01
10.87
10.37
9.74
9.23
8.98
9.01
9.20
9.37
9.43
9.35
9.16
8.90
8.57
8.12
7.51
6.77
5.95
5.14
4.36
3.58
2.74
1.78
0.73
-0.37
-1.45
-2.45
-3.37
-4.19
-4.92
-5.56
-6.12
-6.71
-7.49
-8.61
-10.13
-11.91
-13.62
-14.81
-15.08
-14.18
-12.12
-9.17
-5.75
-2.30
0.80
3.34
5.24
6.54
7.32
7.66
7.64
7.32
6.79
6.21
5.74
5.50
5.55
5.82
6.15
6.36
6.31
6.00
5.48
4.86
4.22
3.54
2.79
1.93
0.99
0.05
-0.82
-1.59
-2.31
-3.06
-3.89
-4.78
-5.66
-6.45
-7.12
-7.74
-8.42
-9.29
-10.40
-11.71
-13.10
-14.40
-15.40
-15.92
-15.77
-14.86
-13.18
-10.80
-7.91
-4.75
-1.58
1.36
3.84
5.71
6.86
7.31
7.22
6.81
6.32
5.95
5.77
5.75
5.80
5.81
5.71
5.42
4.92
4.16
3.16
2.00
0.82
-0.26
-1.17
-1.96
-2.75
-3.64
-4.63
-5.52
-6.05
-5.94
-5.08
-3.58
-1.73
0.10
1.55
2.40
2.58
2.19
1.52
0.96
1.00
2.07
4.49
8.23
12.94
17.99
22.65
26.39
29.15
31.40
33.98
37.74
43.15
50.05
57.63
64.79
70.57
74.58
77.20
79.42
82.51
87.60
95.31
105.57
117.64
130.12
141.25
149.24
152.86
151.93
147.53
141.70
136.59
133.52
132.28
130.95
126.57
116.14
97.73
71.11
37.81
0.61
-37.26
-72.92
-104.37
-130.70
-152.00
-168.99
-182.56
-193.38
-201.68
-207.28
-209.86
-209.19
-205.43
-199.09
-190.86
-181.32
-170.72
-159.00
-146.00
-131.79
-116.87
-102.05
-88.15
-75.76
-65.06
-55.92
-48.13
-41.57
-36.14
-31.66
-27.75
-23.85
-19.45
-14.25
-8.39
-2.35
3.17
7.48
10.15
11.07
10.52
9.10
7.53
6.50
6.45
7.49
9.39
11.76
14.24
16.60
18.81
20.87
22.79
24.47
25.79
26.56
26.58
25.61
23.33
19.46
13.91
7.00
-0.53
-7.68
-13.50
-17.44
-19.46
-19.95
-19.42
-18.20
-16.37
-13.90
-10.83
-7.49
-4.49
-2.49
-1.98
-3.05
-5.33
-8.15
-10.75
-12.48
-13.02
-12.39
-10.93
-9.20
-7.76
-7.04
-7.20
-8.13
-9.44
-10.66
-11.32
-11.11
-9.95
-7.98
-5.53
-3.12
-1.31
-0.62
-1.43
-3.78
-7.32
-11.41
-15.21
-17.96
-19.13
-18.56
-16.40
-13.07
-9.08
-4.99
-1.29
1.64
3.53
4.28
3.98
2.93
1.54
0.32
-0.28
-0.01
1.12
2.77
4.45
5.66
6.06
5.65
4.70
3.65
2.92
2.84
3.54
5.02
7.24
10.12
13.55
17.41
21.50
25.55
29.23
32.17
34.10
34.83
34.31
32.72
30.34
27.54
24.63
21.79
19.03
16.25
13.34
10.30
7.28
4.47
2.11
0.32
-0.90
-1.63
-1.99
-2.08
-1.95
-1.64
-1.21
-0.71
-0.20
0.35
0.99
1.80
2.77
3.80
4.69
5.26
5.45
5.33
5.07
4.83
4.66
4.49
4.19
3.71
3.13
2.59
2.23
2.09
2.02
1.83
1.35
0.52
-0.55
-1.70
-2.79
-3.73
-4.55
-5.32
-6.07
-6.81
-7.51
-8.18
-8.81
-9.41
-9.98
-10.42
-10.65
-10.55
-10.08
-9.26
-8.16
-6.88
-5.51
-4.10
-2.69
-1.34
-0.07
1.07
2.05
2.85
3.50
4.00
4.38
4.64
4.82
4.93
5.03
5.13
5.24
5.35
5.44
5.48
5.44
5.31
5.09
4.82
4.55
4.33
4.20
4.12
3.97
3.64
3.00
2.04
0.83
-0.47
-1.66
-2.61
-3.21
-3.47
-3.41
-3.08
-2.51
-1.76
-0.91
-0.06
0.67
1.20
1.53
1.78
2.06
2.43
2.83
3.14
3.23
3.09
2.84
2.70
2.82
3.23
3.76
4.17
4.23
3.85
3.10
2.20
1.40
0.88
0.70
0.78
0.94
0.97
0.78
0.36
-0.18
-0.71
-1.17
-1.55
-1.89
-2.21
-2.46
-2.56
-2.46
-2.16
-1.79
-1.45
-1.24
-1.13
-1.00
-0.73
-0.24
0.43
1.12
1.63
1.79
1.55
0.97
0.17
-0.70
-1.53
-2.21
-2.70
-2.95
-2.94
-2.69
-2.27
-1.75
-1.29
-1.01
-1.01
-1.32
-1.85
-2.44
-2.83
-2.82
-2.37
-1.62
-0.90
-0.55
-0.78
-1.54
-2.55
-3.43
-3.89
-3.86
-3.43
-2.79
-2.12
-1.48
-0.85
-0.19
0.48
1.11
1.64
2.03
2.31
2.57
2.89
3.33
3.87
4.45
4.92
5.15
5.07
4.70
4.18
3.71
3.44
3.40
3.49
3.51
3.30
2.81
2.10
1.36
0.70
0.21
-0.16
-0.45
-0.72
-0.98
-1.22
-1.43
-1.65
-1.95
-2.42
-3.08
-3.90
-4.76
-5.49
-5.95
-6.06
-5.84
-5.42
-4.90
-4.38
-3.84
-3.25
-2.60
-1.95
-1.44
-1.25
-1.44
-1.94
-2.54
-3.01
-3.19
-3.05
-2.72
-2.31
-1.90
-1.48
-1.00
-0.45
0.09
0.47
0.57
0.41
0.12
-0.07
0.02
0.40
0.91
1.27
1.30
0.93
0.31
-0.36
-0.90
-1.24
-1.38
-1.36
-1.21
-0.93
-0.56
-0.13
0.27
0.55
0.66
0.62
0.49
0.35
0.23
0.17
0.14
0.15
0.18
0.22
0.25
0.26
0.24
0.19
0.14
0.10
0.09
0.09
0.11
0.13
0.15
0.14
0.12
0.10
0.08
0.06
0.06
0.07
0.08
0.09
0.11
0.11
0.12
0.11
0.10
0.09
0.09
0.09
0.10
0.12
0.15
0.18
0.20
0.20
0.19
0.18
0.17
0.18
0.21
0.26
0.32
0.36
0.39
0.39
0.39
0.39
0.40
0.43
0.46
0.50
0.55
0.62
0.69
0.72
0.67
0.51
0.25
-0.05
-0.32
-0.46
-0.45
-0.32
-0.14
-0.01
0.02
-0.06
-0.19
-0.30
-0.33
-0.26
-0.08
0.14
0.37
0.53
0.57
0.44
0.11
-0.38
-0.98
-1.55
-1.94
-2.01
-1.70
-1.06
-0.25
0.51
1.01
1.14
0.98
0.70
0.52
0.59
0.93
1.42
1.92
2.30
2.51
2.58
2.59
2.58
2.55
2.49
2.34
2.04
1.59
1.02
0.38
-0.24
-0.75
-1.08
-1.20
-1.16
-1.07
-1.06
-1.25
-1.67
-2.27
-2.95
-3.55
-4.01
-4.28
-4.40
-4.38
-4.23
-3.93
-3.46
-2.85
-2.16
-1.49
-0.89
-0.39
0.05
0.46
0.87
1.29
1.68
2.05
2.45
2.92
3.52
4.21
4.91
5.50
5.84
5.87
5.58
5.05
4.42
3.80
3.25
2.80
2.37
1.84
1.03
-0.21
-1.95
-4.12
-6.53
-8.83
-10.66
-11.74
-11.96
-11.37
-10.20
-8.72
-7.17
-5.71
-4.36
-3.13
-2.04
-1.11
-0.38
0.13
0.47
0.73
1.03
1.47
2.11
2.92
3.80
4.60
5.14
5.28
4.90
4.02
2.73
1.22
-0.28
-1.50
-2.22
-2.34
-1.88
-1.02
-0.03
0.79
1.23
1.26
1.01
0.70
0.51
0.51
0.65
0.80
0.88
0.86
0.76
0.57
0.24
-0.27
-0.99
-1.81
-2.55
-2.94
-2.83
-2.21
-1.26
-0.18
0.80
1.58
2.16
2.62
3.04
3.45
3.86
4.23
4.51
4.65
4.66
4.55
4.42
4.32
4.29
4.25
4.04
3.51
2.57
1.36
0.15
-0.71
-1.01
-0.73
-0.09
0.58
1.01
1.07
0.83
0.45
0.09
-0.20
-0.46
-0.77
-1.21
-1.75
-2.30
-2.72
-2.91
-2.86
-2.66
-2.41
-2.24
-2.14
-2.09
-2.02
-1.90
-1.75
-1.64
-1.60
-1.59
-1.52
-1.33
-0.99
-0.55
-0.07
0.42
0.92
1.45
1.99
2.42
2.63
2.54
2.13
1.49
0.73
-0.03
-0.76
-1.42
-2.04
-2.63
-3.24
-3.95
-4.88
-6.17
-7.80
-9.59
-11.18
-12.14
-12.07
-10.88
-8.77
-6.17
-3.64
-1.61
-0.27
0.42
0.64
0.63
0.55
0.56
0.77
1.28
2.12
3.25
4.56
5.91
7.20
8.39
9.47
10.46
11.36
12.13
12.77
13.29
13.69
13.96
14.06
13.94
13.56
12.88
11.88
10.54
8.86
6.88
4.70
2.45
0.23
-1.86
-3.78
-5.45
-6.73
-7.48
-7.62
-7.20
-6.46
-5.73
-5.32
-5.39
-5.85
-6.53
-7.20
-7.70
-7.95
-7.90
-7.54
-6.86
-5.89
-4.73
-3.52
-2.44
-1.60
-1.02
-0.65
-0.39
-0.13
0.22
0.70
1.27
1.89
2.49
2.97
3.31
3.47
3.46
3.31
3.04
2.69
2.29
1.91
1.61
1.50
1.58
1.85
2.21
2.50
2.57
2.36
1.89
1.28
0.69
0.24
-0.03
-0.13
-0.09
0.07
0.37
0.76
1.20
1.57
1.79
1.79
1.57
1.15
0.54
-0.24
-1.13
-2.00
-2.70
-3.06
-3.04
-2.72
-2.29
-1.87
-1.54
-1.24
-0.90
-0.50
-0.13
0.13
0.19
0.08
-0.10
-0.22
-0.23
-0.16
-0.11
-0.19
-0.42
-0.78
-1.16
-1.43
-1.49
-1.33
-1.00
-0.62
-0.28
-0.04
0.12
0.25
0.41
0.60
0.77
0.89
0.96
0.97
0.97
0.93
0.83
0.65
0.42
0.17
-0.03
-0.20
-0.38
-0.65
-1.04
-1.50
-1.93
-2.21
-2.31
-2.26
-2.14
-2.03
-1.91
-1.74
-1.46
-1.07
-0.68
-0.40
-0.30
-0.35
-0.41
-0.33
-0.04
0.42
0.88
1.14
1.11
0.81
0.38
-0.03
-0.30
-0.41
-0.42
-0.39
-0.37
-0.40
-0.46
-0.55
-0.67
-0.77
-0.79
-0.70
-0.48
-0.18
0.08
0.18
0.01
-0.48
-1.24
-2.16
-3.07
-3.82
-4.29
-4.47
-4.40
-4.17
-3.90
-3.67
-3.49
-3.34
-3.21
-3.08
-2.95
-2.82
-2.67
-2.44
-2.08
-1.55
-0.84
0.05
1.08
2.19
3.25
4.08
4.55
4.58
4.25
3.73
3.24
2.90
2.78
2.79
2.83
2.82
2.69
2.43
2.03
1.50
0.86
0.17
-0.47
-0.95
-1.18
-1.13
-0.83
-0.39
0.05
0.38
0.52
0.51
0.39
0.26
0.17
0.17
0.27
0.52
0.92
1.43
1.95
2.34
2.45
2.23
1.76
1.20
0.73
0.46
0.38
0.39
0.38
0.31
0.21
0.17
0.25
0.52
0.94
1.46
1.99
2.44
2.72
2.77
2.57
2.13
1.52
0.86
0.26
-0.14
-0.24
-0.03
0.44
0.97
1.35
1.39
1.06
0.48
-0.07
-0.31
-0.14
0.37
1.00
1.50
1.73
1.70
1.52
1.29
1.06
0.83
0.58
0.30
0.04
-0.18
-0.37
-0.57
-0.84
-1.21
-1.64
-2.02
-2.29
-2.44
-2.54
-2.73
-3.07
-3.56
-4.05
-4.32
-4.23
-3.75
-2.99
-2.17
-1.44
-0.91
-0.53
-0.24
0.06
0.38
0.73
1.07
1.40
1.72
2.04
2.39
2.76
3.10
3.41
3.64
3.78
3.80
3.74
3.61
3.41
3.12
2.68
2.08
1.34
0.56
-0.13
-0.66
-1.02
-1.26
-1.45
-1.62
-1.78
-1.93
-2.09
-2.36
-2.86
-3.61
-4.54
-5.49
-6.28
-6.86
-7.25
-7.59
-7.96
-8.39
-8.76
-8.96
-8.90
-8.63
-8.30
-8.10
-8.15
-8.47
-8.99
-9.60
-10.24
-10.92
-11.62
-12.33
-12.97
-13.50
-13.95
-14.48
-15.26
-16.40
-17.71
-18.70
-18.76
-17.35
-14.33
-10.03
-5.16
-0.50
3.36
6.27
8.41
10.15
11.78
13.41
14.91
16.08
16.75
16.93
16.78
16.50
16.27
16.10
15.92
15.56
14.95
14.12
13.24
12.51
12.11
12.07
12.28
12.49
12.39
11.73
10.44
8.60
6.50
4.44
2.70
1.37
0.40
-0.33
-0.93
-1.47
-1.96
-2.42
-2.89
-3.40
-3.93
-4.37
-4.56
-4.38
-3.80
-2.92
-1.87
-0.81
0.22
1.23
2.28
3.43
4.67
5.96
7.23
8.42
9.49
10.37
11.01
11.32
11.25
10.81
10.09
9.23
8.37
7.62
7.01
6.47
5.91
5.21
4.29
3.15
1.85
0.55
-0.60
-1.51
-2.14
-2.56
-2.85
-3.11
-3.34
-3.57
-3.80
-4.07
-4.44
-4.90
-5.40
-5.77
-5.87
-5.63
-5.13
-4.57
-4.12
-3.89
-3.87
-3.93
-3.98
-3.96
-3.92
-3.95
-4.11
-4.39
-4.69
-4.88
-4.90
-4.77
-4.57
-4.41
-4.33
-4.35
-4.40
-4.46
-4.54
-4.64
-4.80
-4.98
-5.11
-5.10
-4.94
-4.68
-4.43
-4.27
-4.19
-4.11
-3.89
-3.46
-2.80
-1.98
-1.12
-0.38
0.13
0.34
0.26
0.03
-0.21
-0.30
-0.19
0.06
0.34
0.54
0.64
0.71
0.85
1.11
1.41
1.60
1.54
1.19
0.63
0.08
-0.27
-0.32
-0.07
0.33
0.73
1.01
1.12
1.05
0.86
0.58
0.24
-0.12
-0.42
-0.61
-0.64
-0.50
-0.28
-0.06
0.09
0.15
0.15
0.16
0.23
0.39
0.66
1.04
1.51
2.04
2.60
3.09
3.45
3.64
3.67
3.63
3.61
3.68
3.86
4.08
4.25
4.31
4.24
4.08
3.88
3.68
3.46
3.14
2.70
2.14
1.51
0.91
0.39
-0.03
-0.39
-0.76
-1.13
-1.48
-1.73
-1.81
-1.67
-1.34
-0.91
-0.47
-0.17
-0.08
-0.24
-0.59
-1.03
-1.41
-1.67
-1.80
-1.85
-1.91
-2.05
-2.27
-2.51
-2.65
-2.60
-2.30
-1.79
-1.13
-0.41
0.27
0.89
1.41
1.83
2.15
2.36
2.47
2.51
2.57
2.69
2.88
3.11
3.28
3.35
3.31
3.24
3.27
3.44
3.73
4.00
4.08
3.87
3.44
2.98
2.72
2.80
3.16
3.58
3.78
3.60
3.02
2.19
1.31
0.55
-0.03
-0.45
-0.75
-0.96
-1.05
-0.99
-0.77
-0.42
0.01
0.46
0.89
1.24
1.49
1.66
1.76
1.88
2.11
2.55
3.26
4.19
5.18
6.02
6.51
6.57
6.23
5.67
5.08
4.63
4.38
4.33
4.42
4.57
4.70
4.75
4.68
4.46
4.09
3.61
3.05
2.46
1.86
1.26
0.63
-0.08
-0.94
-2.02
-3.36
-4.94
-6.68
-8.44
-10.06
-11.37
-12.27
-12.72
-12.77
-12.57
-12.24
-11.88
-11.51
-11.09
-10.55
-9.87
-9.06
-8.16
-7.17
-6.07
-4.85
-3.53
-2.19
-1.00
-0.10
0.41
0.53
0.35
-0.02
-0.45
-0.86
-1.19
-1.41
-1.56
-1.66
-1.74
-1.81
-1.86
-1.87
-1.83
-1.75
-1.62
-1.45
-1.20
-0.84
-0.38
0.11
0.51
0.71
0.64
0.36
0.01
-0.24
-0.29
-0.12
0.21
0.63
1.06
1.43
1.63
1.57
1.16
0.40
-0.60
-1.65
-2.57
-3.26
-3.68
-3.86
-3.85
-3.63
-3.19
-2.55
-1.79
-1.03
-0.41
0.00
0.21
0.26
0.22
0.15
0.08
0.04
0.04
0.12
0.26
0.42
0.53
0.55
0.46
0.32
0.18
0.09
0.04
-0.02
-0.09
-0.14
-0.13
0.01
0.28
0.63
0.93
1.09
1.04
0.81
0.48
0.13
-0.18
-0.46
-0.76
-1.12
-1.51
-1.86
-2.06
-2.01
-1.73
-1.30
-0.87
-0.56
-0.38
-0.31
-0.25
-0.13
0.06
0.30
0.56
0.86
1.22
1.66
2.15
2.61
2.94
3.06
2.94
2.63
2.21
1.81
1.54
1.50
1.72
2.14
2.67
3.16
3.52
3.69
3.65
3.43
3.11
2.78
2.55
2.48
2.56
2.67
2.63
2.23
1.37
0.07
-1.54
-3.23
-4.80
-6.06
-6.89
-7.26
-7.22
-6.94
-6.62
-6.47
-6.57
-6.88
-7.21
-7.35
-7.14
-6.55
-5.64
-4.56
-3.46
-2.40
-1.44
-0.59
0.19
0.89
1.50
2.02
2.42
2.73
2.98
3.25
3.62
4.10
4.68
5.25
5.70
5.93
5.91
5.69
5.35
4.96
4.58
4.17
3.72
3.16
2.51
1.81
1.10
0.47
-0.06
-0.44
-0.68
-0.79
-0.78
-0.66
-0.48
-0.27
-0.13
-0.16
-0.42
-0.92
-1.58
-2.28
-2.89
-3.33
-3.61
-3.77
-3.92
-4.08
-4.23
-4.32
-4.27
-4.07
-3.74
-3.31
-2.79
-2.13
-1.31
-0.37
0.58
1.33
1.68
1.53
0.93
0.04
-0.89
-1.65
-2.11
-2.26
-2.14
-1.82
-1.38
-0.89
-0.41
-0.03
0.20
0.24
0.12
-0.11
-0.35
-0.51
-0.55
-0.42
-0.14
0.24
0.65
1.05
1.38
1.64
1.80
1.84
1.71
1.40
0.90
0.30
-0.31
-0.80
-1.14
-1.34
-1.48
-1.63
-1.82
-2.00
-2.11
-2.09
-1.90
-1.55
-1.06
-0.49
0.15
0.78
1.32
1.67
1.81
1.76
1.60
1.42
1.31
1.30
1.38
1.51
1.68
1.84
1.94
1.95
1.83
1.58
1.28
1.06
1.05
1.33
1.84
2.43
2.89
3.09
3.00
2.74
2.42
2.15
1.94
1.73
1.47
1.14
0.81
0.52
0.33
0.20
0.08
-0.12
-0.44
-0.90
-1.45
-2.00
-2.45
-2.74
-2.88
-2.94
-3.01
-3.13
-3.28
-3.33
-3.16
-2.68
-1.94
-1.04
-0.10
0.79
1.57
2.25
2.81
3.24
3.48
3.52
3.36
3.07
2.70
2.33
1.99
1.70
1.47
1.28
1.13
1.02
0.96
0.92
0.86
0.75
0.60
0.42
0.26
0.15
0.09
0.04
-0.07
-0.28
-0.62
-1.08
-1.62
-2.19
-2.74
-3.21
-3.55
-3.70
-3.62
-3.30
-2.78
-2.13
-1.43
-0.75
-0.15
0.33
0.67
0.90
1.05
1.16
1.27
1.40
1.55
1.67
1.73
1.74
1.74
1.80
1.96
2.22
2.53
2.81
2.99
3.03
2.93
2.72
2.46
2.20
1.98
1.81
1.68
1.57
1.41
1.17
0.86
0.54
0.28
0.16
0.23
0.46
0.78
1.10
1.32
1.36
1.19
0.82
0.32
-0.23
-0.71
-1.03
-1.15
-1.01
-0.63
-0.03
0.70
1.47
2.14
2.63
2.90
3.02
3.12
3.35
3.76
4.29
4.76
4.94
4.68
3.97
2.91
1.70
0.51
-0.55
-1.46
-2.27
-3.04
-3.77
-4.45
-5.03
-5.49
-5.80
-5.93
-5.88
-5.61
-5.11
-4.40
-3.55
-2.66
-1.83
-1.14
-0.61
-0.17
0.23
0.63
0.96
1.16
1.09
0.65
-0.19
-1.38
-2.81
-4.32
-5.71
-6.85
-7.67
-8.19
-8.46
-8.54
-8.47
-8.22
-7.78
-7.15
-6.38
-5.53
-4.68
-3.84
-2.98
-2.04
-1.00
0.12
1.22
2.18
2.89
3.30
3.42
3.31
3.05
2.74
2.45
2.23
2.08
1.99
1.89
1.75
1.51
1.22
0.93
0.69
0.54
0.46
0.41
0.31
0.11
-0.20
-0.61
-1.07
-1.55
-1.99
-2.35
-2.58
-2.62
-2.45
-2.09
-1.60
-1.10
-0.71
-0.50
-0.50
-0.62
-0.74
-0.76
-0.62
-0.35
-0.04
0.19
0.27
0.16
-0.10
-0.43
-0.75
-0.98
-1.10
-1.09
-1.01
-0.90
-0.84
-0.83
-0.88
-0.98
-1.11
-1.24
-1.35
-1.40
-1.39
-1.31
-1.25
-1.24
-1.34
-1.50
-1.66
-1.72
-1.68
-1.59
-1.56
-1.71
-2.09
-2.62
-3.18
-3.61
-3.79
-3.68
-3.32
-2.77
-2.14
-1.51
-0.96
-0.53
-0.23
-0.05
0.07
0.17
0.28
0.42
0.58
0.75
0.92
1.10
1.35
1.69
2.10
2.54
2.88
3.03
2.95
2.69
2.34
2.07
1.99
2.13
2.45
2.85
3.16
3.28
3.16
2.85
2.47
2.15
1.96
1.90
1.85
1.71
1.42
1.06
0.78
0.68
0.76
0.85
0.74
0.29
-0.46
-1.31
-2.01
-2.42
-2.50
-2.35
-2.09
-1.76
-1.37
-0.89
-0.40
0.01
0.24
0.27
0.19
0.18
0.39
0.85
1.48
2.09
2.47
2.52
2.20
1.62
0.92
0.30
-0.08
-0.11
0.24
0.88
1.68
2.44
2.96
3.16
3.02
2.62
2.15
1.77
1.57
1.55
1.59
1.57
1.38
1.00
0.47
-0.12
-0.69
-1.20
-1.64
-2.03
-2.36
-2.62
-2.78
-2.83
-2.77
-2.61
-2.37
-2.08
-1.75
-1.41
-1.07
-0.72
-0.34
0.05
0.42
0.68
0.80
0.75
0.62
0.54
0.59
0.77
0.99
1.10
1.02
0.74
0.39
0.13
0.01
-0.00
-0.03
-0.16
-0.40
-0.65
-0.75
-0.61
-0.27
0.15
0.52
0.76
0.88
0.95
0.99
0.98
0.84
0.50
-0.04
-0.67
-1.25
-1.63
-1.76
-1.69
-1.51
-1.32
-1.20
-1.15
-1.12
-1.03
-0.80
-0.41
0.12
0.71
1.25
1.66
1.92
2.04
2.07
2.08
2.11
2.19
2.35
2.61
2.98
3.41
3.81
4.10
4.22
4.17
4.04
3.89
3.75
3.57
3.30
2.88
2.37
1.85
1.42
1.13
0.97
0.87
0.80
0.75
0.74
0.76
0.75
0.63
0.31
-0.24
-0.94
-1.69
-2.33
-2.73
-2.86
-2.71
-2.35
-1.88
-1.38
-0.90
-0.45
-0.01
0.41
0.79
1.10
1.30
1.39
1.43
1.46
1.53
1.66
1.82
1.98
2.10
2.21
2.30
2.39
2.43
2.39
2.26
2.08
1.90
1.79
1.78
1.84
1.91
1.94
1.91
1.82
1.69
1.54
1.35
1.10
0.76
0.34
-0.15
-0.67
-1.17
-1.63
-2.03
-2.40
-2.75
-3.07
-3.32
-3.46
-3.45
-3.31
-3.07
-2.81
-2.55
-2.32
-2.06
-1.76
-1.39
-0.97
-0.54
-0.14
0.22
0.51
0.76
0.95
1.13
1.32
1.54
1.77
1.97
2.12
2.21
2.29
2.45
2.70
2.97
3.12
2.98
2.48
1.68
0.80
0.05
-0.39
-0.49
-0.33
-0.08
0.09
0.09
-0.11
-0.47
-0.91
-1.37
-1.83
-2.30
-2.77
-3.20
-3.51
-3.60
-3.45
-3.11
-2.67
-2.24
-1.89
-1.57
-1.22
-0.77
-0.20
0.41
0.94
1.27
1.36
1.26
1.14
1.15
1.37
1.80
2.31
2.71
2.89
2.80
2.49
2.04
1.54
1.03
0.57
0.22
0.05
0.11
0.33
0.61
0.79
0.79
0.61
0.30
-0.05
-0.39
-0.67
-0.89
-1.05
-1.15
-1.20
-1.20
-1.17
-1.10
-0.96
-0.77
-0.55
-0.33
-0.12
0.07
0.27
0.49
0.73
0.94
1.10
1.20
1.29
1.39
1.51
1.62
1.67
1.65
1.56
1.45
1.35
1.27
1.21
1.21
1.27
1.38
1.48
1.53
1.48
1.35
1.20
1.09
1.01
0.92
0.76
0.49
0.18
-0.07
-0.16
-0.08
0.05
0.06
-0.17
-0.67
-1.35
-2.03
-2.58
-2.97
-3.25
-3.56
-3.97
-4.41
-4.77
-4.91
-4.77
-4.43
-4.01
-3.63
-3.32
-3.03
-2.66
-2.18
-1.63
-1.12
-0.76
-0.60
-0.57
-0.54
-0.38
-0.02
0.47
0.98
1.34
1.45
1.31
1.01
0.72
0.55
0.56
0.65
0.73
0.70
0.55
0.35
0.22
0.23
0.35
0.51
0.57
0.45
0.14
-0.26
-0.63
-0.86
-0.95
-0.99
-1.08
-1.34
-1.74
-2.22
-2.63
-2.88
-2.95
-2.92
-2.90
-2.93
-3.00
-3.04
-2.93
-2.65
-2.20
-1.67
-1.12
-0.61
-0.16
0.20
0.43
0.50
0.37
0.10
-0.22
-0.43
-0.41
-0.15
0.29
0.76
1.10
1.23
1.17
1.06
1.06
1.32
1.87
2.67
3.56
4.38
5.02
5.41
5.60
5.64
5.59
5.47
5.26
4.96
4.60
4.23
3.92
3.66
3.34
2.87
2.15
1.23
0.29
-0.45
-0.81
-0.73
-0.33
0.24
0.74
1.01
0.89
0.31
-0.77
-2.27
-3.98
-5.61
-6.87
-7.58
-7.72
-7.45
-6.96
-6.38
-5.72
-4.89
-3.87
-2.70
-1.59
-0.73
-0.22
0.02
0.17
0.47
1.01
1.76
2.57
3.28
3.78
4.05
4.14
4.12
4.05
4.00
4.00
4.07
4.17
4.28
4.33
4.29
4.16
3.93
3.61
3.24
2.87
2.57
2.46
2.62
3.06
3.75
4.58
5.44
6.20
6.72
6.89
6.57
5.65
4.12
2.04
-0.35
-2.72
-4.75
-6.17
-6.90
-6.98
-6.56
-5.82
-4.92
-3.97
-3.05
-2.20
-1.48
-0.95
-0.64
-0.51
-0.48
-0.39
-0.13
0.37
1.08
1.90
2.69
3.27
3.46
3.10
2.10
0.51
-1.46
-3.47
-5.14
-6.26
-6.82
-7.00
-7.05
-7.15
-7.34
-7.52
-7.55
-7.32
-6.81
-6.09
-5.27
-4.47
-3.78
-3.27
-3.02
-3.04
-3.31
-3.79
-4.40
-5.05
-5.68
-6.25
-6.72
-7.08
-7.29
-7.26
-6.90
-6.03
-4.48
-2.13
1.02
4.80
8.86
12.69
15.83
17.93
18.93
19.02
18.56
17.93
17.42
17.07
16.74
16.17
15.05
13.21
10.65
7.52
4.14
0.89
-1.90
-4.01
-5.40
-6.15
-6.44
-6.46
-6.33
-6.14
-5.89
-5.62
-5.39
-5.29
-5.40
-5.70
-6.09
-6.45
-6.67
-6.75
-6.76
-6.76
-6.78
-6.75
-6.56
-6.10
-5.30
-4.16
-2.73
-1.08
0.69
2.47
4.18
5.75
7.18
8.49
9.70
10.81
11.75
12.40
12.61
12.28
11.35
9.85
7.88
5.53
2.93
0.20
-2.57
-5.27
-7.81
-10.11
-12.10
-13.77
-15.14
-16.21
-16.98
-17.42
-17.51
-17.29
-16.90
-16.53
-16.34
-16.38
-16.62
-16.88
-17.00
-16.82
-16.24
-15.18
-13.59
-11.51
-9.02
-6.28
-3.50
-0.75
1.97
4.74
7.68
10.76
13.83
16.59
18.73
20.03
20.42
20.02
19.03
17.68
16.05
14.18
12.00
9.49
6.75
4.00
1.57
-0.23
-1.21
-1.34
-0.74
0.39
1.88
3.62
5.53
7.56
9.60
11.49
13.05
14.12
14.62
14.60
14.24
13.77
13.38
13.11
12.86
12.45
11.68
10.47
8.90
7.17
5.50
4.11
3.07
2.38
1.94
1.62
1.30
0.94
0.55
0.20
0.00
0.06
0.42
1.03
1.80
2.61
3.31
3.74
3.80
3.47
2.81
2.02
1.35
1.07
1.27
1.82
2.35
2.40
1.56
-0.35
-3.16
-6.42
-9.63
-12.34
-14.37
-15.78
-16.74
-17.45
-17.99
-18.35
-18.49
-18.38
-18.08
-17.65
-17.11
-16.43
-15.56
-14.50
-13.34
-12.20
-11.24
-10.48
-9.86
-9.26
-8.52
-7.55
-6.34
-4.95
-3.44
-1.91
-0.44
0.94
2.21
3.40
4.52
5.53
6.33
6.81
6.91
6.68
6.29
5.93
5.67
5.42
4.99
4.27
3.24
2.09
1.08
0.42
0.13
0.08
0.05
-0.13
-0.48
-0.94
-1.40
-1.78
-2.09
-2.37
-2.64
-2.89
-3.01
-2.90
-2.50
-1.85
-1.08
-0.36
0.18
0.52
0.76
1.00
1.35
1.81
2.32
2.78
3.16
3.53
3.97
4.52
5.11
5.61
5.90
5.91
5.72
5.49
5.33
5.32
5.41
5.48
5.41
5.11
4.54
3.76
2.89
2.08
1.48
1.20
1.21
1.38
1.51
1.38
0.90
0.05
-1.03
-2.17
-3.21
-4.00
-4.50
-4.70
-4.64
-4.33
-3.79
-3.06
-2.21
-1.35
-0.60
0.01
0.47
0.87
1.27
1.71
2.15
2.50
2.71
2.75
2.68
2.56
2.46
2.41
2.45
2.56
2.73
2.91
3.02
2.96
2.69
2.25
1.76
1.35
1.11
1.01
0.95
0.78
0.45
0.01
-0.43
-0.77
-1.04
-1.36
-1.90
-2.73
-3.77
-4.79
-5.62
-6.19
-6.57
-6.90
-7.24
-7.51
-7.55
-7.20
-6.40
-5.26
-3.96
-2.73
-1.71
-0.99
-0.58
-0.41
-0.43
-0.55
-0.66
-0.68
-0.55
-0.27
0.17
0.71
1.31
1.87
2.34
2.64
2.75
2.68
2.50
2.28
2.09
1.96
1.87
1.80
1.70
1.53
1.29
0.97
0.59
0.16
-0.28
-0.72
-1.11
-1.43
-1.66
-1.79
-1.84
-1.81
-1.74
-1.68
-1.68
-1.78
-1.97
-2.17
-2.26
-2.10
-1.59
-0.75
0.32
1.44
2.41
3.10
3.52
3.78
4.05
4.49
5.15
5.97
6.77
7.34
7.50
7.17
6.40
5.35
4.20
3.06
1.99
0.97
-0.01
-0.93
-1.68
-2.11
-2.14
-1.82
-1.33
-0.92
-0.78
-1.00
-1.47
-2.02
-2.45
-2.66
-2.65
-2.51
-2.30
-2.09
-1.90
-1.75
-1.65
-1.62
-1.67
-1.78
-1.95
-2.12
-2.24
-2.25
-2.13
-1.89
-1.59
-1.37
-1.30
-1.41
-1.60
-1.70
-1.53
-1.02
-0.26
0.56
1.19
1.50
1.50
1.35
1.25
1.36
1.75
2.30
2.88
3.32
3.54
3.57
3.51
3.44
3.43
3.44
3.40
3.26
2.98
2.60
2.16
1.68
1.16
0.56
-0.09
-0.77
-1.36
-1.80
-2.05
-2.18
-2.33
-2.59
-2.98
-3.37
-3.61
-3.54
-3.14
-2.50
-1.78
-1.08
-0.46
0.12
0.71
1.34
1.99
2.57
3.00
3.25
3.34
3.40
3.53
3.85
4.37
5.01
5.59
5.95
6.00
5.83
5.59
5.48
5.63
6.08
6.72
7.36
7.72
7.48
6.33
4.06
0.63
-3.76
-8.72
-13.74
-18.30
-21.92
-24.23
-25.06
-24.44
-22.67
-20.20
-17.54
-15.10
-13.10
-11.56
-10.37
-9.37
-8.42
-7.38
-6.18
-4.73
-3.06
-1.28
0.41
1.80
2.77
3.35
3.69
3.96
4.26
4.59
4.87
4.97
4.89
4.66
4.40
4.19
4.04
3.90
3.73
3.55
3.44
3.49
3.75
4.18
4.64
4.96
5.01
4.76
4.29
3.77
3.35
3.16
3.20
3.40
3.62
3.70
3.51
3.02
2.30
1.50
0.76
0.24
-0.02
-0.02
0.17
0.48
0.88
1.37
1.97
2.62
3.20
3.54
3.46
2.90
1.90
0.65
-0.62
-1.72
-2.55
-3.12
-3.50
-3.79
-4.00
-4.09
-3.98
-3.63
-3.06
-2.40
-1.81
-1.43
-1.28
-1.27
-1.27
-1.16
-0.91
-0.61
-0.37
-0.25
-0.29
-0.47
-0.77
-1.22
-1.84
-2.67
-3.67
-4.72
-5.65
-6.31
-6.59
-6.44
-5.92
-5.10
-4.08
-2.94
-1.65
-0.21
1.38
3.03
4.59
5.87
6.75
7.23
7.46
7.63
7.87
8.21
8.55
8.78
8.86
8.85
8.86
8.89
8.84
8.47
7.50
5.81
3.43
0.64
-2.23
-4.82
-6.91
-8.44
-9.50
-10.20
-10.70
-11.04
-11.23
-11.23
-11.07
-10.77
-10.40
-10.01
-9.61
-9.13
-8.53
-7.78
-6.93
-6.03
-5.15
-4.28
-3.33
-2.22
-0.83
0.86
2.81
4.91
6.97
8.79
10.19
11.05
11.41
11.36
11.07
10.73
10.47
10.35
10.38
10.49
10.57
10.52
10.28
9.84
9.26
8.70
8.26
8.01
7.91
7.83
7.58
7.04
6.08
4.69
2.88
0.72
-1.67
-4.14
-6.50
-8.56
-10.18
-11.33
-12.06
-12.48
-12.68
-12.74
-12.67
-12.44
-11.99
-11.27
-10.29
-9.08
-7.72
-6.32
-5.00
-3.84
-2.89
-2.14
-1.52
-0.90
-0.16
0.82
2.07
3.54
5.05
6.41
7.45
8.05
8.22
8.07
7.71
7.25
6.78
6.39
6.11
5.98
5.98
6.03
6.04
5.92
5.65
5.26
4.79
4.31
3.81
3.30
2.76
2.21
1.66
1.11
0.52
-0.12
-0.80
-1.44
-1.90
-2.08
-1.92
-1.47
-0.86
-0.20
0.40
0.92
1.35
1.69
1.88
1.90
1.73
1.43
1.14
0.98
1.00
1.14
1.27
1.25
1.04
0.74
0.50
0.46
0.63
0.93
1.22
1.38
1.37
1.19
0.85
0.35
-0.29
-1.02
-1.74
-2.35
-2.82
-3.16
-3.49
-3.84
-4.24
-4.61
-4.86
-5.00
-5.06
-5.16
-5.36
-5.62
-5.85
-5.91
-5.72
-5.31
-4.74
-4.09
-3.43
-2.75
-2.08
-1.39
-0.69
0.03
0.77
1.49
2.16
2.69
3.05
3.26
3.36
3.42
3.46
3.49
3.44
3.28
3.01
2.67
2.31
1.96
1.65
1.37
1.16
1.06
1.11
1.30
1.59
1.88
2.07
2.10
1.97
1.68
1.26
0.71
0.01
-0.84
-1.79
-2.77
-3.68
-4.45
-5.04
-5.44
-5.69
-5.81
-5.85
-5.82
-5.73
-5.57
-5.33
-4.94
-4.38
-3.69
-2.90
-2.09
-1.30
-0.51
0.33
1.23
2.15
2.99
3.61
3.95
4.03
3.97
3.89
3.92
4.08
4.33
4.57
4.73
4.78
4.69
4.47
4.14
3.72
3.23
2.76
2.38
2.14
2.06
2.10
2.17
2.17
2.04
1.70
1.14
0.39
-0.49
-1.42
-2.30
-3.09
-3.75
-4.28
-4.70
-5.02
-5.24
-5.29
-5.13
-4.71
-4.00
-3.04
-1.91
-0.78
0.20
0.89
1.29
1.50
1.72
2.14
2.82
3.70
4.55
5.17
5.41
5.34
5.10
4.82
4.56
4.26
3.83
3.23
2.54
1.94
1.60
1.59
1.86
2.23
2.53
2.64
2.52
2.19
1.67
1.02
0.30
-0.42
-1.05
-1.51
-1.77
-1.91
-2.09
-2.48
-3.21
-4.28
-5.53
-6.71
-7.60
-8.05
-8.06
-7.77
-7.34
-6.91
-6.55
-6.18
-5.69
-5.00
-4.10
-3.06
-2.00
-1.03
-0.21
0.49
1.11
1.70
2.26
2.75
3.13
3.34
3.41
3.41
3.42
3.52
3.69
3.86
3.92
3.76
3.38
2.87
2.38
2.00
1.75
1.53
1.23
0.80
0.27
-0.26
-0.74
-1.16
-1.60
-2.13
-2.78
-3.53
-4.31
-5.07
-5.79
-6.50
-7.19
-7.86
-8.44
-8.87
-9.10
-9.11
-8.86
-8.35
-7.55
-6.47
-5.09
-3.41
-1.49
0.57
2.60
4.39
5.79
6.71
7.18
7.34
7.35
7.31
7.25
7.14
6.93
6.60
6.22
5.88
5.67
5.64
5.71
5.78
5.67
5.30
4.65
3.83
2.99
2.29
1.84
1.66
1.69
1.84
1.94
1.86
1.48
0.74
-0.29
-1.42
-2.47
-3.28
-3.82
-4.18
-4.49
-4.83
-5.16
-5.35
-5.27
-4.86
-4.17
-3.35
-2.54
-1.84
-1.25
-0.72
-0.22
0.25
0.65
0.95
1.18
1.38
1.60
1.86
2.11
2.31
2.40
2.42
2.40
2.37
2.30
2.11
1.72
1.13
0.42
-0.23
-0.67
-0.85
-0.86
-0.90
-1.20
-1.91
-2.97
-4.18
-5.25
-5.93
-6.09
-5.76
-5.06
-4.13
-3.08
-2.11
-1.42
-1.27
-1.86
-3.18
-4.90
-6.48
-7.36
-7.25
-6.19
-4.58
-2.91
-1.55
-0.57
0.16
0.87
1.66
2.49
3.22
3.73
4.01
4.21
4.47
4.88
5.40
5.89
6.19
6.22
6.02
5.72
5.47
5.38
5.44
5.55
5.57
5.40
5.03
4.53
4.04
3.67
3.44
3.23
2.86
2.15
1.02
-0.39
-1.76
-2.75
-3.14
-2.91
-2.28
-1.56
-0.99
-0.62
-0.33
0.03
0.52
1.06
1.51
1.79
1.95
2.15
2.52
3.09
3.72
4.21
4.40
4.30
4.08
3.96
4.06
4.36
4.68
4.78
4.56
4.06
3.43
2.85
2.41
2.08
1.75
1.34
0.86
0.47
0.34
0.57
1.10
1.74
2.26
2.50
2.45
2.21
1.94
1.76
1.70
1.67
1.55
1.23
0.67
-0.11
-1.01
-1.94
-2.77
-3.45
-3.96
-4.30
-4.48
-4.48
-4.25
-3.78
-3.10
-2.35
-1.70
-1.28
-1.10
-1.10
-1.12
-1.05
-0.81
-0.45
-0.03
0.39
0.78
1.15
1.50
1.76
1.88
1.79
1.55
1.26
1.07
1.08
1.25
1.45
1.52
1.36
1.01
0.60
0.25
0.02
-0.15
-0.36
-0.72
-1.27
-2.01
-2.87
-3.75
-4.58
-5.32
-5.97
-6.58
-7.19
-7.83
-8.46
-9.00
-9.32
-9.33
-9.05
-8.54
-7.91
-7.20
-6.45
-5.61
-4.68
-3.66
-2.61
-1.61
-0.77
-0.12
0.31
0.54
0.65
0.71
0.79
0.96
1.20
1.47
1.67
1.72
1.62
1.41
1.21
1.17
1.32
1.65
2.03
2.33
2.47
2.46
2.38
2.29
2.23
2.17
2.04
1.82
1.53
1.18
0.82
0.45
0.05
-0.44
-1.05
-1.77
-2.55
-3.30
-3.90
-4.26
-4.35
-4.14
-3.67
-2.99
-2.15
-1.26
-0.39
0.36
0.94
1.34
1.62
1.84
2.08
2.34
2.60
2.82
3.03
3.25
3.49
3.73
3.94
4.10
4.22
4.35
4.48
4.58
4.58
4.40
4.03
3.53
3.01
2.59
2.30
2.09
1.82
1.41
0.85
0.24
-0.31
-0.70
-0.92
-1.07
-1.27
-1.61
-2.12
-2.77
-3.49
-4.23
-4.97
-5.72
-6.49
-7.23
-7.87
-8.27
-8.31
-7.85
-6.88
-5.51
-3.96
-2.50
-1.32
-0.46
0.18
0.77
1.39
2.04
2.60
3.00
3.22
3.34
3.43
3.56
3.74
3.91
4.06
4.16
4.21
4.17
4.03
3.76
3.42
3.09
2.86
2.78
2.82
2.91
2.96
2.95
2.88
2.73
2.48
2.10
1.53
0.79
-0.04
-0.85
-1.54
-2.05
-2.46
-2.89
-3.45
-4.17
-5.00
-5.81
-6.49
-6.95
-7.15
-7.07
-6.68
-5.94
-4.87
-3.54
-2.15
-0.90
0.04
0.63
0.95
1.15
1.39
1.78
2.32
2.95
3.58
4.11
4.48
4.63
4.57
4.35
4.05
3.76
3.58
3.56
3.69
3.89
4.05
4.07
3.94
3.68
3.36
3.03
2.70
2.32
1.87
1.38
0.91
0.52
0.24
0.03
-0.23
-0.62
-1.22
-2.00
-2.90
-3.85
-4.80
-5.73
-6.61
-7.39
-7.96
-8.21
-8.06
-7.46
-6.51
-5.34
-4.10
-2.92
-1.87
-0.96
-0.16
0.54
1.14
1.66
2.11
2.51
2.88
3.25
3.63
4.01
4.36
4.62
4.73
4.65
4.36
3.91
3.38
2.88
2.53
2.37
2.41
2.60
2.82
2.97
2.98
2.82
2.55
2.21
1.87
1.54
1.19
0.76
0.18
-0.56
-1.41
-2.30
-3.15
-3.89
-4.50
-4.99
-5.36
-5.62
-5.79
-5.88
-5.91
-5.91
-5.84
-5.69
-5.34
-4.75
-3.88
-2.80
-1.64
-0.56
0.29
0.84
1.12
1.24
1.32
1.48
1.79
2.23
2.72
3.16
3.43
3.49
3.38
3.21
3.09
3.10
3.22
3.38
3.49
3.47
3.32
3.10
2.85
2.59
2.32
2.03
1.74
1.48
1.34
1.35
1.46
1.59
1.60
1.39
0.96
0.35
-0.36
-1.09
-1.79
-2.44
-3.05
-3.57
-3.95
-4.13
-4.09
-3.85
-3.48
-3.04
-2.57
-2.06
-1.46
-0.74
0.04
0.79
1.35
1.61
1.56
1.32
1.05
0.94
1.08
1.43
1.86
2.25
2.50
2.63
2.70
2.77
2.84
2.86
2.77
2.55
2.23
1.91
1.67
1.52
1.42
1.29
1.06
0.71
0.24
-0.31
-0.88
-1.45
-1.99
-2.45
-2.79
-3.03
-3.22
-3.44
-3.80
-4.34
-5.05
-5.85
-6.60
-7.12
-7.31
-7.16
-6.72
-6.13
-5.48
-4.80
-4.06
-3.24
-2.32
-1.39
-0.53
0.19
0.76
1.20
1.56
1.79
1.86
1.76
1.55
1.37
1.36
1.58
1.97
2.37
2.62
2.61
2.32
1.84
1.29
0.79
0.45
0.32
0.44
0.78
1.24
1.70
1.99
2.01
1.75
1.30
0.80
0.39
0.16
0.12
0.22
0.33
0.37
0.26
-0.04
-0.56
-1.31
-2.23
-3.22
-4.10
-4.70
-4.87
-4.58
-3.93
-3.11
-2.32
-1.71
-1.31
-1.03
-0.74
-0.29
0.39
1.26
2.26
3.25
4.13
4.82
5.31
5.64
5.89
6.10
6.27
6.39
6.44
6.38
6.24
6.03
5.75
5.44
5.10
4.74
4.39
4.03
3.63
3.17
2.62
2.01
1.37
0.72
0.06
-0.67
-1.53
-2.55
-3.68
-4.81
-5.81
-6.57
-7.03
-7.25
-7.35
-7.46
-7.70
-8.10
-8.59
-9.05
-9.32
-9.27
-8.85
-8.12
-7.19
-6.21
-5.25
-4.28
-3.23
-1.97
-0.44
1.25
2.86
4.10
4.75
4.72
4.16
3.34
2.57
2.07
1.93
2.12
2.51
2.95
3.35
3.67
3.88
3.98
3.94
3.76
3.43
3.00
2.55
2.17
1.88
1.68
1.49
1.25
0.91
0.52
0.13
-0.16
-0.34
-0.45
-0.60
-0.89
-1.39
-2.12
-2.97
-3.81
-4.47
-4.82
-4.79
-4.42
-3.82
-3.14
-2.52
-2.04
-1.70
-1.43
-1.14
-0.77
-0.28
0.29
0.88
1.42
1.87
2.21
2.46
2.63
2.72
2.74
2.67
2.52
2.34
2.18
2.11
2.16
2.31
2.52
2.72
2.83
2.82
2.66
2.41
2.11
1.84
1.63
1.52
1.45
1.34
1.11
0.72
0.20
-0.36
-0.88
-1.30
-1.63
-1.93
-2.28
-2.74
-3.33
-3.97
-4.58
-5.02
-5.17
-4.94
-4.35
-3.46
-2.41
-1.35
-0.40
0.40
1.03
1.49
1.77
1.86
1.77
1.61
1.53
1.65
1.99
2.43
2.72
2.69
2.29
1.68
1.15
0.96
1.20
1.76
2.39
2.84
2.97
2.83
2.56
2.35
2.24
2.20
2.09
1.76
1.16
0.38
-0.44
-1.14
-1.64
-2.00
-2.34
-2.80
-3.42
-4.10
-4.67
-5.01
-5.11
-5.08
-5.10
-5.21
-5.38
-5.43
-5.20
-4.65
-3.87
-3.04
-2.33
-1.82
-1.47
-1.14
-0.73
-0.21
0.37
0.95
1.43
1.82
2.14
2.43
2.72
3.04
3.34
3.61
3.81
3.93
3.99
4.00
3.98
3.86
3.60
3.13
2.44
1.59
0.69
-0.08
-0.63
-0.92
-1.00
-1.00
-1.03
-1.20
-1.57
-2.13
-2.85
-3.67
-4.52
-5.35
-6.09
-6.74
-7.24
-7.54
-7.54
-7.17
-6.40
-5.35
-4.22
-3.21
-2.45
-1.90
-1.42
-0.85
-0.11
0.72
1.53
2.19
2.64
2.90
3.02
3.04
3.02
2.95
2.87
2.78
2.70
2.67
2.72
2.85
3.04
3.21
3.23
3.05
2.67
2.24
1.91
1.79
1.86
1.98
2.01
1.84
1.50
1.07
0.61
0.13
-0.39
-0.99
-1.65
-2.29
-2.87
-3.36
-3.80
-4.20
-4.51
-4.66
-4.57
-4.21
-3.67
-3.08
-2.56
-2.12
-1.70
-1.16
-0.41
0.56
1.59
2.52
3.20
3.58
3.72
3.73
3.72
3.74
3.79
3.84
3.87
3.88
3.86
3.79
3.62
3.32
2.89
2.38
1.84
1.32
0.84
0.38
-0.07
-0.54
-0.99
-1.38
-1.64
-1.81
-1.95
-2.19
-2.63
-3.29
-4.10
-4.93
-5.66
-6.22
-6.63
-6.95
-7.24
-7.47
-7.63
-7.67
-7.57
-7.35
-6.96
-6.32
-5.30
-3.83
-1.93
0.25
2.45
4.43
6.03
7.21
7.99
8.50
8.79
8.92
8.92
8.79
8.57
8.28
7.92
7.49
6.98
6.39
5.71
4.98
4.18
3.33
2.43
1.51
0.65
-0.10
-0.71
-1.21
-1.70
-2.25
-2.88
-3.52
-4.07
-4.45
-4.66
-4.76
-4.82
-4.88
-4.91
-4.84
-4.64
-4.31
-3.88
-3.42
-2.95
-2.47
-1.94
-1.34
-0.67
0.07
0.80
1.46
1.99
2.38
2.70
3.05
3.50
4.09
4.72
5.28
5.67
5.86
5.91
5.93
5.97
6.00
5.95
5.74
5.34
4.80
4.22
3.67
3.15
2.58
1.86
0.94
-0.16
-1.36
-2.51
-3.51
-4.31
-4.92
-5.38
-5.74
-6.02
-6.18
-6.17
-5.89
-5.30
-4.39
-3.24
-1.96
-0.69
0.46
1.40
2.09
2.55
2.76
2.76
2.60
2.38
2.24
2.27
2.50
2.85
3.18
3.34
3.23
2.90
2.45
2.07
1.88
1.94
2.18
2.46
2.63
2.57
2.28
1.80
1.27
0.78
0.38
0.04
-0.35
-0.90
-1.66
-2.58
-3.56
-4.47
-5.24
-5.86
-6.33
-6.67
-6.83
-6.77
-6.41
-5.75
-4.80
-3.68
-2.51
-1.39
-0.42
0.34
0.89
1.29
1.64
2.05
2.63
3.39
4.26
5.11
5.81
6.30
6.56
6.67
6.68
6.58
6.35
5.93
5.33
4.65
4.03
3.61
3.42
3.39
3.37
3.24
2.94
2.51
2.06
1.63
1.26
0.91
0.55
0.15
-0.25
-0.65
-1.03
-1.39
-1.76
-2.17
-2.66
-3.26
-3.99
-4.81
-5.62
-6.25
-6.52
-6.32
-5.67
-4.72
-3.68
-2.69
-1.82
-0.99
-0.11
0.92
2.10
3.37
4.59
5.60
6.24
6.42
6.15
5.54
4.75
3.96
3.32
2.90
2.67
2.60
2.62
2.70
2.80
2.91
3.01
3.09
3.19
3.32
3.46
3.53
3.44
3.15
2.69
2.15
1.66
1.26
0.89
0.40
-0.37
-1.48
-2.84
-4.28
-5.61
-6.74
-7.65
-8.39
-9.00
-9.44
-9.70
-9.78
-9.77
-9.77
-9.82
-9.83
-9.66
-9.17
-8.34
-7.29
-6.26
-5.46
-4.99
-4.80
-4.78
-4.78
-4.70
-4.48
-4.14
-3.70
-3.15
-2.48
-1.65
-0.62
0.62
2.03
3.51
4.93
6.18
7.21
8.01
8.58
8.90
8.87
8.44
7.59
6.42
5.13
3.91
2.88
2.09
1.47
0.90
0.27
-0.55
-1.56
-2.74
-3.96
-5.04
-5.79
-6.08
-5.87
-5.23
-4.30
-3.27
-2.23
-1.25
-0.27
0.75
1.81
2.83
3.64
4.08
4.11
3.80
3.29
2.73
2.20
1.73
1.33
1.06
0.97
1.11
1.43
1.80
2.10
2.26
2.27
2.18
2.00
1.72
1.32
0.85
0.40
0.11
0.02
0.10
0.21
0.24
0.10
-0.21
-0.66
-1.27
-2.06
-3.04
-4.16
-5.28
-6.23
-6.82
-7.02
-6.84
-6.41
-5.86
-5.24
-4.56
-3.79
-2.90
-1.95
-0.98
-0.07
0.77
1.55
2.30
3.00
3.62
4.10
4.37
4.43
4.32
4.08
3.81
3.56
3.42
3.42
3.57
3.79
3.98
4.02
3.87
3.59
3.31
3.15
3.18
3.36
3.59
3.72
3.65
3.34
2.80
2.10
1.31
0.53
-0.13
-0.58
-0.77
-0.77
-0.74
-0.88
-1.36
-2.22
-3.37
-4.53
-5.45
-5.93
-5.94
-5.61
-5.08
-4.45
-3.74
-2.93
-2.01
-1.04
-0.15
0.52
0.92
1.14
1.34
1.66
2.17
2.83
3.52
4.16
4.71
5.17
5.53
5.78
5.92
5.92
5.83
5.72
5.66
5.70
5.80
5.89
5.87
5.65
5.19
4.57
3.87
3.23
2.74
2.43
2.26
2.11
1.88
1.52
1.03
0.45
-0.19
-0.84
-1.49
-2.09
-2.59
-2.95
-3.21
-3.43
-3.70
-4.03
-4.37
-4.64
-4.71
-4.54
-4.13
-3.52
-2.76
-1.86
-0.84
0.26
1.34
2.27
2.95
3.34
3.43
3.31
3.08
2.81
2.57
2.42
2.36
2.40
2.47
2.49
2.34
1.98
1.48
0.99
0.69
0.70
1.01
1.46
1.82
1.92
1.69
1.17
0.51
-0.20
-0.90
-1.57
-2.20
-2.73
-3.13
-3.42
-3.69
-4.07
-4.66
-5.46
-6.35
-7.11
-7.57
-7.67
-7.46
-7.08
-6.65
-6.22
-5.76
-5.21
-4.54
-3.77
-3.01
-2.34
-1.79
-1.30
-0.78
-0.15
0.60
1.42
2.21
2.86
3.31
3.50
3.44
3.16
2.73
2.26
1.89
1.71
1.76
2.00
2.28
2.49
2.53
2.37
2.06
1.65
1.22
0.82
0.47
0.21
0.03
-0.07
-0.14
-0.24
-0.44
-0.79
-1.30
-1.91
-2.51
-2.98
-3.27
-3.39
-3.46
-3.63
-4.00
-4.57
-5.25
-5.82
-6.10
-5.97
-5.43
-4.61
-3.67
-2.76
-2.00
-1.41
-0.97
-0.65
-0.40
-0.17
0.07
0.36
0.71
1.10
1.50
1.82
1.97
1.89
1.60
1.22
0.92
0.84
1.05
1.48
2.01
2.50
2.83
2.96
2.88
2.59
2.12
1.52
0.88
0.27
-0.24
-0.63
-0.91
-1.13
-1.31
-1.44
-1.52
-1.58
-1.68
-1.88
-2.22
-2.65
-3.09
-3.43
-3.56
-3.43
-3.08
-2.55
-1.94
-1.35
-0.81
-0.33
0.11
0.55
0.99
1.42
1.81
2.13
2.39
2.60
2.82
3.05
3.31
3.55
3.72
3.77
3.69
3.50
3.26
3.04
2.85
2.72
2.60
2.47
2.32
2.15
1.98
1.81
1.60
1.32
0.95
0.50
0.03
-0.44
-0.92
-1.43
-2.00
-2.61
-3.20
-3.73
-4.15
-4.47
-4.70
-4.81
-4.76
-4.46
-3.89
-3.08
-2.17
-1.28
-0.53
0.01
0.35
0.54
0.66
0.82
1.13
1.67
2.37
3.09
3.66
3.90
3.79
3.42
2.95
2.53
2.25
2.10
2.08
2.17
2.37
2.63
2.85
2.92
2.71
2.23
1.58
0.96
0.53
0.35
0.36
0.41
0.36
0.11
-0.36
-1.03
-1.88
-2.89
-4.02
-5.22
-6.34
-7.24
-7.76
-7.84
-7.52
-6.92
-6.19
-5.45
-4.73
-4.01
-3.24
-2.37
-1.40
-0.40
0.57
1.44
2.15
2.69
3.04
3.22
3.25
3.21
3.15
3.14
3.17
3.21
3.20
3.07
2.84
2.53
2.23
2.02
1.91
1.84
1.67
1.30
0.73
0.05
-0.55
-0.93
-1.09
-1.16
-1.35
-1.81
-2.53
-3.36
-4.09
-4.58
-4.78
-4.80
-4.72
-4.55
-4.26
-3.80
-3.17
-2.47
-1.84
-1.39
-1.14
-1.03
-0.91
-0.66
-0.21
0.39
1.08
1.76
2.37
2.89
3.30
3.59
3.68
3.53
3.13
2.55
1.97
1.55
1.39
1.48
1.65
1.72
1.57
1.18
0.65
0.09
-0.39
-0.79
-1.14
-1.47
-1.82
-2.14
-2.39
-2.55
-2.65
-2.78
-3.09
-3.65
-4.49
-5.44
-6.31
-6.87
-6.99
-6.63
-5.89
-4.96
-4.02
-3.19
-2.52
-1.95
-1.39
-0.72
0.07
0.93
1.73
2.38
2.84
3.15
3.37
3.50
3.50
3.31
2.94
2.49
2.13
1.97
2.01
2.16
2.26
2.23
2.06
1.79
1.43
1.00
0.48
-0.09
-0.63
-1.02
-1.21
-1.22
-1.16
-1.18
-1.45
-2.00
-2.83
-3.82
-4.83
-5.75
-6.46
-6.91
-7.08
-6.92
-6.45
-5.71
-4.82
-3.91
-3.12
-2.48
-1.90
-1.22
-0.29
0.89
2.20
3.45
4.44
5.11
5.48
5.66
5.72
5.70
5.63
5.51
5.39
5.31
5.31
5.36
5.40
5.37
5.19
4.87
4.39
3.82
3.19
2.58
2.02
1.53
1.10
0.73
0.39
0.08
-0.22
-0.52
-0.88
-1.34
-1.93
-2.66
-3.49
-4.34
-5.12
-5.74
-6.11
-6.19
-6.00
-5.57
-4.97
-4.29
-3.56
-2.80
-1.95
-0.95
0.20
1.45
2.66
3.70
4.43
4.84
5.00
5.05
5.12
5.27
5.47
5.66
5.76
5.73
5.59
5.41
5.24
5.08
4.91
4.69
4.40
4.10
3.84
3.65
3.52
3.39
3.21
2.97
2.69
2.43
2.18
1.90
1.48
0.86
0.04
-0.86
-1.70
-2.36
-2.82
-3.19
-3.62
-4.23
-5.06
-6.06
-7.06
-7.90
-8.42
-8.56
-8.35
-7.84
-7.08
-6.12
-5.00
-3.77
-2.56
-1.45
-0.50
0.34
1.16
2.04
2.90
3.61
4.00
4.05
3.88
3.76
3.87
4.26
4.79
5.23
5.42
5.33
5.09
4.88
4.76
4.70
4.56
4.25
3.79
3.28
2.85
2.58
2.44
2.34
2.12
1.71
1.08
0.27
-0.59
-1.38
-2.02
-2.46
-2.74
-2.98
-3.29
-3.80
-4.55
-5.51
-6.59
-7.68
-8.66
-9.40
-9.80
-9.76
-9.19
-8.12
-6.65
-4.98
-3.33
-1.89
-0.76
0.10
0.79
1.44
2.17
3.02
3.94
4.83
5.57
6.08
6.32
6.33
6.20
6.06
6.01
6.07
6.24
6.47
6.70
6.90
7.00
6.97
6.76
6.37
5.85
5.25
4.65
4.07
3.55
3.07
2.60
2.14
1.66
1.19
0.72
0.29
-0.09
-0.45
-0.85
-1.44
-2.33
-3.59
-5.13
-6.73
-8.11
-9.01
-9.27
-8.90
-8.04
-6.86
-5.55
-4.23
-3.01
-1.91
-0.95
-0.10
0.68
1.43
2.16
2.88
3.55
4.14
4.65
5.10
5.56
6.01
6.41
6.67
6.76
6.69
6.54
6.40
6.28
6.11
5.79
5.27
4.62
3.97
3.45
3.09
2.82
2.50
2.02
1.39
0.66
-0.07
-0.79
-1.50
-2.25
-3.04
-3.80
-4.46
-4.98
-5.35
-5.66
-5.99
-6.45
-7.08
-7.88
-8.76
-9.63
-10.34
-10.72
-10.64
-10.05
-8.98
-7.55
-5.96
-4.42
-3.04
-1.87
-0.87
0.05
1.00
1.97
2.90
3.69
4.26
4.65
4.91
5.15
5.42
5.69
5.92
6.09
6.22
6.34
6.45
6.50
6.38
6.02
5.42
4.71
4.05
3.58
3.35
3.28
3.26
3.12
2.80
2.28
1.61
0.91
0.26
-0.31
-0.81
-1.30
-1.88
-2.57
-3.36
-4.17
-4.92
-5.54
-6.06
-6.52
-6.96
-7.36
-7.62
-7.60
-7.16
-6.29
-5.05
-3.61
-2.13
-0.75
0.44
1.41
2.12
2.59
2.85
3.02
3.22
3.54
3.96
4.37
4.65
4.71
4.61
4.46
4.40
4.45
4.53
4.50
4.28
3.86
3.38
2.98
2.78
2.75
2.76
2.65
2.29
1.68
0.92
0.17
-0.46
-0.93
-1.34
-1.80
-2.41
-3.18
-4.05
-4.93
-5.76
-6.53
-7.25
-7.95
-8.59
-9.08
-9.28
-9.08
-8.47
-7.51
-6.36
-5.16
-4.03
-2.96
-1.90
-0.80
0.37
1.53
2.60
3.51
4.27
4.91
5.49
6.01
6.40
6.62
6.63
6.45
6.19
5.92
5.68
5.48
5.27
5.01
4.73
4.45
4.25
4.13
4.08
4.00
3.82
3.43
2.80
1.96
1.03
0.15
-0.54
-1.02
-1.38
-1.80
-2.46
-3.47
-4.81
-6.35
-7.90
-9.28
-10.38
-11.12
-11.47
-11.40
-10.93
-10.13
-9.14
-8.10
-7.13
-6.28
-5.50
-4.71
-3.79
-2.72
-1.50
-0.22
1.00
2.03
2.81
3.29
3.50
3.49
3.37
3.19
3.02
2.85
2.70
2.54
2.36
2.16
1.94
1.71
1.49
1.27
1.01
0.68
0.28
-0.08
-0.28
-0.20
0.19
0.79
1.41
1.85
2.02
1.95
1.74
1.48
1.19
0.80
0.28
-0.35
-0.94
-1.33
-1.40
-1.11
-0.58
0.01
0.50
0.80
0.91
0.91
0.89
0.87
0.87
0.85
0.80
0.77
0.83
1.08
1.54
2.14
2.77
3.30
3.62
3.73
3.67
3.51
3.32
3.16
3.02
2.93
2.89
2.89
2.93
2.94
2.79
2.39
1.70
0.76
-0.26
-1.20
-1.94
-2.47
-2.92
-3.42
-4.08
-4.91
-5.85
-6.85
-7.84
-8.80
-9.70
-10.46
-10.98
-11.17
-10.97
-10.40
-9.51
-8.38
-7.04
-5.52
-3.83
-2.01
-0.10
1.76
3.42
4.76
5.70
6.25
6.53
6.69
6.87
7.17
7.60
8.14
8.75
9.33
9.79
10.05
10.01
9.69
9.16
8.54
7.98
7.52
7.12
6.69
6.13
5.41
4.55
3.65
2.79
1.99
1.22
0.36
-0.70
-2.02
-3.57
-5.19
-6.69
-7.88
-8.68
-9.15
-9.45
-9.70
-9.92
-9.96
-9.62
-8.74
-7.33
-5.55
-3.67
-1.91
-0.33
1.08
2.42
3.72
4.96
6.07
7.04
7.90
8.70
9.45
10.06
10.34
10.09
9.23
7.86
6.23
4.67
3.40
2.49
1.86
1.35
0.78
0.11
-0.66
-1.45
-2.20
-2.89
-3.56
-4.20
-4.78
-5.22
-5.41
-5.34
-5.09
-4.88
-4.92
-5.34
-6.14
-7.16
-8.24
-9.23
-10.04
-10.61
-10.91
-10.86
-10.45
-9.73
-8.82
-7.90
-7.04
-6.25
-5.39
-4.31
-2.95
-1.38
0.21
1.62
2.72
3.53
4.11
4.60
5.11
5.67
6.30
6.95
7.57
8.11
8.53
8.81
8.93
8.90
8.72
8.40
7.94
7.33
6.55
5.62
4.60
3.55
2.57
1.70
0.97
0.34
-0.23
-0.79
-1.35
-1.93
-2.51
-3.07
-3.65
-4.26
-4.93
-5.66
-6.40
-7.07
-7.58
-7.83
-7.78
-7.40
-6.74
-5.83
-4.70
-3.38
-1.95
-0.50
0.83
1.89
2.64
3.11
3.42
3.68
3.97
4.32
4.68
5.05
5.41
5.77
6.11
6.36
6.47
6.35
5.99
5.41
4.68
3.90
3.15
2.52
2.05
1.75
1.55
1.32
0.93
0.35
-0.38
-1.12
-1.72
-2.13
-2.41
-2.71
-3.19
-3.89
-4.74
-5.60
-6.31
-6.86
-7.27
-7.65
-8.01
-8.27
-8.26
-7.84
-6.99
-5.79
-4.42
-3.04
-1.79
-0.70
0.21
0.94
1.49
1.91
2.26
2.60
3.01
3.49
4.04
4.60
5.12
5.51
5.70
5.64
5.34
4.88
4.38
3.99
3.79
3.72
3.67
3.49
3.10
2.55
1.95
1.42
0.99
0.64
0.28
-0.12
-0.56
-0.99
-1.34
-1.64
-1.99
-2.49
-3.19
-4.04
-4.90
-5.65
-6.22
-6.60
-6.80
-6.83
-6.61
-6.07
-5.16
-3.97
-2.64
-1.35
-0.19
0.84
1.80
2.75
3.69
4.57
5.32
5.94
6.44
6.83
7.08
7.12
6.88
6.37
5.68
4.96
4.35
3.93
3.66
3.44
3.21
2.93
2.63
2.31
1.96
1.51
0.93
0.29
-0.27
-0.58
-0.58
-0.37
-0.17
-0.22
-0.63
-1.37
-2.27
-3.15
-3.94
-4.71
-5.58
-6.63
-7.81
-8.90
-9.69
-10.01
-9.84
-9.31
-8.55
-7.68
-6.75
-5.74
-4.60
-3.37
-2.12
-0.96
0.01
0.75
1.25
1.61
1.91
2.26
2.73
3.35
4.07
4.80
5.42
5.84
6.06
6.13
6.14
6.15
6.14
6.04
5.77
5.30
4.70
4.09
3.57
3.16
2.79
2.37
1.79
1.07
0.31
-0.33
-0.73
-0.90
-0.92
-0.95
-1.13
-1.49
-2.01
-2.61
-3.25
-3.91
-4.59
-5.21
-5.68
-5.88
-5.72
-5.22
-4.52
-3.77
-3.06
-2.40
-1.68
-0.84
0.14
1.15
2.04
2.73
3.18
3.49
3.76
4.03
4.30
4.49
4.56
4.50
4.34
4.14
3.94
3.77
3.64
3.57
3.54
3.55
3.55
3.51
3.41
3.26
3.08
2.90
2.69
2.41
2.02
1.47
0.78
0.03
-0.70
-1.36
-1.93
-2.48
-3.13
-3.93
-4.90
-5.97
-7.00
-7.88
-8.52
-8.85
-8.90
-8.71
-8.34
-7.85
-7.27
-6.62
-5.83
-4.87
-3.74
-2.51
-1.34
-0.40
0.21
0.46
0.45
0.30
0.11
-0.06
-0.20
-0.32
-0.43
-0.47
-0.40
-0.19
0.12
0.46
0.77
1.04
1.32
1.67
2.12
2.56
2.83
2.78
2.35
1.68
1.00
0.53
0.38
0.45
0.54
0.43
0.01
-0.69
-1.53
-2.34
-3.03
-3.56
-4.03
-4.52
-5.14
-5.85
-6.52
-6.93
-6.93
-6.44
-5.59
-4.56
-3.54
-2.59
-1.66
-0.64
0.48
1.60
2.54
3.14
3.42
3.53
3.66
3.95
4.38
4.81
5.09
5.13
4.99
4.78
4.60
4.50
4.43
4.34
4.21
4.05
3.89
3.75
3.61
3.42
3.16
2.81
2.44
2.09
1.80
1.56
1.28
0.92
0.43
-0.13
-0.72
-1.30
-1.90
-2.56
-3.32
-4.15
-4.90
-5.36
-5.37
-4.85
-3.90
-2.73
-1.57
-0.56
0.23
0.84
1.35
1.79
2.19
2.54
2.87
3.22
3.63
4.16
4.79
5.48
6.13
6.65
6.96
7.04
6.88
6.48
5.87
5.07
4.12
3.12
2.17
1.40
0.84
0.47
0.17
-0.16
-0.60
-1.10
-1.57
-1.90
-2.05
-2.09
-2.15
-2.41
-2.98
-3.87
-4.97
-6.08
-7.02
-7.62
-7.85
-7.81
-7.65
-7.53
-7.53
-7.64
-7.74
-7.68
-7.38
-6.78
-5.85
-4.64
-3.22
-1.74
-0.38
0.67
1.30
1.55
1.59
1.64
1.83
2.20
2.66
3.08
3.40
3.61
3.72
3.77
3.74
3.59
3.32
2.95
2.53
2.14
1.80
1.55
1.40
1.38
1.50
1.70
1.89
1.92
1.70
1.20
0.53
-0.16
-0.71
-1.07
-1.31
-1.57
-2.00
-2.61
-3.32
-4.00
-4.56
-4.99
-5.36
-5.75
-6.16
-6.52
-6.78
-6.93
-7.08
-7.35
-7.81
-8.41
-8.92
-9.12
-8.90
-8.34
-7.68
-7.19
-7.00
-7.10
-7.32
-7.47
-7.44
-7.21
-6.78
-6.13
-5.11
-3.57
-1.42
1.26
4.26
7.24
9.87
11.93
13.31
14.03
14.21
14.01
13.57
13.02
12.43
11.88
11.39
10.99
10.62
10.18
9.55
8.58
7.17
5.30
3.09
0.72
-1.58
-3.59
-5.13
-6.12
-6.55
-6.50
-6.11
-5.49
-4.71
-3.77
-2.64
-1.34
0.03
1.29
2.23
2.72
2.77
2.50
2.13
1.83
1.65
1.57
1.49
1.36
1.25
1.27
1.48
1.88
2.31
2.57
2.50
2.09
1.48
0.91
0.58
0.56
0.77
1.01
1.05
0.80
0.25
-0.46
-1.19
-1.80
-2.27
-2.63
-2.98
-3.36
-3.80
-4.28
-4.76
-5.23
-5.68
-6.13
-6.56
-6.91
-7.08
-7.01
-6.69
-6.17
-5.53
-4.82
-4.04
-3.15
-2.12
-1.02
0.04
0.91
1.51
1.89
2.16
2.42
2.72
3.02
3.24
3.34
3.32
3.26
3.26
3.36
3.59
3.87
4.12
4.24
4.15
3.83
3.33
2.76
2.26
1.94
1.80
1.78
1.76
1.68
1.48
1.19
0.82
0.40
-0.08
-0.59
-1.13
-1.71
-2.34
-3.07
-3.92
-4.84
-5.71
-6.38
-6.71
-6.63
-6.17
-5.42
-4.49
-3.47
-2.44
-1.48
-0.64
0.00
0.44
0.70
0.82
0.92
1.11
1.46
2.01
2.69
3.39
3.97
4.34
4.45
4.34
4.12
3.89
3.75
3.74
3.83
4.00
4.16
4.23
4.15
3.88
3.42
2.82
2.18
1.62
1.22
1.00
0.91
0.82
0.60
0.17
-0.45
-1.20
-1.96
-2.66
-3.25
-3.78
-4.28
-4.77
-5.19
-5.42
-5.37
-4.96
-4.23
-3.31
-2.34
-1.43
-0.64
0.09
0.82
1.60
2.42
3.19
3.83
4.25
4.46
4.49
4.44
4.42
4.53
4.82
5.23
5.65
5.95
6.00
5.81
5.46
5.08
4.76
4.50
4.23
3.87
3.43
2.94
2.49
2.12
1.80
1.45
0.99
0.40
-0.28
-1.00
-1.72
-2.42
-3.12
-3.82
-4.53
-5.28
-6.08
-6.94
-7.82
-8.61
-9.16
-9.33
-9.06
-8.37
-7.40
-6.27
-5.08
-3.86
-2.61
-1.40
-0.36
0.37
0.68
0.60
0.29
-0.01
-0.06
0.23
0.82
1.56
2.24
2.71
2.96
3.05
3.09
3.17
3.29
3.39
3.40
3.32
3.22
3.18
3.25
3.38
3.40
3.18
2.64
1.86
1.01
0.28
-0.23
-0.53
-0.76
-1.07
-1.56
-2.25
-3.07
-3.90
-4.62
-5.17
-5.53
-5.71
-5.71
-5.54
-5.15
-4.52
-3.64
-2.54
-1.29
0.01
1.26
2.32
3.09
3.51
3.58
3.37
3.01
2.66
2.44
2.43
2.63
2.98
3.40
3.79
4.04
4.08
3.88
3.50
3.01
2.51
2.05
1.65
1.28
0.92
0.56
0.23
-0.05
-0.28
-0.52
-0.83
-1.23
-1.76
-2.38
-3.06
-3.78
-4.52
-5.29
-6.09
-6.92
-7.76
-8.58
-9.29
-9.74
-9.81
-9.41
-8.58
-7.43
-6.13
-4.86
-3.71
-2.74
-1.93
-1.29
-0.81
-0.44
-0.13
0.20
0.66
1.27
1.97
2.66
3.20
3.51
3.61
3.59
3.60
3.74
4.03
4.40
4.70
4.76
4.52
4.01
3.34
2.68
2.17
1.85
1.66
1.49
1.25
0.91
0.52
0.17
-0.09
-0.29
-0.54
-0.94
-1.57
-2.39
-3.31
-4.19
-4.94
-5.51
-5.88
-6.03
-5.92
-5.50
-4.76
-3.79
-2.69
-1.63
-0.73
0.00
0.59
1.14
1.71
2.30
2.85
3.27
3.56
3.75
3.95
4.20
4.51
4.81
5.01
5.08
5.04
4.96
4.91
4.93
4.99
5.03
5.01
4.88
4.62
4.21
3.66
2.99
2.27
1.60
1.04
0.59
0.20
-0.21
-0.68
-1.22
-1.80
-2.38
-2.99
-3.68
-4.50
-5.45
-6.43
-7.26
-7.79
-7.89
-7.58
-6.95
-6.11
-5.18
-4.23
-3.25
-2.26
-1.26
-0.28
0.64
1.47
2.18
2.78
3.28
3.70
4.05
4.32
4.52
4.66
4.74
4.79
4.86
4.96
5.07
5.17
5.17
5.03
4.75
4.36
3.94
3.58
3.32
3.17
3.08
2.97
2.76
2.40
1.90
1.29
0.67
0.10
-0.39
-0.86
-1.40
-2.11
-3.00
-4.01
-5.04
-5.96
-6.71
-7.27
-7.66
-7.90
-7.93
-7.70
-7.16
-6.31
-5.24
-4.05
-2.84
-1.66
-0.56
0.44
1.32
2.08
2.73
3.33
3.90
4.44
4.88
5.12
5.15
4.99
4.80
4.71
4.81
5.09
5.44
5.74
5.91
5.93
5.84
5.68
5.50
5.32
5.14
4.94
4.68
4.32
3.83
3.26
2.68
2.18
1.83
1.63
1.55
1.47
1.27
0.82
0.03
-1.10
-2.49
-3.95
-5.25
-6.19
-6.69
-6.76
-6.52
-6.07
-5.47
-4.71
-3.75
-2.62
-1.38
-0.13
1.03
2.07
3.01
3.94
4.91
5.89
6.82
7.60
8.17
8.56
8.79
8.89
8.84
8.55
7.97
7.10
6.07
5.01
4.08
3.35
2.82
2.47
2.24
2.08
1.94
1.71
1.29
0.63
-0.27
-1.31
-2.34
-3.24
-3.96
-4.54
-5.04
-5.57
-6.17
-6.86
-7.66
-8.53
-9.50
-10.53
-11.59
-12.55
-13.27
-13.59
-13.44
-12.85
-11.95
-10.92
-9.88
-8.88
-7.86
-6.76
-5.53
-4.22
-2.91
-1.67
-0.57
0.41
1.29
2.08
2.71
3.08
3.13
2.88
2.44
2.03
1.84
1.95
2.25
2.55
2.63
2.36
1.81
1.16
0.66
0.49
0.66
1.11
1.70
2.30
2.80
3.13
3.21
2.95
2.37
1.55
0.66
-0.07
-0.54
-0.77
-0.87
-1.06
-1.49
-2.19
-3.11
-4.14
-5.12
-5.91
-6.37
-6.40
-5.96
-5.10
-3.95
-2.66
-1.37
-0.12
1.07
2.22
3.31
4.28
5.07
5.68
6.11
6.43
6.66
6.79
6.80
6.67
6.45
6.21
6.07
6.07
6.18
6.34
6.44
6.41
6.22
5.87
5.38
4.79
4.17
3.59
3.10
2.68
2.29
1.89
1.46
1.02
0.60
0.18
-0.32
-1.01
-1.94
-3.09
-4.30
-5.44
-6.42
-7.26
-8.01
-8.68
-9.18
-9.36
-9.08
-8.35
-7.30
-6.15
-5.06
-4.08
-3.18
-2.28
-1.34
-0.41
0.39
0.97
1.29
1.40
1.43
1.48
1.63
1.91
2.26
2.58
2.76
2.70
2.40
1.92
1.42
1.03
0.85
0.87
0.99
1.05
0.93
0.59
0.09
-0.47
-1.00
-1.42
-1.76
-2.03
-2.28
-2.58
-2.95
-3.39
-3.89
-4.42
-4.94
-5.45
-5.93
-6.39
-6.81
-7.14
-7.30
-7.21
-6.88
-6.32
-5.63
-4.83
-3.93
-2.88
-1.66
-0.35
0.94
2.05
2.87
3.39
3.70
3.90
4.10
4.33
4.59
4.85
5.10
5.33
5.51
5.59
5.49
5.16
4.58
3.87
3.17
2.60
2.25
2.11
2.11
2.18
2.22
2.21
2.07
1.76
1.25
0.57
-0.18
-0.87
-1.40
-1.75
-2.03
-2.39
-2.93
-3.61
-4.29
-4.78
-4.92
-4.71
-4.19
-3.44
-2.54
-1.49
-0.37
0.71
1.59
2.14
2.33
2.28
2.19
2.27
2.61
3.15
3.74
4.23
4.52
4.64
4.71
4.81
4.96
5.08
5.03
4.72
4.16
3.45
2.77
2.26
1.98
1.89
1.89
1.84
1.64
1.20
0.50
-0.46
-1.59
-2.77
-3.85
-4.70
-5.27
-5.63
-5.87
-6.13
-6.48
-6.87
-7.24
-7.44
-7.37
-6.94
-6.15
-5.04
-3.70
-2.25
-0.88
0.25
1.01
1.42
1.60
1.76
2.05
2.50
3.03
3.48
3.76
3.85
3.84
3.81
3.85
3.92
3.99
3.99
3.84
3.52
2.99
2.25
1.35
0.37
-0.56
-1.32
-1.85
-2.17
-2.34
-2.44
-2.54
-2.67
-2.87
-3.20
-3.74
-4.53
-5.58
-6.73
-7.77
-8.43
-8.49
-7.89
-6.75
-5.28
-3.72
-2.23
-0.87
0.34
1.43
2.39
3.22
3.86
4.32
4.64
4.87
5.06
5.22
5.36
5.48
5.61
5.80
6.07
6.43
6.80
7.04
7.03
6.71
6.14
5.44
4.80
4.31
3.99
3.75
3.51
3.25
3.01
2.86
2.84
2.87
2.76
2.35
1.55
0.39
-0.97
-2.37
-3.67
-4.79
-5.70
-6.34
-6.59
-6.38
-5.67
-4.57
-3.31
-2.14
-1.26
-0.71
-0.39
-0.13
0.19
0.62
1.08
1.42
1.53
1.40
1.12
0.82
0.62
0.59
0.69
0.84
0.93
0.88
0.67
0.33
-0.06
-0.44
-0.76
-0.99
-1.11
-1.11
-1.03
-0.93
-0.89
-1.01
-1.36
-1.94
-2.73
-3.63
-4.53
-5.29
-5.79
-5.93
-5.66
-5.01
-4.05
-2.94
-1.82
-0.79
0.05
0.71
1.20
1.54
1.78
1.99
2.22
2.52
2.91
3.36
3.81
4.20
4.48
4.65
4.72
4.69
4.52
4.20
3.69
3.05
2.39
1.85
1.52
1.40
1.38
1.33
1.13
0.78
0.35
-0.05
-0.37
-0.65
-1.00
-1.54
-2.31
-3.22
-4.15
-4.97
-5.64
-6.17
-6.62
-6.98
-7.15
-7.01
-6.44
-5.47
-4.20
-2.80
-1.42
-0.12
1.11
2.31
3.49
4.58
5.47
6.06
6.30
6.30
6.18
6.13
6.25
6.55
6.97
7.41
7.75
7.94
7.98
7.89
7.71
7.45
7.12
6.72
6.28
5.87
5.57
5.43
5.42
5.43
5.30
4.91
4.19
3.19
2.01
0.79
-0.43
-1.69
-3.07
-4.63
-6.34
-8.02
-9.43
-10.30
-10.45
-9.90
-8.77
-7.35
-5.92
-4.69
-3.81
-3.27
-3.02
-2.94
-2.93
-2.90
-2.82
-2.64
-2.34
-1.90
-1.35
-0.76
-0.23
0.20
0.47
0.67
0.90
1.28
1.87
2.62
3.40
4.02
4.32
4.26
3.86
3.28
2.67
2.18
1.84
1.62
1.43
1.18
0.83
0.38
-0.18
-0.87
-1.78
-2.95
-4.34
-5.82
-7.12
-8.03
-8.41
-8.31
-7.86
-7.19
-6.37
-5.40
-4.26
-2.96
-1.62
-0.35
0.73
1.58
2.23
2.76
3.21
3.58
3.84
3.94
3.86
3.62
3.23
2.76
2.31
1.96
1.77
1.74
1.78
1.82
1.78
1.67
1.54
1.44
1.38
1.31
1.14
0.82
0.39
-0.06
-0.44
-0.72
-0.96
-1.26
-1.72
-2.33
-3.04
-3.73
-4.34
-4.87
-5.39
-5.96
-6.56
-7.08
-7.35
-7.25
-6.74
-5.88
-4.79
-3.58
-2.32
-1.03
0.25
1.47
2.51
3.29
3.78
4.03
4.12
4.20
4.35
4.60
4.90
5.18
5.37
5.45
5.39
5.22
4.95
4.62
4.31
4.06
3.96
4.02
4.24
4.56
4.90
5.19
5.31
5.19
4.76
3.95
2.77
1.29
-0.33
-1.89
-3.23
-4.25
-4.95
-5.42
-5.77
-6.14
-6.63
-7.25
-7.93
-8.50
-8.71
-8.39
-7.46
-6.07
-4.51
-3.09
-2.03
-1.30
-0.70
-0.03
0.82
1.75
2.53
2.99
3.10
2.96
2.74
2.55
2.40
2.25
2.08
1.93
1.92
2.16
2.65
3.28
3.85
4.13
3.98
3.42
2.58
1.67
0.92
0.46
0.23
0.10
-0.11
-0.51
-1.09
-1.77
-2.45
-3.08
-3.67
-4.25
-4.84
-5.43
-5.97
-6.45
-6.85
-7.17
-7.36
-7.35
-7.06
-6.48
-5.67
-4.71
-3.69
-2.65
-1.57
-0.45
0.64
1.62
2.39
2.92
3.24
3.44
3.58
3.69
3.75
3.75
3.77
3.91
4.24
4.71
5.16
5.35
5.15
4.57
3.78
2.99
2.38
1.99
1.72
1.45
1.05
0.49
-0.20
-0.94
-1.64
-2.24
-2.69
-3.04
-3.35
-3.76
-4.38
-5.26
-6.32
-7.42
-8.34
-8.93
-9.08
-8.83
-8.23
-7.39
-6.38
-5.23
-3.96
-2.61
-1.28
-0.08
0.90
1.63
2.19
2.74
3.38
4.14
4.90
5.48
5.76
5.75
5.57
5.37
5.26
5.19
5.08
4.84
4.48
4.08
3.77
3.61
3.60
3.63
3.58
3.35
2.93
2.35
1.69
1.01
0.36
-0.22
-0.75
-1.24
-1.70
-2.18
-2.70
-3.28
-3.95
-4.72
-5.56
-6.38
-7.03
-7.39
-7.34
-6.85
-5.94
-4.76
-3.47
-2.26
-1.25
-0.46
0.19
0.83
1.54
2.35
3.17
3.86
4.28
4.39
4.24
4.00
3.85
3.91
4.21
4.65
5.09
5.37
5.39
5.14
4.67
4.07
3.46
2.93
2.52
2.25
2.09
1.99
1.89
1.72
1.43
0.97
0.37
-0.31
-0.99
-1.61
-2.13
-2.60
-3.09
-3.67
-4.35
-5.08
-5.78
-6.30
-6.56
-6.50
-6.13
-5.48
-4.66
-3.75
-2.81
-1.92
-1.13
-0.50
-0.08
0.15
0.22
0.23
0.25
0.29
0.26
0.05
-0.41
-1.09
-1.85
-2.53
-2.99
-3.24
-3.37
-3.52
-3.78
-4.14
-4.53
-4.90
-5.24
-5.61
-6.08
-6.69
-7.40
-8.12
-8.72
-9.07
-9.04
-8.55
-7.56
-6.07
-4.14
-1.89
0.53
2.93
5.18
7.17
8.84
10.18
11.19
11.89
12.28
12.36
12.18
11.81
11.35
10.92
10.54
10.19
9.77
9.21
8.55
7.88
7.35
6.99
6.72
6.39
5.86
5.13
4.36
3.76
3.49
3.53
3.69
3.74
3.50
2.95
2.19
1.40
0.73
0.24
-0.12
-0.44
-0.81
-1.29
-1.87
-2.50
-3.14
-3.74
-4.29
-4.75
-5.12
-5.41
-5.63
-5.83
-6.09
-6.44
-6.87
-7.31
-7.63
-7.71
-7.45
-6.89
-6.08
-5.13
-4.09
-3.01
-1.88
-0.76
0.29
1.20
1.96
2.62
3.27
3.98
4.72
5.36
5.79
5.90
5.73
5.43
5.18
5.09
5.21
5.48
5.78
6.03
6.15
6.11
5.91
5.59
5.20
4.82
4.48
4.16
3.81
3.38
2.85
2.30
1.79
1.35
0.90
0.30
-0.57
-1.68
-2.88
-3.90
-4.53
-4.72
-4.57
-4.26
-3.95
-3.67
-3.34
-2.88
-2.25
-1.47
-0.61
0.26
1.09
1.81
2.33
2.55
2.46
2.15
1.83
1.73
1.98
2.54
3.22
3.76
4.00
3.90
3.59
3.24
2.99
2.90
2.90
2.89
2.77
2.49
2.05
1.56
1.09
0.69
0.36
0.01
-0.48
-1.19
-2.11
-3.16
-4.20
-5.11
-5.83
-6.40
-6.92
-7.44
-8.00
-8.55
-9.00
-9.23
-9.14
-8.65
-7.75
-6.51
-5.03
-3.48
-2.00
-0.67
0.48
1.50
2.40
3.20
3.84
4.25
4.36
4.18
3.77
3.21
2.64
2.15
1.83
1.72
1.83
2.11
2.46
2.79
3.01
3.06
2.97
2.80
2.58
2.34
2.06
1.69
1.22
0.66
0.01
-0.70
-1.49
-2.36
-3.27
-4.14
-4.91
-5.53
-6.03
-6.49
-6.97
-7.41
-7.68
-7.59
-7.06
-6.14
-5.04
-3.95
-3.02
-2.25
-1.54
-0.79
-0.00
0.71
1.22
1.44
1.43
1.32
1.28
1.41
1.68
1.94
2.02
1.85
1.46
1.01
0.67
0.60
0.79
1.18
1.60
1.94
2.11
2.08
1.86
1.49
1.01
0.46
-0.10
-0.63
-1.11
-1.55
-2.00
-2.50
-3.10
-3.80
-4.58
-5.39
-6.17
-6.80
-7.18
-7.25
-7.00
-6.48
-5.80
-5.02
-4.12
-3.04
-1.74
-0.25
1.24
2.54
3.48
4.01
4.24
4.35
4.48
4.69
4.98
5.30
5.64
5.97
6.26
6.44
6.42
6.16
5.72
5.21
4.78
4.50
4.34
4.21
3.98
3.55
2.93
2.16
1.35
0.58
-0.08
-0.63
-1.10
-1.52
-1.94
-2.40
-2.90
-3.43
-4.00
-4.63
-5.33
-6.09
-6.86
-7.52
-7.94
-7.99
-7.61
-6.81
-5.69
-4.37
-3.04
-1.82
-0.79
0.03
0.71
1.32
1.91
2.51
3.06
3.53
3.90
4.16
4.37
4.55
4.67
4.72
4.70
4.61
4.54
4.52
4.55
4.56
4.45
4.17
3.73
3.23
2.76
2.38
2.07
1.77
1.44
1.07
0.70
0.35
0.01
-0.40
-0.95
-1.68
-2.53
-3.41
-4.20
-4.84
-5.34
-5.74
-6.04
-6.23
-6.20
-5.87
-5.21
-4.26
-3.15
-1.99
-0.89
0.11
0.98
1.73
2.36
2.87
3.27
3.58
3.86
4.16
4.53
4.96
5.44
5.86
6.12
6.14
5.86
5.32
4.61
3.84
3.12
2.52
2.06
1.76
1.63
1.65
1.78
1.90
1.87
1.57
0.97
0.16
-0.67
-1.33
-1.74
-1.96
-2.14
-2.47
-3.05
-3.86
-4.78
-5.66
-6.41
-6.97
-7.30
-7.37
-7.13
-6.57
-5.73
-4.72
-3.71
-2.79
-1.96
-1.17
-0.30
0.66
1.64
2.49
3.03
3.20
3.07
2.79
2.59
2.60
2.86
3.30
3.79
4.18
4.39
4.39
4.22
3.94
3.62
3.29
2.95
2.61
2.23
1.86
1.54
1.34
1.26
1.24
1.15
0.86
0.29
-0.53
-1.43
-2.24
-2.80
-3.10
-3.26
-3.48
-3.92
-4.62
-5.43
-6.09
-6.35
-6.08
-5.31
-4.24
-3.08
-2.00
-1.08
-0.29
0.41
1.06
1.67
2.25
2.78
3.29
3.77
4.19
4.49
4.59
4.48
4.23
3.95
3.73
3.64
3.64
3.65
3.61
3.46
3.24
2.98
2.71
2.39
2.00
1.50
0.92
0.33
-0.17
-0.53
-0.79
-0.99
-1.20
-1.46
-1.77
-2.15
-2.62
-3.19
-3.87
-4.60
-5.27
-5.81
-6.17
-6.33
-6.32
-6.09
-5.57
-4.72
-3.57
-2.26
-0.99
0.04
0.78
1.27
1.66
2.08
2.60
3.18
3.71
4.08
4.24
4.23
4.14
4.08
4.08
4.14
4.20
4.17
4.01
3.75
3.47
3.24
3.13
3.12
3.14
3.10
2.88
2.46
1.85
1.17
0.54
0.09
-0.18
-0.33
-0.46
-0.67
-0.93
-1.21
-1.43
-1.62
-1.87
-2.31
-3.01
-3.91
-4.83
-5.55
-5.89
-5.79
-5.33
-4.70
-4.12
-3.76
-3.65
-3.66
-3.62
-3.32
-2.69
-1.79
-0.82
0.04
0.66
1.04
1.27
1.47
1.70
1.94
2.20
2.46
2.72
3.00
3.28
3.52
3.64
3.63
3.47
3.21
2.92
2.66
2.49
2.40
2.37
2.33
2.21
1.95
1.53
0.96
0.26
-0.55
-1.43
-2.40
-3.47
-4.61
-5.77
-6.84
-7.68
-8.13
-8.09
-7.56
-6.60
-5.39
-4.11
-2.93
-1.95
-1.18
-0.57
-0.06
0.43
0.94
1.47
2.00
2.50
2.95
3.29
3.52
3.63
3.62
3.52
3.38
3.24
3.12
3.05
3.04
3.06
3.08
3.06
2.99
2.90
2.83
2.84
2.91
2.98
2.92
2.63
2.08
1.32
0.54
-0.13
-0.58
-0.83
-1.04
-1.38
-2.02
-3.00
-4.22
-5.46
-6.49
-7.08
-7.18
-6.88
-6.33
-5.71
-5.11
-4.52
-3.88
-3.14
-2.29
-1.38
-0.50
0.28
0.89
1.33
1.60
1.74
1.75
1.63
1.41
1.10
0.80
0.60
0.57
0.70
0.86
0.87
0.62
0.12
-0.44
-0.85
-1.00
-0.93
-0.85
-0.95
-1.32
-1.85
-2.36
-2.72
-2.91
-3.06
-3.28
-3.63
-4.07
-4.54
-5.01
-5.51
-6.06
-6.64
-7.15
-7.47
-7.46
-7.10
-6.42
-5.49
-4.39
-3.19
-1.96
-0.79
0.25
1.09
1.75
2.30
2.83
3.41
4.04
4.65
5.16
5.50
5.66
5.66
5.52
5.24
4.83
4.33
3.83
3.45
3.29
3.36
3.56
3.73
3.70
3.44
3.03
2.62
2.33
2.19
2.08
1.83
1.32
0.54
-0.39
-1.32
-2.17
-2.92
-3.62
-4.33
-5.04
-5.65
-6.02
-6.06
-5.72
-5.06
-4.17
-3.14
-2.03
-0.91
0.20
1.22
2.10
2.75
3.13
3.25
3.16
2.96
2.71
2.46
2.24
2.06
1.99
2.08
2.40
2.92
3.53
4.08
4.40
4.44
4.23
3.86
3.45
3.06
2.68
2.28
1.86
1.44
1.08
0.82
0.70
0.71
0.77
0.75
0.49
-0.15
-1.23
-2.73
-4.47
-6.19
-7.63
-8.59
-8.99
-8.88
-8.38
-7.61
-6.66
-5.60
-4.48
-3.38
-2.36
-1.43
-0.61
0.14
0.88
1.63
2.40
3.14
3.78
4.27
4.57
4.67
4.63
4.51
4.36
4.20
4.03
3.83
3.61
3.45
3.41
3.53
3.73
3.86
3.74
3.28
2.54
1.69
0.91
0.30
-0.15
-0.59
-1.14
-1.84
-2.64
-3.40
-4.01
-4.48
-4.92
-5.48
-6.21
-7.01
-7.66
-7.87
-7.51
-6.63
-5.46
-4.28
-3.29
-2.50
-1.79
-0.99
-0.03
1.01
1.96
2.63
2.94
2.97
2.86
2.76
2.73
2.73
2.65
2.43
2.08
1.67
1.28
0.98
0.79
0.71
0.74
0.86
1.04
1.23
1.33
1.28
1.06
0.69
0.27
-0.14
-0.57
-1.05
-1.67
-2.44
-3.33
-4.29
-5.24
-6.11
-6.88
-7.48
-7.88
-8.00
-7.81
-7.29
-6.45
-5.35
-4.09
-2.77
-1.50
-0.36
0.60
1.35
1.93
2.37
2.75
3.12
3.54
4.01
4.54
5.07
5.57
5.97
6.22
6.27
6.11
5.75
5.22
4.62
4.06
3.65
3.41
3.32
3.27
3.16
2.95
2.59
2.10
1.48
0.72
-0.17
-1.15
-2.12
-2.98
-3.69
-4.25
-4.72
-5.20
-5.75
-6.34
-6.89
-7.25
-7.33
-7.09
-6.55
-5.77
-4.83
-3.75
-2.54
-1.24
0.06
1.25
2.15
2.67
2.85
2.80
2.70
2.69
2.79
2.97
3.17
3.33
3.46
3.58
3.69
3.78
3.81
3.76
3.66
3.56
3.55
3.67
3.88
4.09
4.17
4.02
3.61
3.00
2.29
1.60
1.02
0.58
0.26
0.00
-0.28
-0.66
-1.22
-1.98
-2.93
-3.95
-4.89
-5.55
-5.75
-5.41
-4.55
-3.31
-1.91
-0.58
0.53
1.33
1.86
2.22
2.48
2.73
2.96
3.20
3.47
3.82
4.26
4.77
5.25
5.55
5.57
5.27
4.74
4.14
3.61
3.23
2.97
2.74
2.44
2.00
1.42
0.71
-0.06
-0.83
-1.57
-2.20
-2.67
-3.00
-3.26
-3.57
-4.08
-4.87
-5.92
-7.12
-8.30
-9.27
-9.88
-10.05
-9.75
-9.02
-7.98
-6.79
-5.61
-4.53
-3.55
-2.57
-1.48
-0.19
1.27
2.76
4.10
5.11
5.72
5.95
5.88
5.64
5.32
5.00
4.69
4.38
4.05
3.67
3.23
2.75
2.28
1.87
1.57
1.36
1.21
1.05
0.83
0.52
0.12
-0.32
-0.77
-1.19
-1.58
-1.93
-2.25
-2.58
-2.93
-3.36
-3.89
-4.54
-5.24
-5.86
-6.25
-6.30
-5.98
-5.35
-4.54
-3.65
-2.72
-1.71
-0.59
0.66
1.94
3.07
3.92
4.39
4.53
4.47
4.36
4.31
4.37
4.52
4.73
4.95
5.17
5.34
5.41
5.31
5.01
4.57
4.10
3.77
3.66
3.78
3.96
4.03
3.81
3.27
2.49
1.62
0.79
0.01
-0.72
-1.46
-2.23
-2.98
-3.64
-4.18
-4.64
-5.06
-5.50
-5.90
-6.12
-6.00
-5.43
-4.43
-3.17
-1.85
-0.66
0.30
1.07
1.75
2.43
3.14
3.83
4.40
4.81
5.02
5.12
5.18
5.29
5.47
5.69
5.85
5.88
5.72
5.37
4.86
4.26
3.66
3.14
2.75
2.49
2.27
1.96
1.45
0.73
-0.13
-1.04
-1.90
-2.69
-3.40
-4.04
-4.61
-5.07
-5.45
-5.81
-6.24
-6.83
-7.55
-8.27
-8.84
-9.07
-8.90
-8.35
-7.50
-6.50
-5.47
-4.46
-3.46
-2.40
-1.22
0.11
1.54
2.95
4.16
5.06
5.59
5.78
5.73
5.54
5.27
4.99
4.70
4.45
4.26
4.19
4.25
4.38
4.53
4.58
4.46
4.13
3.64
3.09
2.60
2.23
1.99
1.80
1.58
1.24
0.78
0.23
-0.33
-0.81
-1.20
-1.53
-1.85
-2.25
-2.81
-3.50
-4.25
-4.92
-5.34
-5.39
-5.02
-4.29
-3.32
-2.23
-1.08
0.12
1.41
2.79
4.20
5.54
6.67
7.57
8.23
8.76
9.22
9.67
10.07
10.33
10.38
10.13
9.56
8.64
7.37
5.79
4.01
2.25
0.76
-0.22
-0.60
-0.53
-0.29
-0.19
-0.43
-0.99
-1.73
-2.48
-3.16
-3.86
-4.65
-5.55
-6.45
-7.16
-7.55
-7.65
-7.67
-7.82
-8.22
-8.81
-9.36
-9.64
-9.51
-9.00
-8.20
-7.24
-6.16
-4.93
-3.56
-2.10
-0.67
0.63
1.73
2.69
3.58
4.46
5.32
6.07
6.61
6.86
6.87
6.72
6.54
6.40
6.31
6.25
6.18
6.09
5.98
5.87
5.68
5.34
4.73
3.82
2.70
1.51
0.48
-0.29
-0.78
-1.12
-1.44
-1.86
-2.39
-2.96
-3.50
-3.98
-4.45
-4.98
-5.66
-6.50
-7.45
-8.36
-9.02
-9.30
-9.14
-8.63
-7.92
-7.15
-6.37
-5.52
-4.50
-3.25
-1.84
-0.44
0.75
1.62
2.19
2.55
2.84
3.13
3.40
3.59
3.64
3.55
3.38
3.22
3.14
3.12
3.09
2.96
2.66
2.26
1.88
1.69
1.76
2.04
2.34
2.46
2.22
1.64
0.83
-0.02
-0.80
-1.47
-2.05
-2.54
-2.90
-3.09
-3.08
-2.97
-2.93
-3.16
-3.78
-4.76
-5.93
-6.99
-7.66
-7.73
-7.14
-6.01
-4.58
-3.14
-1.94
-1.08
-0.51
-0.05
0.45
1.10
1.86
2.67
3.43
4.13
4.75
5.26
5.58
5.60
5.28
4.70
4.03
3.52
3.29
3.34
3.54
3.68
3.61
3.27
2.75
2.15
1.60
1.15
0.80
0.52
0.26
-0.05
-0.44
-0.95
-1.56
-2.21
-2.84
-3.44
-4.03
-4.67
-5.34
-6.02
-6.58
-6.93
-7.00
-6.83
-6.47
-6.02
-5.52
-4.99
-4.41
-3.73
-2.94
-2.03
-1.04
-0.05
0.83
1.50
1.92
2.14
2.30
2.51
2.83
3.21
3.55
3.77
3.83
3.77
3.66
3.56
3.48
3.40
3.28
3.10
2.84
2.52
2.16
1.82
1.53
1.31
1.14
0.93
0.59
0.10
-0.50
-1.05
-1.42
-1.59
-1.67
-1.82
-2.25
-3.00
-4.01
-5.09
-6.04
-6.68
-6.96
-6.86
-6.42
-5.69
-4.74
-3.66
-2.57
-1.60
-0.80
-0.16
0.38
0.90
1.40
1.87
2.27
2.55
2.75
2.93
3.17
3.50
3.87
4.19
4.37
4.33
4.08
3.68
3.26
2.94
2.78
2.76
2.76
2.68
2.45
2.10
1.73
1.39
1.11
0.81
0.41
-0.14
-0.82
-1.54
-2.21
-2.77
-3.26
-3.71
-4.19
-4.70
-5.23
-5.70
-6.05
-6.23
-6.18
-5.90
-5.36
-4.57
-3.55
-2.37
-1.14
-0.04
0.80
1.27
1.42
1.37
1.29
1.35
1.59
1.99
2.44
2.85
3.15
3.29
3.26
3.06
2.71
2.25
1.77
1.37
1.10
1.00
1.04
1.16
1.28
1.37
1.37
1.23
0.90
0.37
-0.32
-1.09
-1.80
-2.35
-2.72
-2.97
-3.21
-3.55
-4.04
-4.60
-5.11
-5.40
-5.36
-4.97
-4.30
-3.48
-2.65
-1.89
-1.21
-0.54
0.16
0.96
1.82
2.68
3.47
4.10
4.54
4.80
4.92
4.93
4.81
4.53
4.09
3.50
2.82
2.16
1.57
1.06
0.61
0.20
-0.16
-0.44
-0.59
-0.65
-0.72
-0.91
-1.27
-1.79
-2.39
-2.95
-3.42
-3.79
-4.14
-4.52
-4.99
-5.56
-6.24
-6.98
-7.75
-8.46
-9.02
-9.31
-9.29
-8.90
-8.16
-7.10
-5.81
-4.42
-3.05
-1.83
-0.82
0.01
0.73
1.44
2.16
2.91
3.64
4.28
4.81
5.23
5.54
5.73
5.81
5.78
5.67
5.53
5.42
5.35
5.30
5.22
5.08
4.83
4.47
3.97
3.33
2.56
1.72
0.89
0.19
-0.30
-0.57
-0.71
-0.92
-1.36
-2.16
-3.24
-4.43
-5.47
-6.14
-6.35
-6.13
-5.59
-4.84
-3.99
-3.11
-2.27
-1.55
-0.99
-0.55
-0.14
0.38
1.09
1.98
2.91
3.74
4.33
4.65
4.73
4.67
4.54
4.39
4.23
4.07
3.92
3.79
3.71
3.66
3.64
3.55
3.33
2.91
2.30
1.61
0.98
0.60
0.55
0.76
1.03
1.09
0.79
0.06
-0.97
-2.15
-3.29
-4.33
-5.24
-6.03
-6.66
-7.07
-7.18
-6.95
-6.42
-5.70
-4.90
-4.06
-3.15
-2.13
-0.99
0.18
1.22
1.97
2.33
2.35
2.19
2.08
2.20
2.64
3.38
4.29
5.18
5.86
6.20
6.17
5.86
5.39
4.93
4.55
4.28
4.07
3.85
3.56
3.19
2.75
2.25
1.69
1.05
0.33
-0.45
-1.25
-1.99
-2.65
-3.21
-3.67
-4.09
-4.48
-4.89
-5.30
-5.66
-5.89
-5.93
-5.69
-5.13
-4.26
-3.12
-1.84
-0.53
0.68
1.74
2.63
3.36
3.96
4.41
4.68
4.75
4.66
4.52
4.46
4.54
4.78
5.08
5.32
5.42
5.35
5.13
4.81
4.43
4.06
3.72
3.42
3.13
2.78
2.28
1.60
0.77
-0.12
-0.97
-1.70
-2.33
-2.91
-3.48
-4.05
-4.57
-4.99
-5.31
-5.55
-5.78
-6.06
-6.34
-6.53
-6.49
-6.12
-5.37
-4.32
-3.09
-1.80
-0.56
0.59
1.62
2.49
3.15
3.56
3.71
3.65
3.48
3.30
3.20
3.18
3.17
3.08
2.83
2.40
1.85
1.25
0.71
0.28
-0.05
-0.34
-0.67
-1.12
-1.74
-2.52
-3.44
-4.45
-5.52
-6.60
-7.69
-8.80
-9.96
-11.24
-12.72
-14.42
-16.35
-18.44
-20.56
-22.52
-24.16
-25.33
-25.95
-26.03
-25.68
-25.07
-24.35
-23.63
-22.90
-22.11
-21.16
-20.00
-18.65
-17.09
-15.28
-13.14
-10.57
-7.60
-4.42
-1.33
1.36
3.53
5.35
7.20
9.49
12.51
16.22
20.33
24.40
28.04
30.99
33.11
34.39
34.78
34.20
32.58
29.97
26.58
22.87
19.39
16.64
14.91
14.11
13.82
13.48
12.63
11.12
9.12
7.01
5.16
3.77
2.86
2.28
1.87
1.57
1.37
1.35
1.55
1.95
2.49
3.07
3.60
4.04
4.38
4.66
4.92
5.19
5.49
5.79
6.04
6.14
6.05
5.77
5.37
4.97
4.65
4.41
4.20
3.94
3.55
3.09
2.63
2.27
2.03
1.85
1.59
1.16
0.55
-0.14
-0.79
-1.28
-1.62
-1.86
-2.13
-2.52
-3.11
-3.90
-4.82
-5.75
-6.53
-7.02
-7.14
-6.87
-6.24
-5.32
-4.18
-2.91
-1.59
-0.30
0.85
1.83
2.60
3.18
3.61
3.94
4.22
4.48
4.72
4.93
5.11
5.25
5.35
5.42
5.46
5.47
5.36
5.11
4.69
4.15
3.56
3.02
2.57
2.21
1.89
1.57
1.21
0.79
0.34
-0.11
-0.53
-0.94
-1.37
-1.93
-2.68
-3.67
-4.85
-6.05
-7.10
-7.84
-8.22
-8.31
-8.21
-8.00
-7.64
-7.04
-6.15
-4.96
-3.60
-2.27
-1.12
-0.20
0.51
1.13
1.73
2.31
2.83
3.25
3.55
3.75
3.91
4.05
4.16
4.16
3.99
3.59
2.99
2.29
1.64
1.18
0.99
1.03
1.17
1.26
1.18
0.89
0.47
0.04
-0.30
-0.55
-0.77
-1.08
-1.51
-2.06
-2.60
-3.04
-3.32
-3.51
-3.71
-4.01
-4.39
-4.75
-4.96
-4.92
-4.59
-4.00
-3.24
-2.36
-1.43
-0.56
0.18
0.72
1.04
1.20
1.28
1.36
1.46
1.58
1.72
1.91
2.19
2.57
2.96
3.22
3.20
2.83
2.19
1.50
0.99
0.80
0.94
1.26
1.53
1.58
1.29
0.73
0.03
-0.61
-1.06
-1.24
-1.21
-1.07
-0.96
-0.99
-1.19
-1.53
-1.96
-2.42
-2.89
-3.34
-3.73
-3.98
-3.98
-3.66
-3.03
-2.21
-1.39
-0.72
-0.28
-0.00
0.23
0.55
0.99
1.54
2.06
2.46
2.68
2.71
2.62
2.49
2.40
2.37
2.37
2.37
2.31
2.17
1.99
1.81
1.66
1.55
1.45
1.38
1.32
1.29
1.29
1.30
1.26
1.09
0.74
0.20
-0.49
-1.25
-1.97
-2.57
-3.00
-3.29
-3.51
-3.75
-4.06
-4.43
-4.79
-5.02
-5.04
-4.78
-4.25
-3.51
-2.64
-1.77
-0.99
-0.37
0.09
0.42
0.67
0.86
1.00
1.10
1.19
1.35
1.64
2.06
2.56
2.99
3.19
3.10
2.72
2.16
1.54
0.99
0.61
0.46
0.57
0.91
1.35
1.68
1.65
1.14
0.17
-1.04
-2.20
-3.07
-3.62
-3.97
-4.32
-4.85
-5.57
-6.41
-7.20
-7.81
-8.12
-8.12
-7.82
-7.26
-6.50
-5.61
-4.64
-3.63
-2.59
-1.56
-0.61
0.16
0.70
1.02
1.21
1.40
1.69
2.06
2.46
2.79
3.01
3.16
3.35
3.61
3.92
4.17
4.24
4.09
3.76
3.39
3.05
2.76
2.47
2.09
1.62
1.13
0.71
0.41
0.20
-0.09
-0.58
-1.37
-2.39
-3.48
-4.45
-5.18
-5.62
-5.86
-5.95
-5.95
-5.81
-5.49
-4.95
-4.20
-3.34
-2.46
-1.63
-0.88
-0.18
0.52
1.22
1.89
2.49
2.99
3.40
3.73
4.02
4.27
4.49
4.66
4.82
4.97
5.15
5.35
5.54
5.66
5.67
5.58
5.43
5.26
5.14
5.06
5.00
4.91
4.76
4.57
4.41
4.34
4.36
4.43
4.43
4.28
3.98
3.55
3.04
2.41
1.50
0.13
-1.81
-4.17
-6.58
-8.54
-9.63
-9.68
-8.82
-7.35
-5.61
-3.84
-2.10
-0.44
1.08
2.31
3.10
3.38
3.25
2.92
2.63
2.46
2.34
2.07
1.48
0.54
-0.59
-1.60
-2.22
-2.34
-2.04
-1.55
-1.10
-0.82
-0.75
-0.76
-0.73
-0.60
-0.36
-0.11
0.03
-0.10
-0.60
-1.58
-3.09
-5.06
-7.31
-9.53
-11.37
-12.51
-12.77
-12.22
-11.10
-9.71
-8.30
-7.02
-5.87
-4.80
-3.80
-2.88
-2.11
-1.53
-1.08
-0.63
-0.03
0.78
1.71
2.58
3.19
3.41
3.31
3.05
2.86
2.84
2.96
3.05
2.95
2.57
1.96
1.30
0.75
0.41
0.27
0.26
0.29
0.28
0.19
-0.03
-0.39
-0.95
-1.73
-2.70
-3.79
-4.90
-5.88
-6.60
-7.03
-7.18
-7.16
-7.04
-6.84
-6.49
-5.84
-4.81
-3.42
-1.82
-0.25
1.07
2.03
2.65
3.02
3.26
3.48
3.77
4.17
4.68
5.23
5.69
5.95
5.93
5.68
5.33
5.01
4.78
4.61
4.41
4.15
3.88
3.66
3.54
3.44
3.25
2.83
2.14
1.25
0.29
-0.59
-1.32
-1.92
-2.52
-3.22
-4.10
-5.11
-6.11
-6.90
-7.28
-7.14
-6.45
-5.34
-3.97
-2.52
-1.14
0.07
1.06
1.83
2.42
2.89
3.34
3.81
4.29
4.73
5.07
5.23
5.19
4.96
4.61
4.25
4.01
3.97
4.09
4.24
4.22
3.90
3.29
2.54
1.84
1.33
1.02
0.77
0.47
0.07
-0.37
-0.71
-0.89
-0.93
-0.93
-1.07
-1.45
-2.13
-3.05
-4.10
-5.07
-5.74
-5.92
-5.53
-4.64
-3.44
-2.15
-0.97
0.00
0.78
1.42
1.94
2.35
2.62
2.76
2.84
2.95
3.17
3.52
3.95
4.34
4.60
4.66
4.55
4.34
4.11
3.92
3.80
3.75
3.72
3.68
3.60
3.43
3.15
2.75
2.28
1.79
1.32
0.87
0.40
-0.16
-0.86
-1.69
-2.63
-3.67
-4.78
-5.93
-7.02
-7.90
-8.38
-8.36
-7.84
-6.94
-5.85
-4.76
-3.75
-2.82
-1.96
-1.13
-0.34
0.32
0.79
1.07
1.26
1.50
1.92
2.53
3.24
3.88
4.31
4.51
4.56
4.60
4.70
4.85
4.97
5.00
4.92
4.78
4.63
4.46
4.22
3.83
3.26
2.57
1.85
1.17
0.52
-0.14
-0.90
-1.79
-2.78
-3.80
-4.79
-5.70
-6.51
-7.17
-7.61
-7.73
-7.49
-6.89
-6.02
-4.99
-3.89
-2.79
-1.70
-0.70
0.15
0.75
1.12
1.34
1.56
1.92
2.44
3.08
3.73
4.27
4.62
4.76
4.69
4.42
4.01
3.56
3.17
2.94
2.88
2.86
2.69
2.20
1.35
0.24
-0.89
-1.81
-2.39
-2.66
-2.75
-2.82
-3.00
-3.31
-3.77
-4.34
-5.03
-5.80
-6.58
-7.22
-7.56
-7.46
-6.89
-5.90
-4.63
-3.23
-1.79
-0.40
0.89
2.00
2.81
3.21
3.20
2.86
2.38
1.97
1.75
1.72
1.80
1.85
1.80
1.64
1.42
1.24
1.17
1.25
1.52
1.97
2.61
3.44
4.42
5.46
6.38
6.95
6.98
6.35
5.11
3.47
1.70
0.05
-1.32
-2.39
-3.17
-3.73
-4.17
-4.56
-5.03
-5.67
-6.54
-7.57
-8.59
-9.38
-9.71
-9.50
-8.74
-7.58
-6.18
-4.72
-3.29
-1.98
-0.82
0.16
0.94
1.52
1.94
2.28
2.63
3.02
3.43
3.77
3.97
3.96
3.80
3.59
3.46
3.51
3.76
4.16
4.61
5.00
5.21
5.19
4.90
4.34
3.54
2.57
1.55
0.60
-0.18
-0.74
-1.13
-1.44
-1.85
-2.50
-3.43
-4.57
-5.76
-6.81
-7.55
-7.89
-7.80
-7.32
-6.47
-5.29
-3.87
-2.28
-0.65
0.91
2.32
3.54
4.53
5.27
5.72
5.92
5.93
5.90
5.94
6.11
6.36
6.59
6.70
6.68
6.56
6.36
6.11
5.79
5.40
5.03
4.77
4.72
4.85
5.00
4.94
4.47
3.60
2.47
1.34
0.40
-0.29
-0.84
-1.39
-2.05
-2.79
-3.55
-4.25
-4.88
-5.54
-6.29
-7.14
-7.92
-8.41
-8.42
-7.89
-6.93
-5.75
-4.56
-3.47
-2.47
-1.49
-0.44
0.67
1.79
2.76
3.45
3.78
3.73
3.41
2.96
2.55
2.30
2.23
2.31
2.42
2.46
2.37
2.10
1.69
1.19
0.65
0.15
-0.27
-0.59
-0.81
-0.99
-1.20
-1.50
-1.93
-2.44
-2.94
-3.35
-3.57
-3.67
-3.77
-4.01
-4.52
-5.29
-6.17
-6.97
-7.50
-7.64
-7.38
-6.78
-5.92
-4.87
-3.73
-2.56
-1.45
-0.49
0.28
0.84
1.23
1.52
1.80
2.13
2.58
3.12
3.68
4.15
4.47
4.59
4.54
4.34
4.08
3.80
3.56
3.40
3.31
3.30
3.32
3.32
3.22
2.97
2.53
1.92
1.21
0.46
-0.24
-0.86
-1.40
-1.91
-2.45
-3.07
-3.77
-4.50
-5.21
-5.83
-6.29
-6.52
-6.45
-6.02
-5.25
-4.23
-3.10
-1.97
-0.92
0.06
0.96
1.79
2.50
3.03
3.36
3.56
3.71
3.90
4.12
4.27
4.26
4.04
3.70
3.36
3.15
3.09
3.10
3.05
2.84
2.45
1.96
1.45
0.99
0.63
0.38
0.23
0.18
0.21
0.24
0.18
-0.06
-0.52
-1.17
-1.96
-2.83
-3.76
-4.73
-5.71
-6.57
-7.18
-7.38
-7.09
-6.32
-5.21
-3.90
-2.53
-1.21
-0.02
0.98
1.72
2.16
2.30
2.23
2.08
1.99
2.02
2.19
2.43
2.67
2.86
2.97
3.02
3.01
2.92
2.77
2.57
2.40
2.29
2.25
2.23
2.12
1.84
1.40
0.85
0.32
-0.11
-0.45
-0.76
-1.16
-1.71
-2.40
-3.15
-3.86
-4.43
-4.84
-5.07
-5.12
-4.98
-4.62
-4.01
-3.17
-2.18
-1.15
-0.21
0.55
1.09
1.43
1.64
1.81
2.01
2.24
2.47
2.65
2.75
2.83
2.93
3.08
3.26
3.40
3.40
3.20
2.82
2.37
1.94
1.61
1.37
1.17
0.91
0.56
0.12
-0.36
-0.83
-1.26
-1.65
-2.05
-2.50
-3.05
-3.70
-4.45
-5.23
-5.98
-6.58
-6.92
-6.97
-6.72
-6.25
-5.63
-4.89
-4.01
-2.98
-1.86
-0.76
0.14
0.74
1.09
1.34
1.69
2.25
3.00
3.77
4.35
4.62
4.55
4.26
3.90
3.59
3.35
3.16
2.93
2.60
2.19
1.77
1.44
1.24
1.12
0.98
0.69
0.23
-0.36
-0.95
-1.47
-1.94
-2.47
-3.16
-4.05
-5.03
-5.93
-6.59
-6.95
-7.05
-6.94
-6.68
-6.23
-5.52
-4.52
-3.31
-2.03
-0.84
0.16
0.95
1.61
2.23
2.85
3.48
4.04
4.43
4.60
4.55
4.39
4.21
4.12
4.14
4.24
4.31
4.25
3.98
3.51
2.90
2.27
1.74
1.36
1.11
0.91
0.68
0.38
0.00
-0.44
-0.94
-1.51
-2.19
-2.98
-3.85
-4.71
-5.43
-5.93
-6.15
-6.07
-5.68
-4.99
-4.04
-2.93
-1.76
-0.65
0.32
1.12
1.75
2.24
2.61
2.87
3.08
3.28
3.53
3.87
4.26
4.60
4.74
4.59
4.18
3.62
3.11
2.84
2.84
3.01
3.16
3.08
2.66
1.95
1.10
0.26
-0.43
-0.95
-1.32
-1.58
-1.77
-1.96
-2.19
-2.55
-3.12
-3.96
-5.08
-6.35
-7.54
-8.40
-8.71
-8.37
-7.43
-6.09
-4.61
-3.18
-1.94
-0.88
0.08
0.99
1.85
2.60
3.19
3.61
3.92
4.22
4.57
4.96
5.31
5.51
5.51
5.36
5.17
5.03
4.99
4.97
4.86
4.57
4.08
3.47
2.86
2.36
2.02
1.80
1.57
1.24
0.73
0.09
-0.58
-1.12
-1.45
-1.60
-1.71
-2.03
-2.73
-3.86
-5.22
-6.48
-7.31
-7.53
-7.16
-6.41
-5.49
-4.54
-3.58
-2.56
-1.46
-0.35
0.64
1.41
1.92
2.27
2.60
2.99
3.50
4.07
4.63
5.12
5.49
5.76
5.94
6.04
6.07
5.99
5.79
5.45
5.01
4.55
4.13
3.76
3.38
2.89
2.24
1.47
0.70
0.07
-0.32
-0.48
-0.54
-0.65
-0.93
-1.44
-2.14
-2.97
-3.83
-4.62
-5.23
-5.59
-5.64
-5.38
-4.87
-4.23
-3.58
-3.02
-2.52
-2.01
-1.37
-0.50
0.61
1.85
3.06
4.07
4.76
5.09
5.11
4.93
4.66
4.41
4.28
4.28
4.41
4.60
4.74
4.75
4.55
4.15
3.58
2.96
2.41
2.00
1.76
1.59
1.35
0.89
0.17
-0.75
-1.67
-2.39
-2.80
-2.92
-2.94
-3.07
-3.52
-4.33
-5.45
-6.70
-7.87
-8.78
-9.30
-9.39
-9.07
-8.38
-7.40
-6.18
-4.80
-3.34
-1.95
-0.74
0.18
0.80
1.19
1.50
1.88
2.42
3.11
3.85
4.49
4.93
5.13
5.13
5.00
4.85
4.75
4.77
4.88
5.02
5.07
4.91
4.46
3.74
2.86
2.00
1.30
0.84
0.62
0.55
0.53
0.46
0.26
-0.07
-0.51
-1.02
-1.55
-2.10
-2.68
-3.33
-4.07
-4.88
-5.68
-6.35
-6.77
-6.88
-6.63
-6.09
-5.33
-4.44
-3.49
-2.56
-1.65
-0.76
0.10
0.93
1.71
2.39
2.96
3.41
3.78
4.13
4.50
4.92
5.37
5.75
6.00
6.10
6.04
5.88
5.69
5.46
5.18
4.80
4.30
3.69
3.04
2.41
1.85
1.36
0.88
0.38
-0.19
-0.80
-1.42
-2.04
-2.67
-3.34
-4.08
-4.90
-5.77
-6.60
-7.31
-7.81
-8.07
-8.09
-7.87
-7.39
-6.63
-5.56
-4.21
-2.66
-1.00
0.62
2.06
3.21
4.01
4.49
4.71
4.79
4.82
4.84
4.84
4.78
4.62
4.38
4.11
3.87
3.70
3.60
3.57
3.56
3.56
3.49
3.28
2.84
2.16
1.29
0.34
-0.52
-1.17
-1.59
-1.80
-1.94
-2.11
-2.45
-2.98
-3.70
-4.52
-5.32
-6.01
-6.58
-7.04
-7.46
-7.88
-8.28
-8.63
-8.86
-8.91
-8.71
-8.22
-7.40
-6.24
-4.83
-3.32
-1.88
-0.67
0.25
0.89
1.32
1.61
1.81
1.96
2.15
2.45
2.95
3.63
4.38
5.04
5.45
5.54
5.36
5.06
4.73
4.45
4.19
3.91
3.57
3.15
2.72
2.31
1.95
1.64
1.32
0.95
0.51
0.01
-0.50
-0.99
-1.49
-2.04
-2.69
-3.49
-4.38
-5.23
-5.88
-6.16
-5.96
-5.26
-4.15
-2.78
-1.36
-0.08
0.91
1.59
2.01
2.27
2.49
2.72
2.98
3.28
3.61
3.98
4.36
4.71
4.95
5.04
4.97
4.79
4.57
4.35
4.11
3.81
3.39
2.85
2.24
1.64
1.13
0.74
0.43
0.12
-0.26
-0.74
-1.29
-1.85
-2.38
-2.88
-3.42
-4.07
-4.89
-5.85
-6.87
-7.84
-8.64
-9.22
-9.51
-9.48
-9.11
-8.44
-7.52
-6.41
-5.18
-3.88
-2.53
-1.16
0.16
1.33
2.25
2.87
3.17
3.25
3.23
3.23
3.32
3.52
3.79
4.07
4.30
4.45
4.52
4.57
4.60
4.60
4.50
4.23
3.75
3.06
2.24
1.41
0.70
0.15
-0.22
-0.47
-0.68
-0.94
-1.27
-1.68
-2.18
-2.77
-3.47
-4.31
-5.30
-6.40
-7.45
-8.25
-8.60
-8.40
-7.69
-6.62
-5.44
-4.36
-3.48
-2.76
-2.10
-1.32
-0.34
0.84
2.10
3.30
4.29
4.99
5.38
5.52
5.47
5.33
5.19
5.14
5.24
5.50
5.87
6.19
6.35
6.26
5.96
5.54
5.13
4.81
4.58
4.37
4.11
3.78
3.40
3.01
2.63
2.24
1.74
1.07
0.20
-0.83
-1.92
-2.93
-3.77
-4.41
-4.89
-5.27
-5.56
-5.77
-5.84
-5.70
-5.32
-4.72
-3.94
-3.09
-2.27
-1.52
-0.83
-0.14
0.60
1.39
2.18
2.86
3.34
3.60
3.69
3.70
3.74
3.85
3.99
4.14
4.24
4.32
4.39
4.46
4.50
4.45
4.22
3.78
3.16
2.46
1.79
1.22
0.74
0.27
-0.29
-0.97
-1.74
-2.50
-3.14
-3.61
-3.96
-4.31
-4.79
-5.50
-6.41
-7.38
-8.23
-8.80
-9.00
-8.85
-8.42
-7.79
-6.98
-5.97
-4.73
-3.30
-1.75
-0.24
1.08
2.10
2.81
3.26
3.55
3.81
4.12
4.51
4.91
5.23
5.36
5.29
5.10
4.96
5.02
5.32
5.76
6.14
6.31
6.17
5.80
5.30
4.83
4.44
4.13
3.87
3.61
3.35
3.09
2.82
2.57
2.31
2.00
1.61
1.11
0.48
-0.23
-0.94
-1.61
-2.26
-2.96
-3.79
-4.79
-5.87
-6.86
-7.57
-7.89
-7.78
-7.32
-6.57
-5.64
-4.61
-3.55
-2.53
-1.61
-0.78
-0.01
0.73
1.45
2.12
2.72
3.22
3.66
4.04
4.38
4.63
4.71
4.63
4.44
4.28
4.28
4.49
4.87
5.28
5.60
5.74
5.69
5.51
5.27
5.07
4.98
5.03
5.22
5.52
5.82
6.03
6.08
5.96
5.72
5.44
5.21
5.06
4.98
4.93
4.85
4.68
4.36
3.88
3.28
2.69
2.27
2.20
2.61
3.51
4.78
6.25
7.72
9.09
10.36
11.63
13.05
14.70
16.53
18.26
19.52
19.96
19.37
17.84
15.75
13.66
12.12
11.51
11.90
13.02
14.36
15.29
15.20
13.67
10.59
6.15
0.86
-4.67
-9.83
-14.19
-17.57
-19.97
-21.50
-22.23
-22.19
-21.40
-19.96
-18.15
-16.37
-15.01
-14.27
-14.14
-14.41
-14.83
-15.26
-15.75
-16.41
-17.35
-18.54
-19.88
-21.20
-22.40
-23.42
-24.23
-24.75
-24.82
-24.26
-22.96
-20.94
-18.38
-15.55
-12.69
-10.02
-7.65
-5.59
-3.84
-2.37
-1.15
-0.18
0.59
1.18
1.66
2.06
2.44
2.84
3.31
3.87
4.47
4.95
5.11
4.77
3.93
2.74
1.47
0.38
-0.48
-1.21
-1.99
-2.89
-3.84
-4.58
-4.85
-4.56
-3.79
-2.81
-1.95
-1.43
-1.37
-1.73
-2.39
-3.19
-3.97
-4.63
-5.15
-5.62
-6.20
-6.99
-7.99
-9.06
-9.91
-10.31
-10.08
-9.23
-7.90
-6.28
-4.55
-2.87
-1.36
-0.09
0.89
1.64
2.28
3.00
3.94
5.14
6.48
7.76
8.75
9.28
9.29
8.84
8.09
7.26
6.56
6.16
6.13
6.41
6.85
7.26
7.49
7.49
7.25
6.83
6.28
5.64
4.99
4.36
3.84
3.44
3.18
2.99
2.82
2.62
2.33
1.96
1.49
0.91
0.21
-0.63
-1.61
-2.69
-3.80
-4.86
-5.76
-6.40
-6.71
-6.62
-6.14
-5.32
-4.25
-3.04
-1.77
-0.49
0.80
2.12
3.46
4.75
5.87
6.68
7.11
7.16
6.90
6.43
5.77
4.93
3.91
2.76
1.60
0.62
-0.03
-0.29
-0.24
-0.03
0.13
0.07
-0.29
-0.99
-2.03
-3.36
-4.94
-6.65
-8.29
-9.62
-10.43
-10.62
-10.27
-9.65
-9.09
-8.91
-9.26
-10.10
-11.18
-12.19
-12.83
-12.89
-12.27
-10.92
-8.88
-6.26
-3.21
0.05
3.25
6.16
8.67
10.80
12.77
14.88
17.43
20.52
23.94
27.22
29.70
30.88
30.65
29.36
27.65
26.10
24.91
23.74
21.97
19.03
14.78
9.56
4.04
-1.04
-5.15
-8.06
-9.70
-10.14
-9.59
-8.48
-7.58
-7.90
-10.45
-15.76
-23.46
-32.15
-39.60
-43.44
-42.03
-35.12
-24.10
-11.50
-0.03
8.44
13.46
15.94
17.46
19.46
22.63
26.84
31.39
35.41
38.08
38.71
36.66
31.37
22.61
10.70
-3.36
-17.92
-31.08
-41.30
-47.85
-51.09
-52.26
-52.96
-54.48
-57.25
-60.74
-63.79
-65.24
-64.41
-61.35
-56.58
-50.72
-44.05
-36.42
-27.44
-16.85
-4.67
8.69
22.60
36.42
49.57
61.52
71.78
79.78
84.98
86.95
85.44
80.40
71.96
60.48
46.60
31.37
16.17
2.47
-8.46
-15.91
-19.73
-20.16
-17.56
-12.23
-4.50
5.16
16.03
27.20
37.71
46.77
53.87
58.83
61.73
62.91
62.83
61.95
60.54
58.47
55.29
50.45
43.65
35.08
25.42
15.62
6.64
-0.79
-6.32
-9.89
-11.75
-12.40
-12.52
-12.91
-14.23
-16.84
-20.62
-24.96
-28.99
-31.88
-33.07
-32.45
-30.24
-26.77
-22.22
-16.57
-9.58
-1.02
9.10
20.50
32.71
45.30
57.83
69.78
80.35
88.53
93.38
94.49
92.36
88.34
84.13
81.11
79.73
79.40
78.88
76.87
72.57
65.82
56.92
46.28
34.14
20.61
5.75
-10.08
-26.08
-41.20
-54.43
-65.15
-73.28
-79.20
-83.66
-87.55
-91.56
-95.95
-100.56
-105.04
-109.00
-112.27
-114.95
-117.34
-120.01
-123.17
-126.49
-129.17
-130.28
-129.17
-125.58
-119.68
-111.91
-103.40
-94.86
-86.38
-77.66
-68.63
-59.60
-50.97
-43.01
-35.68
-30.07
-26.59
-24.73
-23.58
-22.75
-22.63
-23.87
-26.89
-31.67
-39.76
-51.22
-64.15
-75.62
-83.74
-88.56
-91.74
-95.59
-102.14
-114.98
-134.74
-158.28
-180.19
-195.55
-201.38
-196.53
-181.23
-140.78
-74.52
2.92
70.43
114.63
134.41
136.39
129.28
120.10
112.75
105.82
98.02
90.07
84.32
82.55
85.00
90.21
96.40
102.41
106.03
107.04
107.38
109.78
115.56
123.90
132.62
139.58
143.60
143.51
139.92
134.94
130.98
129.26
129.34
129.70
128.75
125.44
118.92
109.37
98.01
86.55
76.44
68.42
62.48
57.96
53.57
47.36
37.49
22.86
3.52
-19.28
-43.53
-67.06
-88.24
-106.46
-122.14
-136.33
-149.97
-163.35
-175.76
-185.80
-191.83
-192.70
-188.13
-178.65
-165.26
-148.91
-130.19
-109.43
-86.97
-63.44
-39.76
-16.98
3.97
22.38
37.68
49.25
56.41
58.74
56.43
50.57
43.02
35.89
30.91
29.01
30.44
35.03
42.68
53.38
67.05
83.05
99.96
115.76
128.40
136.46
139.69
139.02
136.07
132.37
128.76
124.99
119.95
112.12
100.26
83.92
63.64
40.87
17.43
-4.94
-25.17
-43.15
-59.60
-75.63
-91.90
-107.70
-120.44
-126.09
-120.54
-101.60
-70.67
-32.86
4.47
34.42
53.01
60.26
59.47
55.45
52.48
53.06
57.55
64.58
71.55
75.33
72.77
61.34
39.96
9.78
-25.32
-59.16
-84.73
-96.46
-92.40
-75.31
-51.92
-30.47
-17.61
-16.04
-24.06
-37.09
-50.22
-60.11
-65.54
-66.46
-62.82
-54.04
-39.61
-20.06
2.37
24.29
42.29
54.31
60.25
61.66
60.46
57.82
53.63
46.90
36.66
22.86
6.73
-9.57
-23.63
-33.66
-39.10
-40.96
-41.28
-42.05
-44.12
-46.38
-46.06
-39.87
-25.50
-2.93
25.41
55.35
82.29
102.25
112.43
111.23
98.26
74.63
43.14
8.13
-25.39
-52.91
-71.74
-81.39
-83.23
-79.66
-73.18
-65.91
-59.62
-55.91
-56.23
-61.34
-70.44
-80.74
-87.81
-86.59
-73.19
-46.42
-8.70
34.17
74.47
104.71
119.87
119.12
106.16
88.06
72.95
67.05
72.55
86.94
104.19
117.14
120.09
110.38
88.67
58.15
23.13
-12.11
-44.11
-70.63
-90.81
-105.01
-114.24
-119.38
-120.39
-116.13
-104.77
-84.76
-55.69
-18.67
23.71
67.89
109.90
145.99
173.20
189.96
196.50
194.75
187.82
178.94
170.46
163.35
157.30
151.42
144.96
137.80
130.51
124.29
120.46
119.97
122.72
127.04
129.82
127.22
116.22
95.85
67.77
35.80
4.46
-22.90
-45.08
-63.14
-79.69
-97.69
-119.17
-144.48
-172.35
-200.64
-227.54
-252.07
-274.20
-294.35
-312.71
-328.54
-340.10
-345.36
-342.94
-333.28
-317.87
-298.50
-276.60
-253.29
-229.61
-206.71
-185.56
-166.22
-148.31
-129.27
-105.00
-72.16
-30.62
15.98
61.85
101.70
132.54
151.81
160.10
160.48
156.49
150.00
141.44
131.29
121.42
114.28
107.86
99.80
88.54
72.68
49.80
17.75
-23.73
-71.78
-122.45
-176.98
-235.48
-294.92
-350.00
-396.50
-432.44
-458.30
-475.63
-452.61
-376.81
-262.13
-137.94
-26.07
65.81
138.02
190.66
230.18
259.32
274.16
272.91
258.74
238.89
217.32
199.00
187.84
186.83
195.77
208.16
217.28
219.03
212.27
197.03
174.28
145.78
115.02
85.87
60.19
39.72
25.76
18.09
14.25
10.50
3.29
-8.61
-24.22
-40.94
-54.68
-61.04
-56.91
-41.40
-16.81
11.53
37.30
54.88
62.10
60.16
52.54
43.25
36.07
32.58
31.71
30.99
27.61
21.44
13.60
5.54
-1.14
-3.60
0.50
11.87
29.44
50.24
72.42
93.83
111.84
114.95
96.88
61.27
19.90
-9.90
-26.90
-33.18
-31.65
-27.66
-25.10
-25.14
-27.68
-32.26
-38.72
-47.63
-57.65
-67.25
-75.32
-80.75
-81.63
-76.82
-66.90
-54.22
-42.43
-33.33
-27.62
-25.06
-24.45
-23.58
-20.73
-15.45
-8.70
-2.40
2.62
6.32
9.09
11.62
14.68
18.53
22.72
26.41
28.71
29.60
29.51
28.96
28.41
28.18
28.29
28.52
28.56
28.17
27.42
26.54
25.67
24.84
23.88
22.56
20.73
18.37
15.68
12.98
10.55
8.60
7.12
6.00
5.03
4.03
2.91
1.67
0.38
-0.85
-1.98
-3.02
-4.01
-5.01
-5.97
-6.78
-7.27
-7.27
-6.73
-5.70
-4.31
-2.75
-1.18
0.27
1.50
2.48
3.21
3.72
4.08
4.35
4.60
4.85
5.11
5.40
5.75
6.14
6.52
6.77
6.77
6.45
5.89
5.21
4.63
4.24
4.05
3.92
3.71
3.34
2.84
2.31
1.87
1.49
1.08
0.49
-0.35
-1.37
-2.43
-3.38
-4.14
-4.74
-5.25
-5.65
-5.86
-5.73
-5.14
-4.16
-2.96
-1.80
-0.83
-0.09
0.56
1.23
1.98
2.74
3.39
3.82
4.03
4.11
4.16
4.23
4.28
4.26
4.11
3.81
3.44
3.08
2.81
2.66
2.60
2.59
2.57
2.49
2.33
2.07
1.68
1.16
0.50
-0.28
-1.13
-2.00
-2.82
-3.55
-4.18
-4.70
-5.11
-5.41
-5.57
-5.57
-5.39
-5.01
-4.44
-3.75
-3.02
-2.34
-1.75
-1.25
-0.81
-0.43
-0.11
0.14
0.32
0.48
0.70
1.01
1.42
1.87
2.25
2.48
2.54
2.46
2.29
2.10
1.92
1.75
1.59
1.41
1.16
0.83
0.41
-0.07
-0.60
-1.15
-1.75
-2.40
-3.12
-3.90
-4.70
-5.44
-6.07
-6.50
-6.75
-6.81
-6.73
-6.52
-6.14
-5.55
-4.73
-3.73
-2.68
-1.72
-0.95
-0.38
0.05
0.44
0.82
1.19
1.53
1.82
2.09
2.39
2.71
3.01
3.20
3.25
3.14
2.91
2.57
2.15
1.63
1.05
0.47
-0.04
-0.49
-0.93
-1.46
-2.17
-3.02
-3.88
-4.57
-4.98
-5.16
-5.29
-5.61
-6.24
-7.17
-8.17
-8.96
-9.28
-9.06
-8.35
-7.32
-6.15
-4.90
-3.59
-2.19
-0.77
0.55
1.58
2.22
2.46
2.45
2.43
2.59
3.03
3.68
4.40
5.02
5.43
5.62
5.60
5.46
5.22
4.91
4.53
4.09
3.61
3.16
2.79
2.54
2.37
2.15
1.76
1.10
0.17
-0.91
-1.98
-2.88
-3.58
-4.14
-4.73
-5.46
-6.37
-7.37
-8.29
-8.94
-9.20
-9.02
-8.43
-7.50
-6.33
-5.03
-3.71
-2.42
-1.23
-0.13
0.90
1.85
2.70
3.39
3.86
4.12
4.25
4.37
4.59
4.97
5.47
5.95
6.30
6.41
6.26
5.92
5.46
4.98
4.57
4.26
4.04
3.89
3.73
3.51
3.20
2.75
2.15
1.41
0.55
-0.37
-1.26
-2.02
-2.61
-3.06
-3.49
-4.04
-4.76
-5.63
-6.46
-7.02
-7.12
-6.73
-5.96
-5.03
-4.14
-3.38
-2.75
-2.15
-1.51
-0.78
-0.02
0.71
1.36
1.93
2.47
3.00
3.55
4.07
4.50
4.78
4.88
4.83
4.65
4.39
4.06
3.69
3.29
2.91
2.58
2.31
2.08
1.84
1.54
1.18
0.76
0.33
-0.11
-0.55
-1.06
-1.70
-2.49
-3.41
-4.41
-5.40
-6.30
-7.05
-7.57
-7.83
-7.80
-7.51
-7.01
-6.37
-5.63
-4.80
-3.84
-2.73
-1.46
-0.13
1.14
2.24
3.10
3.74
4.23
4.62
4.92
5.10
5.14
5.02
4.79
4.50
4.18
3.87
3.58
3.37
3.31
3.41
3.63
3.84
3.89
3.65
3.12
2.41
1.65
0.99
0.48
0.10
-0.23
-0.60
-1.06
-1.64
-2.33
-3.08
-3.84
-4.56
-5.21
-5.79
-6.31
-6.82
-7.37
-7.98
-8.64
-9.24
-9.65
-9.75
-9.49
-8.91
-8.08
-7.12
-6.07
-4.97
-3.83
-2.66
-1.53
-0.52
0.34
1.05
1.68
2.32
3.01
3.73
4.40
4.93
5.25
5.37
5.34
5.21
5.05
4.89
4.74
4.62
4.52
4.44
4.32
4.12
3.79
3.37
2.94
2.57
2.33
2.17
2.00
1.68
1.14
0.39
-0.49
-1.40
-2.27
-3.06
-3.78
-4.44
-5.07
-5.68
-6.29
-6.90
-7.50
-8.08
-8.54
-8.80
-8.74
-8.31
-7.50
-6.39
-5.09
-3.75
-2.48
-1.34
-0.36
0.46
1.13
1.70
2.21
2.76
3.39
4.11
4.86
5.52
5.97
6.14
6.04
5.80
5.54
5.40
5.41
5.53
5.65
5.69
5.61
5.40
5.12
4.76
4.32
3.77
3.09
2.37
1.73
1.30
1.13
1.13
1.12
0.86
0.24
-0.73
-1.90
-3.07
-4.06
-4.84
-5.49
-6.13
-6.85
-7.64
-8.39
-8.96
-9.24
-9.21
-8.91
-8.43
-7.83
-7.11
-6.26
-5.22
-4.00
-2.63
-1.18
0.25
1.57
2.70
3.59
4.24
4.67
4.95
5.14
5.31
5.49
5.69
5.89
6.09
6.26
6.41
6.52
6.57
6.54
6.38
6.10
5.74
5.35
4.96
4.60
4.26
3.93
3.57
3.20
2.82
2.42
1.97
1.44
0.79
0.05
-0.74
-1.55
-2.36
-3.21
-4.14
-5.21
-6.42
-7.73
-9.08
-10.42
-11.74
-13.07
-14.41
-15.77
-17.14
-18.47
-19.68
-20.71
-21.51
-22.06
-22.38
-22.51
-22.53
-22.55
-22.65
-22.90
-23.35
-23.94
-24.57
-25.04
-25.17
-24.84
-24.04
-22.79
-21.10
-18.95
-16.24
-12.92
-9.07
-4.94
-0.86
2.82
5.90
8.31
10.13
11.50
12.58
13.55
14.61
15.88
17.35
18.86
20.10
20.80
20.84
20.36
19.77
19.51
19.96
21.23
23.15
25.25
27.04
28.04
28.08
27.23
25.82
24.38
23.43
23.36
24.20
25.54
26.52
26.04
23.19
17.54
9.46
0.04
-9.25
-17.04
-22.42
-25.16
-25.60
-24.40
-22.29
-19.87
-17.60
-15.76
-14.48
-13.78
-13.56
-13.70
-14.03
-14.31
-14.25
-13.61
-12.20
-10.09
-7.53
-4.83
-2.23
0.31
3.00
6.05
9.38
12.42
14.33
14.35
12.31
8.77
4.90
1.87
0.42
0.54
1.57
2.71
3.46
3.85
4.33
5.26
6.55
7.60
7.61
6.19
3.77
1.56
0.92
2.66
6.53
11.24
15.15
16.97
16.41
14.08
11.06
8.26
6.05
4.25
2.49
0.60
-1.27
-2.68
-3.23
-2.84
-1.83
-0.86
-0.62
-1.57
-3.76
-6.84
-10.26
-13.47
-16.07
-17.93
-19.04
-19.48
-19.31
-18.59
-17.46
-16.25
-15.47
-15.68
-17.25
-20.02
-23.25
-25.81
-26.59
-24.95
-21.01
-15.53
-9.62
-4.31
-0.26
2.27
3.38
3.36
2.59
1.51
0.56
0.09
0.24
0.94
1.97
3.07
4.03
4.75
5.23
5.52
5.76
6.10
6.69
7.62
8.86
10.24
11.52
12.50
13.08
13.35
13.44
13.49
13.55
13.56
13.45
13.17
12.73
12.18
11.56
10.89
10.17
9.40
8.60
7.84
7.17
6.56
5.95
5.24
4.36
3.35
2.31
1.37
0.57
-0.13
-0.82
-1.56
-2.26
-2.75
-2.84
-2.37
-1.35
0.06
1.62
3.12
4.43
5.53
6.47
7.28
7.97
8.50
8.88
9.17
9.43
9.71
9.99
10.15
10.05
9.62
8.92
8.10
7.35
6.78
6.43
6.20
6.03
5.86
5.67
5.48
5.26
4.95
4.48
3.76
2.80
1.61
0.31
-0.99
-2.19
-3.24
-4.17
-5.02
-5.86
-6.65
-7.28
-7.59
-7.47
-6.90
-6.01
-5.00
-4.02
-3.14
-2.33
-1.55
-0.80
-0.14
0.29
0.45
0.35
0.12
-0.05
0.00
0.34
0.92
1.63
2.33
2.88
3.28
3.53
3.73
3.94
4.16
4.33
4.35
4.17
3.77
3.19
2.50
1.74
0.97
0.24
-0.36
-0.72
-0.82
-0.70
-0.55
-0.56
-0.89
-1.60
-2.58
-3.69
-4.72
-5.51
-5.95
-5.92
-5.34
-4.15
-2.42
-0.30
1.91
3.93
5.58
6.80
7.67
8.29
8.73
8.98
8.97
8.69
8.23
7.75
7.46
7.45
7.71
8.13
8.56
8.94
9.25
9.47
9.58
9.51
9.18
8.56
7.71
6.74
5.80
4.96
4.21
3.47
2.64
1.67
0.58
-0.51
-1.45
-2.16
-2.65
-3.05
-3.55
-4.30
-5.35
-6.62
-7.96
-9.21
-10.22
-10.87
-11.07
-10.76
-9.93
-8.64
-7.05
-5.32
-3.64
-2.09
-0.73
0.44
1.40
2.13
2.60
2.84
2.93
2.95
2.99
3.12
3.32
3.55
3.74
3.83
3.78
3.59
3.30
2.93
2.54
2.15
1.76
1.37
0.95
0.45
-0.18
-1.00
-2.01
-3.17
-4.33
-5.40
-6.30
-7.09
-7.93
-8.94
-10.14
-11.41
-12.49
-13.11
-13.09
-12.42
-11.19
-9.61
-7.84
-6.02
-4.25
-2.56
-1.01
0.36
1.56
2.61
3.55
4.40
5.13
5.70
6.05
6.18
6.13
5.98
5.83
5.70
5.60
5.50
5.40
5.33
5.32
5.39
5.48
5.48
5.28
4.84
4.21
3.50
2.84
2.32
1.92
1.59
1.24
0.83
0.37
-0.11
-0.58
-1.05
-1.57
-2.18
-2.94
-3.89
-5.04
-6.38
-7.84
-9.31
-10.61
-11.55
-11.95
-11.68
-10.72
-9.15
-7.16
-5.00
-2.95
-1.21
0.12
1.09
1.83
2.47
3.09
3.66
4.09
4.28
4.25
4.08
3.93
3.92
4.06
4.25
4.36
4.30
4.06
3.71
3.31
2.87
2.37
1.77
1.08
0.37
-0.31
-0.90
-1.41
-1.88
-2.32
-2.74
-3.12
-3.46
-3.77
-4.08
-4.42
-4.80
-5.23
-5.73
-6.35
-7.11
-8.00
-8.90
-9.63
-9.94
-9.63
-8.66
-7.14
-5.33
-3.52
-1.90
-0.51
0.73
1.90
3.01
3.96
4.59
4.84
4.77
4.54
4.34
4.21
4.12
3.97
3.73
3.49
3.40
3.58
4.01
4.55
5.02
5.24
5.11
4.67
4.00
3.21
2.40
1.64
0.93
0.27
-0.33
-0.87
-1.35
-1.78
-2.17
-2.58
-3.08
-3.72
-4.57
-5.63
-6.87
-8.18
-9.44
-10.53
-11.35
-11.83
-11.92
-11.60
-10.83
-9.65
-8.10
-6.33
-4.50
-2.76
-1.21
0.16
1.37
2.43
3.35
4.08
4.61
4.99
5.29
5.61
5.99
6.39
6.70
6.80
6.62
6.21
5.66
5.12
4.70
4.41
4.24
4.11
3.97
3.81
3.60
3.31
2.89
2.29
1.54
0.74
0.03
-0.48
-0.74
-0.85
-0.97
-1.23
-1.70
-2.39
-3.21
-4.06
-4.89
-5.67
-6.39
-7.09
-7.79
-8.55
-9.41
-10.36
-11.35
-12.27
-12.92
-13.11
-12.71
-11.69
-10.14
-8.28
-6.31
-4.45
-2.85
-1.59
-0.66
-0.02
0.46
0.86
1.29
1.76
2.26
2.72
3.10
3.35
3.48
3.54
3.51
3.40
3.17
2.81
2.34
1.79
1.19
0.49
-0.39
-1.50
-2.83
-4.30
-5.74
-6.99
-7.95
-8.54
-8.74
-8.56
-8.02
-7.19
-6.21
-5.28
-4.66
-4.49
-4.81
-5.52
-6.42
-7.29
-8.00
-8.48
-8.70
-8.64
-8.25
-7.45
-6.22
-4.60
-2.72
-0.76
1.09
2.66
3.83
4.53
4.77
4.65
4.36
4.12
4.10
4.38
4.92
5.64
6.45
7.32
8.22
9.05
9.68
9.95
9.75
9.14
8.29
7.41
6.70
6.21
5.87
5.52
5.01
4.26
3.25
2.07
0.85
-0.30
-1.33
-2.27
-3.27
-4.44
-5.81
-7.24
-8.49
-9.29
-9.49
-9.11
-8.32
-7.33
-6.28
-5.18
-3.90
-2.25
-0.06
2.78
6.22
10.03
13.84
17.21
19.83
21.74
23.42
25.65
29.24
34.58
41.43
48.92
55.84
61.17
64.58
66.69
68.97
73.26
80.98
92.32
105.73
117.82
123.99
119.63
101.57
69.36
25.81
-23.42
-71.26
-110.99
-137.96
-150.45
-149.57
-138.32
-120.38
-99.14
-77.26
-56.70
-38.90
-24.86
-15.03
-9.14
-6.06
-4.01
-1.02
4.42
12.95
24.02
36.04
46.54
52.70
51.96
42.70
24.85
0.15
-27.91
-54.76
-75.74
-87.55
-89.01
-81.12
-66.32
-47.62
-27.90
-9.58
5.40
15.61
19.88
17.63
9.49
-2.38
-14.77
-24.47
-29.33
-28.68
-23.14
-14.64
-5.87
0.91
4.74
6.07
6.19
6.61
8.68
13.43
20.67
28.72
35.22
37.93
34.95
24.67
5.93
-21.41
-51.36
-75.51
-87.29
-86.16
-77.01
-65.64
-55.34
-46.40
-37.14
-28.87
-20.59
-13.92
-11.71
-15.93
-26.28
-40.55
-55.69
-69.34
-77.28
-79.00
-76.89
-74.27
-73.70
-76.23
-81.61
-88.78
-95.94
-100.53
-99.99
-92.32
-76.35
-52.30
-22.02
10.76
41.26
64.98
79.10
82.76
76.98
64.15
47.17
29.07
12.04
-2.56
-13.32
-17.98
-13.53
2.60
30.65
67.10
105.84
139.15
160.71
168.11
163.79
153.23
141.81
132.02
122.76
112.59
100.51
87.11
74.39
64.76
59.61
58.49
59.53
60.49
62.17
66.32
74.34
86.19
100.61
115.89
130.49
143.60
144.52
128.15
97.00
59.97
26.00
-0.22
-18.08
-29.47
-35.29
-39.02
-40.88
-40.14
-36.54
-31.36
-27.23
-27.41
-35.93
-54.73
-83.31
-116.79
-148.97
-174.92
-192.70
-203.16
-208.65
-211.48
-212.58
-211.63
-206.22
-194.12
-174.59
-148.87
-119.64
-90.18
-63.67
-42.28
-26.91
-16.32
-8.14
-0.03
9.35
20.02
30.88
40.33
47.08
50.45
50.84
49.20
46.55
43.76
41.54
40.61
41.73
45.60
52.44
61.80
72.38
82.40
90.15
94.52
95.30
93.02
88.40
81.75
72.72
60.48
44.38
24.55
2.18
-20.64
-41.47
-58.08
-68.96
-73.49
-72.02
-65.79
-56.68
-46.82
-38.03
-31.31
-26.61
-23.06
-19.47
-14.97
-9.36
-3.05
3.28
9.05
13.96
17.94
20.97
22.98
23.90
23.75
22.82
21.62
20.72
20.48
20.96
21.87
22.71
23.01
22.54
21.43
20.11
19.06
18.61
18.65
18.71
18.14
16.47
13.64
10.11
6.61
3.81
2.02
1.08
0.53
-0.16
-1.30
-2.82
-4.37
-5.49
-5.85
-5.34
-4.07
-2.26
-0.08
2.37
5.03
7.82
10.58
13.08
15.14
16.67
17.71
18.35
18.64
18.56
18.02
17.02
15.63
14.13
12.85
12.07
11.86
12.03
12.14
11.64
10.09
7.35
3.61
-0.61
-4.63
-7.86
-9.97
-11.02
-11.39
-11.57
-11.98
-12.79
-13.82
-14.67
-14.87
-14.01
-11.96
-8.87
-5.15
-1.19
2.81
7.01
11.83
17.67
24.58
32.00
38.88
44.05
46.78
47.15
46.08
44.77
44.13
44.35
44.64
43.68
40.27
34.09
25.93
17.39
10.01
4.52
0.57
-2.94
-7.16
-12.80
-20.41
-30.80
-45.10
-64.05
-86.12
-106.53
-118.17
-114.44
-92.61
-55.88
-12.36
28.13
57.54
72.95
76.72
73.97
69.64
66.84
66.63
69.39
75.20
82.68
89.86
94.76
95.25
89.99
79.42
65.85
53.35
45.75
43.12
43.04
41.40
32.47
11.12
-24.33
-70.03
-115.45
-146.76
-154.11
-133.62
-88.83
-30.89
25.76
68.97
87.08
75.74
51.58
27.63
6.82
-9.68
-22.49
-32.31
-39.00
-41.83
-39.43
-31.42
-21.29
-13.05
-9.25
-11.61
-20.61
-35.56
-54.81
-75.26
-93.24
-106.82
-113.98
-112.38
-100.99
-80.65
-54.08
-25.40
1.42
23.23
37.36
43.24
42.58
37.97
32.11
27.30
25.21
27.08
33.35
42.79
53.15
61.82
66.37
65.56
59.90
51.51
43.27
37.46
34.57
33.44
32.00
28.35
21.56
11.97
0.88
-10.21
-20.02
-27.78
-33.11
-35.79
-35.73
-32.91
-27.51
-19.86
-10.52
-0.23
10.07
19.27
26.24
30.06
30.32
27.38
22.22
16.17
10.39
5.52
1.65
-1.44
-4.00
-6.11
-7.88
-9.66
-12.24
-16.68
-23.77
-33.57
-45.18
-56.97
-67.05
-73.78
-76.11
-73.75
-67.22
-57.82
-47.46
-38.19
-31.62
-28.31
-27.61
-27.97
-27.71
-25.77
-22.03
-17.16
-12.02
-7.13
-2.36
2.86
9.24
17.17
26.53
36.55
45.94
53.27
57.29
57.38
53.72
47.23
39.28
31.26
24.13
18.10
12.50
5.98
-2.96
-15.26
-30.69
-47.74
-64.07
-77.34
-86.04
-89.88
-89.57
-86.18
-80.61
-73.40
-64.88
-55.62
-46.46
-38.36
-31.95
-27.17
-23.37
-19.61
-15.23
-10.13
-4.85
-0.24
2.99
4.52
4.62
3.99
3.46
3.66
4.81
6.71
8.82
10.57
11.57
11.78
11.41
10.84
10.39
10.23
10.35
10.57
10.74
10.74
10.49
9.96
9.14
8.05
6.82
5.65
4.78
4.42
4.66
5.46
6.65
8.01
9.34
10.51
11.51
12.36
13.12
13.89
14.71
15.61
16.60
17.63
18.61
19.49
20.26
20.99
21.77
22.72
23.80
24.89
25.73
26.12
26.01
25.55
25.07
24.97
25.61
27.24
29.96
33.68
37.98
42.03
44.65
44.60
41.09
34.14
24.64
14.01
3.59
-5.73
-13.64
-20.12
-25.03
-28.08
-29.00
-28.02
-26.07
-24.51
-24.55
-26.58
-30.01
-33.62
-36.21
-37.10
-36.23
-33.90
-30.29
-25.29
-18.55
-9.89
0.41
11.61
22.67
32.62
40.79
46.90
50.91
52.98
53.33
52.25
49.90
46.16
40.62
32.68
21.91
8.44
-6.70
-21.65
-34.06
-41.74
-43.46
-39.47
-31.59
-22.76
-16.07
-13.66
-15.94
-21.50
-27.73
-31.98
-32.68
-29.78
-24.55
-18.74
-13.77
-10.30
-8.30
-7.48
-7.53
-8.25
-9.39
-10.59
-11.40
-11.61
-11.52
-11.94
-13.93
-18.20
-24.72
-32.51
-39.94
-45.25
-47.12
-45.08
-39.66
-32.24
-24.64
-18.65
-15.52
-15.64
-18.42
-22.42
-25.74
-26.70
-24.38
-19.08
-12.18
-5.60
-1.06
0.61
-0.38
-3.16
-6.79
-10.84
-15.31
-20.36
-25.70
-30.40
-33.12
-32.69
-28.75
-21.95
-13.67
-5.31
2.20
8.77
14.92
21.33
28.40
36.02
43.59
50.27
55.24
57.99
58.42
56.81
53.73
49.90
46.02
42.69
40.31
39.11
39.22
40.68
43.48
47.35
51.78
55.93
58.90
59.97
58.91
56.00
51.92
47.46
43.22
39.49
36.25
33.32
30.48
27.53
24.29
20.59
16.37
11.64
6.62
1.61
-3.04
-7.14
-10.63
-13.56
-16.03
-18.05
-19.62
-20.74
-21.47
-21.97
-22.40
-22.91
-23.57
-24.33
-25.16
-26.01
-26.85
-27.70
-28.50
-29.22
-29.75
-30.04
-30.05
-29.77
-29.24
-28.51
-27.62
-26.59
-25.40
-23.97
-22.19
-19.96
-17.20
-13.94
-10.35
-6.63
-3.03
0.27
3.15
5.58
7.57
9.21
10.63
12.03
13.55
15.27
17.03
18.50
19.27
19.07
17.89
16.05
14.05
12.30
10.98
9.98
8.97
7.63
5.74
3.29
0.38
-2.86
-6.28
-9.77
-13.16
-16.25
-18.83
-20.78
-22.08
-22.83
-23.21
-23.37
-23.36
-23.07
-22.28
-20.72
-18.25
-14.92
-11.06
-7.19
-3.89
-1.56
-0.37
-0.18
-0.67
-1.45
-2.20
-2.75
-3.03
-3.09
-3.01
-2.90
-2.86
-3.02
-3.47
-4.25
-5.30
-6.46
-7.54
-8.41
-9.05
-9.60
-10.23
-11.10
-12.22
-13.46
-14.61
-15.53
-16.17
-16.63
-17.06
-17.53
-18.03
-18.38
-18.37
-17.78
-16.47
-14.42
-11.69
-8.44
-4.85
-1.10
2.65
6.25
9.57
12.47
14.79
16.39
17.17
17.11
16.24
14.65
12.50
9.98
7.40
5.11
3.45
2.63
2.65
3.24
3.97
4.43
4.30
3.48
2.01
-0.02
-2.53
-5.43
-8.59
-11.84
-14.93
-17.63
-19.83
-21.52
-22.73
-23.42
-23.39
-22.29
-19.72
-15.44
-9.47
-2.15
5.97
14.27
22.17
29.24
35.21
39.99
43.68
46.54
48.86
50.80
52.29
53.04
52.80
51.53
49.51
47.27
45.22
43.48
41.79
39.76
37.14
34.06
30.90
28.10
25.81
23.84
21.77
19.29
16.36
13.24
10.29
7.76
5.67
3.89
2.24
0.63
-0.93
-2.35
-3.56
-4.57
-5.37
-5.94
-6.22
-6.19
-5.88
-5.48
-5.24
-5.35
-5.88
-6.68
-7.51
-8.13
-8.42
-8.46
-8.42
-8.49
-8.77
-9.26
-9.84
-10.36
-10.72
-10.87
-10.83
-10.66
-10.43
-10.18
-9.94
-9.75
-9.62
-9.57
-9.56
-9.52
-9.37
-9.06
-8.60
-8.07
-7.54
-7.06
-6.58
-6.01
-5.30
-4.43
-3.51
-2.63
-1.83
-1.04
-0.16
0.87
1.97
2.94
3.56
3.77
3.71
3.72
4.15
5.17
6.76
8.67
10.62
12.37
13.82
14.95
15.77
16.28
16.45
16.29
15.82
15.13
14.29
13.37
12.38
11.35
10.30
9.29
8.40
7.71
7.23
6.90
6.56
6.01
5.06
3.62
1.67
-0.74
-3.58
-6.74
-10.04
-13.21
-15.91
-17.85
-18.90
-19.18
-18.95
-18.52
-18.12
-17.80
-17.58
-17.44
-17.40
-17.47
-17.65
-17.82
-17.83
-17.54
-16.91
-15.98
-14.84
-13.60
-12.34
-11.09
-9.91
-8.84
-7.96
-7.30
-6.89
-6.73
-6.78
-7.01
-7.33
-7.61
-7.68
-7.36
-6.63
-5.61
-4.61
-4.02
-4.08
-4.73
-5.63
-6.23
-6.06
-4.89
-2.89
-0.47
1.83
3.57
4.54
4.83
4.70
4.56
4.75
5.44
6.46
7.31
7.25
5.62
2.11
-2.90
-8.44
-13.15
-15.75
-15.50
-12.36
-7.05
-0.75
5.18
9.59
11.79
11.62
9.49
6.18
2.61
-0.49
-2.79
-4.42
-5.81
-7.41
-9.46
-11.89
-14.36
-16.52
-18.15
-19.25
-19.97
-20.48
-20.84
-20.93
-20.48
-19.20
-16.88
-13.51
-9.40
-5.06
-1.21
1.55
2.88
2.85
1.91
0.70
-0.25
-0.61
-0.32
0.62
2.25
4.72
8.21
12.75
18.11
23.82
29.30
34.00
37.54
39.68
40.34
39.44
36.95
32.93
27.63
21.64
15.77
10.93
7.77
6.49
6.75
7.80
8.87
9.49
9.64
9.64
9.93
10.74
12.04
13.59
15.11
16.46
17.61
18.60
19.41
19.99
20.29
20.32
20.16
19.91
19.59
19.11
18.19
16.52
13.86
10.22
5.88
1.42
-2.52
-5.33
-6.69
-6.63
-5.45
-3.68
-1.88
-0.64
-0.45
-1.66
-4.34
-8.12
-12.23
-15.70
-17.68
-17.83
-16.46
-14.28
-12.14
-10.53
-9.53
-8.87
-8.22
-7.41
-6.54
-5.85
-5.53
-5.68
-6.25
-7.20
-8.48
-10.05
-11.89
-13.90
-15.96
-17.89
-19.50
-20.61
-21.12
-21.07
-20.60
-19.98
-19.48
-19.26
-19.30
-19.43
-19.43
-19.11
-18.39
-17.35
-16.09
-14.76
-13.46
-12.23
-11.10
-10.06
-9.10
-8.16
-7.20
-6.16
-5.02
-3.78
-2.53
-1.40
-0.60
-0.36
-0.85
-2.17
-4.26
-6.89
-9.75
-12.51
-14.85
-16.53
-17.31
-17.04
-15.63
-13.18
-9.99
-6.53
-3.30
-0.68
1.18
2.36
3.08
3.53
3.81
3.88
3.69
3.25
2.69
2.22
2.04
2.27
2.87
3.71
4.57
5.30
5.78
5.99
5.96
5.85
5.80
6.00
6.52
7.39
8.51
9.73
10.88
11.80
12.42
12.69
12.63
12.33
11.86
11.31
10.71
10.07
9.40
8.72
8.08
7.50
6.99
6.47
5.87
5.15
4.33
3.53
2.91
2.58
2.59
2.87
3.26
3.54
3.55
3.19
2.60
2.02
1.77
2.06
2.82
3.68
4.11
3.61
2.02
-0.35
-2.85
-4.73
-5.54
-5.37
-4.86
-4.93
-6.26
-8.96
-12.41
-15.56
-17.40
-17.49
-16.16
-14.38
-13.30
-13.66
-15.56
-18.34
-21.03
-22.65
-22.46
-19.89
-14.74
-7.46
0.40
6.18
6.76
-0.13
-14.48
-33.39
-51.72
-63.90
-66.27
-58.41
-43.02
-24.40
-6.37
8.98
21.43
31.60
39.84
45.68
48.17
46.78
42.07
35.74
30.06
26.86
26.65
28.53
30.67
31.27
29.29
24.88
19.05
13.09
7.92
3.68
-0.06
-3.90
-8.09
-12.24
-15.53
-17.10
-16.55
-14.16
-10.79
-7.48
-5.02
-3.68
-3.24
-3.13
-2.81
-1.90
-0.40
1.48
3.43
5.15
6.54
7.55
8.22
8.58
8.63
8.39
7.88
7.20
6.47
5.81
5.31
4.94
4.61
4.19
3.63
2.97
2.34
1.87
1.67
1.69
1.82
1.88
1.74
1.38
0.88
0.36
-0.06
-0.31
-0.42
-0.46
-0.54
-0.69
-0.91
-1.21
-1.59
-2.09
-2.79
-3.75
-4.91
-6.10
-7.02
-7.43
-7.24
-6.54
-5.65
-4.94
-4.69
-4.93
-5.42
-5.79
-5.71
-5.11
-4.27
-3.72
-4.03
-5.48
-7.82
-10.35
-12.14
-12.56
-11.58
-9.89
-8.59
-8.69
-10.50
-13.42
-16.13
-17.20
-15.76
-11.82
-6.13
0.34
6.93
13.39
19.39
24.10
26.20
24.56
19.82
15.04
14.68
22.08
37.02
55.31
70.76
78.85
79.02
74.91
71.57
71.99
75.39
78.43
78.14
74.34
69.50
66.01
63.86
59.84
49.14
28.48
-1.51
-36.12
-68.63
-93.07
-106.68
-109.70
-104.52
-94.35
-81.96
-69.28
-57.33
-46.37
-33.70
-18.59
-2.27
12.49
22.88
27.48
26.46
21.60
14.94
8.34
2.56
-2.53
-6.69
-10.33
-13.96
-17.94
-22.23
-26.56
-30.59
-34.55
-38.73
-43.27
-48.00
-52.46
-56.16
-58.85
-60.82
-62.70
-65.33
-69.06
-73.33
-76.82
-77.76
-74.64
-66.84
-55.07
-41.15
-27.46
-15.83
-6.83
0.21
6.63
13.48
20.78
27.62
33.01
36.86
40.41
45.69
54.17
65.57
77.58
86.77
90.30
87.30
79.25
69.10
59.79
53.00
48.84
46.55
45.39
45.33
47.14
51.86
60.13
71.86
86.17
101.57
116.19
127.78
133.72
131.37
119.00
96.65
66.77
33.85
3.28
-20.55
-35.78
-43.73
-47.99
-52.57
-59.85
-69.46
-78.48
-83.09
-80.73
-71.63
-59.17
-48.12
-42.42
-43.62
-50.79
-61.53
-73.21
-83.49
-89.99
-90.29
-81.61
-62.05
-32.68
1.60
33.26
55.35
64.48
62.12
52.22
39.48
27.14
15.84
4.29
-9.13
-24.96
-42.66
-61.15
-80.53
-100.69
-120.16
-136.31
-146.51
-149.24
-145.23
-136.99
-119.71
-91.95
-55.07
-12.52
31.24
70.93
100.97
116.49
116.35
104.67
89.65
77.45
71.37
70.43
69.69
64.04
50.67
30.81
8.52
-13.08
-31.87
-47.19
-59.61
-69.19
-69.17
-52.55
-16.74
32.58
82.08
117.11
128.03
117.17
91.13
59.39
30.48
9.41
-3.20
-10.29
-14.49
-17.68
-19.93
-20.22
-16.87
-9.79
-0.98
6.27
9.13
6.85
0.91
-5.77
-10.80
-13.01
-13.34
-13.92
-16.54
-21.33
-26.56
-29.66
-28.44
-22.28
-11.96
0.46
12.45
21.65
26.36
25.85
20.63
12.79
5.91
4.56
12.59
31.29
58.08
86.57
108.30
115.49
103.88
74.43
33.26
-10.35
-46.96
-70.02
-77.58
-72.27
-59.57
-45.27
-33.26
-24.58
-18.09
-12.16
-6.50
-2.70
-3.38
-10.38
-23.12
-38.27
-51.01
-57.31
-55.87
-48.87
-41.00
-37.18
-40.54
-51.37
-67.30
-84.56
-99.12
-107.44
-106.92
-96.04
-74.88
-45.88
-14.07
13.87
32.01
37.85
33.98
26.93
24.68
33.29
54.49
84.83
117.25
143.76
158.06
157.35
141.67
113.60
77.56
38.85
2.19
-29.08
-53.37
-70.51
-80.83
-86.03
-88.10
-88.57
-87.82
-85.53
-80.89
-73.34
-63.39
-52.76
-46.39
-50.41
-70.25
-104.30
-142.88
-172.72
-183.05
-173.57
-143.56
-95.85
-36.61
26.65
87.55
137.40
168.55
176.39
160.69
126.79
83.59
42.54
14.70
7.15
19.59
44.85
72.03
91.42
98.84
95.54
86.62
77.66
71.94
69.00
66.28
61.26
53.23
43.79
35.05
28.42
23.99
20.75
17.26
12.76
7.61
3.07
0.79
1.58
5.04
9.71
13.76
15.68
15.08
12.68
9.96
8.41
8.84
11.11
14.33
17.28
18.95
18.92
17.44
15.28
13.45
12.92
14.43
18.29
24.31
31.82
39.76
46.94
52.35
55.37
55.90
54.33
51.51
48.56
46.64
46.51
48.20
50.78
52.41
51.02
45.09
34.40
20.19
4.66
-10.04
-22.63
-32.97
-41.76
-49.86
-57.63
-64.76
-70.58
-74.60
-76.82
-77.62
-77.46
-76.57
-75.11
-73.10
-70.59
-67.64
-64.37
-60.98
-57.47
-53.63
-49.18
-44.20
-38.93
-33.49
-27.79
-21.69
-15.43
-9.56
-4.59
-1.20
-0.28
-2.32
-6.87
-12.42
-17.11
-19.82
-20.42
-19.47
-18.45
-19.28
-23.53
-31.54
-42.28
-54.11
-66.14
-78.18
-90.09
-96.94
-94.45
-83.21
-69.19
-59.12
-55.96
-58.56
-65.25
-71.20
-73.69
-71.83
-67.21
-61.69
-55.13
-42.99
-21.95
9.02
49.14
94.55
141.30
184.00
217.50
238.53
246.33
242.21
229.63
215.66
198.38
181.40
167.69
154.97
135.60
102.02
52.24
-8.53
-67.39
-115.98
-146.51
-155.97
-145.94
-120.65
-85.27
-41.66
-0.61
27.33
36.79
30.94
16.18
-1.34
-17.11
-28.79
-35.69
-38.94
-38.95
-36.34
-31.18
-24.85
-19.88
-17.39
-17.05
-17.27
-16.62
-13.42
-7.14
1.67
10.91
18.01
21.51
21.46
19.20
16.19
14.01
13.53
14.62
16.31
17.22
16.32
13.25
8.00
0.70
-7.87
-16.27
-23.05
-27.21
-28.77
-28.53
-27.86
-28.15
-30.30
-35.37
-41.99
-48.62
-53.84
-56.96
-57.88
-57.23
-56.25
-56.38
-58.92
-64.51
-73.61
-84.30
-95.19
-104.86
-111.97
-115.51
-114.98
-110.63
-103.36
-94.77
-86.37
-79.35
-73.95
-69.37
-64.06
-56.07
-43.77
-26.41
-4.79
18.90
41.62
60.84
75.43
85.94
93.99
101.09
107.67
112.79
115.02
113.56
109.53
106.19
107.91
118.16
137.65
163.31
188.98
207.67
214.34
207.90
191.07
168.57
144.82
122.43
102.06
83.41
66.17
50.31
35.43
20.10
2.19
-19.66
-44.25
-67.19
-82.18
-83.98
-71.28
-47.92
-21.70
-1.22
7.46
2.78
-12.69
-34.27
-57.73
-80.94
-103.65
-126.18
-147.95
-167.09
-181.10
-187.99
-187.08
-178.94
-164.85
-146.15
-123.98
-99.39
-73.68
-48.49
-25.58
-6.65
6.89
14.25
15.16
10.16
0.99
-9.14
-16.04
-15.88
-6.99
9.04
27.79
43.90
53.63
56.52
55.25
53.67
54.21
56.46
57.57
54.30
45.13
31.23
15.77
2.07
-7.96
-14.32
-18.14
-20.59
-22.02
-22.02
-19.83
-15.16
-8.67
-1.83
3.66
6.52
6.43
4.22
1.61
0.53
2.32
7.08
13.57
19.67
23.29
23.23
19.63
13.80
7.50
2.27
-1.09
-2.49
-2.36
-1.39
-0.28
0.43
0.62
0.81
2.31
6.86
15.92
29.66
46.52
63.38
76.54
83.00
81.43
72.47
58.46
42.71
28.68
19.16
15.57
17.75
24.03
31.82
38.51
42.27
42.44
39.55
34.90
30.18
27.10
27.13
31.33
39.98
52.03
64.80
74.33
76.40
68.28
49.92
24.21
-3.98
-29.56
-49.02
-61.28
-67.35
-69.08
-68.03
-65.04
-60.58
-55.32
-50.18
-45.92
-42.39
-38.36
-32.02
-21.99
-8.59
5.63
16.55
20.07
13.95
-0.98
-20.72
-39.35
-50.54
-50.44
-39.32
-21.31
-2.41
11.97
18.86
18.40
13.31
8.48
8.20
14.43
26.65
43.03
61.50
80.26
97.77
112.50
124.30
132.19
133.95
127.02
110.58
86.41
58.54
32.12
12.49
6.27
17.59
45.81
85.21
127.11
162.18
182.97
185.51
157.82
98.98
21.68
-54.29
-114.90
-156.68
-183.17
-198.94
-207.10
-209.29
-204.99
-195.12
-183.01
-172.82
-166.10
-161.07
-153.35
-138.90
-116.44
-86.79
-53.59
-22.02
3.56
22.65
35.94
45.07
51.20
54.73
56.69
58.20
60.09
60.74
61.39
62.02
61.69
58.83
51.97
41.06
27.57
13.98
2.87
-3.57
-5.63
-5.51
-6.42
-10.80
-18.94
-28.79
-37.20
-41.53
-40.57
-35.40
-28.09
-20.54
-13.71
-7.61
-1.82
3.74
8.45
11.43
11.80
9.45
5.24
0.62
-2.92
-4.33
-3.42
-0.79
2.56
5.47
7.19
7.60
7.03
5.98
5.15
4.72
4.61
4.58
4.42
4.08
3.71
3.52
3.65
4.13
4.74
5.25
5.45
5.26
4.72
3.95
3.12
2.38
1.85
1.59
1.64
1.95
2.48
3.07
3.57
3.85
3.86
3.65
3.26
2.68
1.89
0.78
-0.69
-2.49
-4.45
-6.33
-7.92
-9.10
-9.87
-10.30
-10.46
-10.41
-10.23
-10.02
-9.92
-10.09
-10.63
-11.56
-12.82
-14.23
-15.61
-16.73
-17.39
-17.47
-16.93
-15.85
-14.40
-12.81
-11.29
-10.00
-9.04
-8.39
-8.00
-7.76
-7.57
-7.35
-7.06
-6.67
-6.19
-5.65
-5.06
-4.43
-3.78
-3.17
-2.64
-2.24
-2.00
-1.93
-2.02
-2.20
-2.40
-2.53
-2.52
-2.35
-2.10
-1.87
-1.74
-1.73
-1.80
-1.81
-1.71
-1.45
-1.13
-0.83
-0.72
-0.85
-1.19
-1.58
-1.88
-1.95
-1.76
-1.40
-1.01
-0.81
-0.90
-1.31
-1.92
-2.58
-3.13
-3.41
-3.35
-2.97
-2.40
-1.81
-1.32
-1.01
-0.90
-0.97
-1.10
-1.26
-1.43
-1.83
-2.60
-3.74
-5.12
-6.55
-7.91
-8.97
-9.68
-9.99
-10.29
-10.86
-11.95
-13.76
-16.57
-20.53
-25.06
-29.21
-31.55
-31.12
-27.25
-20.07
-10.83
-1.99
3.50
3.75
-2.07
-12.92
-26.84
-40.98
-52.70
-60.15
-63.01
-62.38
-59.86
-58.53
-56.14
-52.21
-47.41
-42.11
-34.38
-20.88
-2.02
23.39
52.82
81.09
101.88
111.00
105.61
87.10
60.61
32.21
10.90
2.09
5.17
15.01
26.99
39.10
51.17
62.15
69.43
70.50
63.63
49.93
32.83
16.58
4.08
-3.87
-8.32
-11.14
-13.31
-15.55
-18.10
-20.81
-23.11
-24.36
-24.13
-22.51
-20.15
-17.80
-16.40
-16.38
-17.40
-18.49
-18.72
-17.63
-15.42
-12.73
-10.36
-9.10
-9.36
-10.94
-13.10
-14.90
-15.53
-14.61
-12.24
-8.97
-5.51
-2.43
0.13
2.36
4.58
7.04
9.77
12.64
15.42
17.92
20.01
21.57
22.47
22.56
21.76
20.12
17.78
15.02
12.12
9.35
6.92
4.88
3.19
1.74
0.38
-1.01
-2.45
-3.89
-5.18
-6.14
-6.64
-6.62
-6.16
-5.39
-4.47
-3.53
-2.64
-1.83
-1.07
-0.36
0.33
0.96
1.50
1.86
1.94
1.68
1.08
0.28
-0.49
-1.05
-1.29
-1.31
-1.32
-1.53
-1.99
-2.55
-3.02
-3.19
-3.03
-2.62
-2.11
-1.60
-1.14
-0.71
-0.32
-0.01
0.11
-0.03
-0.48
-1.19
-2.05
-2.90
-3.56
-3.84
-3.58
-2.71
-1.28
0.54
2.46
4.21
5.64
6.70
7.48
8.09
8.57
8.94
9.19
9.33
9.44
9.59
9.83
10.10
10.24
10.10
9.55
8.60
7.39
6.11
4.98
4.12
3.55
3.18
2.88
2.54
2.09
1.55
1.00
0.49
0.06
-0.33
-0.75
-1.25
-1.87
-2.55
-3.22
-3.74
-4.01
-3.99
-3.64
-3.01
-2.15
-1.10
0.08
1.39
2.76
4.10
5.28
6.18
6.74
6.95
6.93
6.80
6.70
6.70
6.81
6.98
7.18
7.42
7.73
8.12
8.50
8.76
8.70
8.25
7.49
6.65
6.06
5.95
6.37
7.10
7.68
7.65
6.71
4.83
2.31
-0.42
-2.92
-4.90
-6.32
-7.29
-7.97
-8.51
-8.93
-9.17
-9.16
-8.87
-8.31
-7.47
-6.35
-4.87
-3.02
-0.84
1.52
3.83
5.89
7.55
8.76
9.52
9.84
9.71
9.14
8.18
6.95
5.58
4.19
2.82
1.46
0.14
-1.07
-2.04
-2.59
-2.66
-2.28
-1.63
-0.95
-0.42
-0.14
-0.07
-0.18
-0.42
-0.81
-1.41
-2.20
-3.08
-3.85
-4.32
-4.37
-4.01
-3.37
-2.60
-1.77
-0.89
0.05
1.04
1.97
2.73
3.27
3.62
3.88
4.21
4.63
5.13
5.58
5.91
6.10
6.21
6.28
6.32
6.26
6.00
5.53
4.90
4.25
3.69
3.29
3.00
2.75
2.43
1.96
1.24
0.22
-1.08
-2.48
-3.73
-4.54
-4.77
-4.53
-4.23
-4.35
-5.27
-7.03
-9.31
-11.53
-13.08
-13.57
-12.88
-11.22
-9.02
-6.73
-4.71
-3.15
-2.00
-1.10
-0.17
0.93
2.22
3.52
4.58
5.18
5.24
4.85
4.20
3.48
2.76
2.09
1.42
0.79
0.27
-0.08
-0.23
-0.23
-0.19
-0.19
-0.26
-0.41
-0.66
-1.09
-1.77
-2.72
-3.79
-4.75
-5.28
-5.21
-4.53
-3.42
-2.13
-0.91
0.12
0.91
1.44
1.73
1.75
1.55
1.22
0.91
0.76
0.85
1.15
1.54
1.91
2.16
2.26
2.23
2.07
1.84
1.60
1.42
1.37
1.48
1.65
1.76
1.73
1.56
1.37
1.30
1.38
1.50
1.46
1.12
0.44
-0.47
-1.47
-2.47
-3.52
-4.68
-5.95
-7.20
-8.18
-8.71
-8.73
-8.38
-7.86
-7.34
-6.82
-6.17
-5.28
-4.09
-2.71
-1.33
-0.14
0.74
1.29
1.56
1.63
1.56
1.43
1.30
1.24
1.26
1.39
1.62
1.95
2.37
2.83
3.25
3.46
3.39
3.05
2.60
2.25
2.14
2.26
2.38
2.28
1.79
0.97
0.01
-0.92
-1.76
-2.57
-3.42
-4.29
-5.05
-5.50
-5.51
-5.10
-4.42
-3.65
-2.89
-2.19
-1.51
-0.83
-0.16
0.48
1.10
1.68
2.21
2.60
2.74
2.59
2.26
1.95
1.84
1.98
2.23
2.43
2.47
2.40
2.36
2.46
2.64
2.67
2.29
1.40
0.19
-0.97
-1.80
-2.22
-2.39
-2.61
-3.09
-3.87
-4.89
-5.94
-6.93
-7.85
-8.79
-9.78
-10.81
-11.87
-13.05
-14.47
-15.90
-17.02
-17.48
-17.15
-16.17
-14.94
-13.96
-13.66
-14.08
-14.35
-13.47
-10.77
-6.26
-0.40
6.26
13.35
20.63
27.98
36.02
45.06
54.80
64.34
72.64
78.95
82.99
84.79
84.78
84.56
85.56
88.51
93.24
99.22
106.08
113.73
121.88
122.65
110.08
82.77
45.33
5.10
-31.68
-61.09
-81.00
-92.68
-97.30
-95.11
-86.89
-74.29
-59.76
-45.31
-33.03
-24.15
-19.06
-17.26
-17.21
-17.51
-17.41
-16.93
-16.48
-16.45
-16.90
-17.78
-18.93
-19.87
-20.48
-21.12
-22.58
-25.64
-30.73
-37.57
-45.45
-53.33
-60.19
-65.51
-69.45
-72.65
-75.85
-79.44
-83.15
-86.21
-87.56
-86.30
-82.05
-75.04
-65.85
-55.11
-43.28
-30.64
-17.54
-4.64
7.13
16.79
23.75
27.97
29.93
30.35
29.87
28.88
27.59
26.14
24.76
23.73
23.22
23.24
23.64
24.17
24.56
24.69
24.46
23.87
22.94
21.75
20.47
19.30
18.46
18.10
18.20
18.60
19.07
19.40
19.48
19.34
19.08
18.80
18.53
18.21
17.73
17.02
16.06
14.91
13.73
12.65
11.76
11.02
10.32
9.49
8.47
7.27
6.08
5.05
4.28
3.69
3.10
2.32
1.34
0.32
-0.48
-0.81
-0.61
-0.03
0.71
1.36
1.83
2.15
2.45
2.79
3.22
3.69
4.13
4.52
4.83
5.07
5.23
5.32
5.38
5.48
5.71
6.11
6.67
7.29
7.85
8.28
8.64
9.02
9.54
10.26
11.13
12.05
12.90
13.65
14.32
15.05
15.94
17.12
18.62
20.45
22.53
24.70
26.74
28.36
29.30
29.42
28.72
27.28
25.14
22.30
18.65
14.22
9.27
4.39
0.48
-1.58
-1.15
1.93
7.37
14.39
21.95
28.84
33.90
36.27
35.56
31.99
26.30
19.50
12.63
6.54
1.89
-0.79
-1.13
0.96
5.12
10.43
15.59
19.37
21.04
20.56
18.45
15.35
11.62
7.24
1.93
-4.56
-12.31
-21.17
-30.87
-40.97
-50.84
-59.59
-66.23
-70.10
-71.15
-70.17
-68.45
-67.32
-67.60
-69.39
-72.08
-74.62
-75.76
-74.33
-69.48
-61.02
-49.63
-36.76
-24.22
-13.60
-5.69
-0.40
2.93
5.01
6.22
6.59
6.03
4.59
2.61
0.51
-1.39
-3.03
-4.54
-6.13
-7.90
-9.85
-11.84
-13.71
-15.33
-16.58
-17.44
-17.95
-18.24
-18.46
-18.77
-19.21
-19.74
-20.23
-20.60
-20.88
-21.13
-21.43
-21.74
-21.88
-21.61
-20.80
-19.45
-17.78
-16.10
-14.67
-13.63
-12.94
-12.42
-11.87
-11.14
-10.10
-8.71
-6.95
-4.84
-2.45
0.08
2.56
4.82
6.77
8.39
9.70
10.77
11.68
12.45
13.11
13.62
13.99
14.23
14.35
14.41
14.43
14.44
14.41
14.31
14.13
13.89
13.69
13.60
13.64
13.77
13.88
13.82
13.54
13.05
12.42
11.76
11.16
10.64
10.20
9.85
9.59
9.45
9.46
9.63
9.85
10.00
9.90
9.48
8.76
7.90
7.08
6.42
5.96
5.62
5.31
4.96
4.54
4.05
3.49
2.83
2.02
1.05
-0.06
-1.21
-2.28
-3.17
-3.81
-4.24
-4.53
-4.78
-5.13
-5.67
-6.47
-7.55
-8.88
-10.33
-11.73
-12.79
-13.28
-13.02
-12.04
-10.52
-8.71
-6.87
-5.14
-3.55
-2.07
-0.64
0.75
2.08
3.31
4.45
5.50
6.51
7.46
8.33
9.09
9.72
10.24
10.72
11.22
11.77
12.35
12.92
13.39
13.72
13.87
13.86
13.66
13.29
12.76
12.10
11.41
10.81
10.40
10.20
10.12
10.02
9.73
9.20
8.52
7.87
7.40
7.18
7.11
7.01
6.71
6.14
5.38
4.57
3.88
3.42
3.27
3.43
3.85
4.39
4.83
4.96
4.61
3.77
2.60
1.41
0.50
0.08
0.18
0.63
1.14
1.44
1.39
1.04
0.64
0.53
1.14
2.74
5.50
9.34
13.94
18.79
23.26
26.77
28.95
29.71
29.25
27.91
26.02
23.77
21.21
18.33
15.18
11.94
8.90
6.35
4.48
3.27
2.47
1.70
0.60
-1.06
-3.23
-5.64
-7.96
-9.96
-11.66
-13.32
-15.26
-17.69
-20.61
-23.81
-27.05
-30.18
-33.22
-36.24
-39.17
-41.77
-43.56
-44.04
-42.86
-39.91
-35.38
-29.65
-23.15
-16.31
-9.54
-3.18
2.48
7.28
11.19
14.29
16.67
18.37
19.34
19.47
18.72
17.09
14.68
11.52
7.61
2.84
-2.82
-9.21
-15.84
-22.03
-27.03
-30.32
-31.77
-31.61
-30.28
-28.25
-25.85
-23.23
-20.44
-17.54
-14.59
-11.74
-9.18
-7.14
-5.80
-5.30
-5.58
-6.42
-7.42
-8.18
-8.44
-8.20
-7.67
-7.10
-6.62
-6.19
-5.61
-4.71
-3.46
-2.01
-0.58
0.63
1.55
2.26
2.86
3.44
4.00
4.42
4.57
4.33
3.72
2.86
1.95
1.19
0.70
0.47
0.40
0.33
0.14
-0.17
-0.54
-0.88
-1.05
-1.02
-0.75
-0.28
0.31
0.92
1.42
1.74
1.86
1.76
1.47
0.95
0.15
-0.95
-2.30
-3.72
-5.03
-6.06
-6.78
-7.32
-7.88
-8.68
-9.84
-11.41
-13.38
-15.70
-18.28
-20.97
-23.55
-25.72
-27.21
-27.82
-27.50
-26.29
-24.34
-21.78
-18.75
-15.35
-11.74
-8.05
-4.45
-1.10
1.87
4.37
6.35
7.79
8.74
9.34
9.81
10.47
11.56
13.24
15.40
17.76
19.87
21.33
21.85
21.37
20.00
17.94
15.47
12.90
10.61
8.97
8.26
8.62
9.88
11.70
13.59
15.12
15.98
16.07
15.42
14.13
12.37
10.32
8.19
6.23
4.72
3.89
3.87
4.63
5.93
7.41
8.64
9.28
9.11
8.07
6.22
3.68
0.66
-2.54
-5.57
-8.04
-9.70
-10.50
-10.60
-10.29
-9.87
-9.49
-9.21
-9.03
-8.95
-8.98
-9.13
-9.26
-9.15
-8.54
-7.28
-5.35
-2.86
-0.03
2.95
