1528507638.00
64.000000
-0.00
-0.00
-0.00
-0.00
-0.00
-0.00
-0.00
-0.00
-0.00
-0.00
0.00
0.01
0.01
-0.00
-0.03
-0.05
-0.05
0.00
0.13
0.36
0.66
1.01
1.37
1.72
2.06
2.40
2.79
3.24
3.80
4.42
5.06
5.66
6.20
6.68
7.15
7.68
8.31
9.14
10.09
11.04
11.88
12.56
13.14
13.76
14.65
15.96
17.91
20.32
22.90
25.38
27.58
29.57
31.68
34.32
37.81
42.54
48.15
54.10
59.83
64.97
69.58
74.14
79.34
85.71
93.76
103.00
112.62
121.73
129.77
136.75
143.30
150.75
157.77
166.64
177.95
191.79
206.97
220.57
228.25
225.36
208.53
176.87
132.76
80.05
23.07
-34.94
-92.44
-149.16
-205.23
-260.37
-313.74
-363.87
-409.83
-450.91
-486.50
-515.74
-537.23
-549.22
-549.96
-538.37
-514.21
-478.67
-433.88
-382.45
-327.02
-269.84
-212.63
-156.66
-102.95
-52.37
-5.90
35.58
71.43
101.35
125.50
144.38
158.69
169.15
176.37
180.75
182.57
182.07
179.51
175.23
169.65
163.18
156.15
148.81
141.30
133.69
126.02
118.33
110.69
103.16
95.80
88.68
81.83
75.25
68.95
62.95
57.25
51.86
46.78
42.03
37.59
33.45
29.61
26.07
22.81
19.83
17.11
14.67
12.48
10.54
8.83
7.35
6.07
4.97
4.05
3.27
2.62
2.09
1.65
1.30
1.01
0.79
0.61
0.48
0.37
0.29
0.22
0.18
0.14
0.11
0.09
0.08
0.07
0.06
0.06
0.07
0.08
0.09
0.11
0.13
0.16
0.19
0.23
0.27
0.32
0.36
0.41
0.46
0.50
0.55
0.61
0.66
0.71
0.77
0.83
0.90
0.98
1.06
1.16
1.26
1.38
1.51
1.66
1.83
2.01
2.21
2.44
2.70
2.97
3.28
3.62
3.99
4.39
4.83
5.30
5.81
6.36
6.95
7.58
8.26
8.97
9.73
10.54
11.38
12.27
13.20
14.19
15.23
16.33
17.49
18.69
19.91
21.11
22.23
23.19
23.86
24.14
23.90
23.02
21.42
19.06
15.97
12.17
7.80
3.00
-2.05
-7.13
-12.00
-16.44
-20.19
-23.10
-25.05
-26.01
-26.11
-25.48
-24.32
-22.80
-21.07
-19.22
-17.30
-15.36
-13.43
-11.61
-9.98
-8.57
-7.36
-6.25
-5.03
-3.56
-1.71
0.53
2.85
4.94
6.53
7.51
8.00
8.31
8.79
9.73
11.20
12.71
13.67
13.64
12.46
10.44
8.16
6.33
5.44
5.66
6.12
5.90
4.27
1.00
-3.52
-8.44
-12.83
-16.01
-17.75
-19.03
-21.08
-25.22
-32.83
-45.07
-62.58
-85.14
-111.74
-135.45
-150.89
-154.13
-143.99
-122.59
-94.41
-64.62
-37.29
-14.55
3.33
16.08
23.49
25.13
20.83
11.43
-0.90
-13.09
-22.13
-25.78
-23.77
-17.08
-7.62
2.62
12.14
20.24
26.89
32.57
38.20
44.46
52.01
61.16
71.67
82.64
92.66
99.62
101.58
97.33
86.72
70.68
51.21
31.40
15.17
6.51
7.68
18.70
37.50
60.55
83.84
103.69
117.42
123.44
120.78
108.16
84.93
52.24
13.75
-25.57
-60.97
-89.19
-108.87
-115.97
-108.12
-87.58
-60.74
-33.38
-8.46
13.21
31.65
47.10
59.83
69.53
76.02
79.48
81.16
82.36
83.61
84.76
85.24
84.44
81.36
75.28
65.75
53.33
39.00
23.53
7.38
-9.14
-25.74
-42.40
-55.87
-66.60
-74.57
-79.61
-81.81
-81.53
-79.28
-75.57
-71.04
-66.16
-61.69
-57.56
-53.55
-49.58
-45.66
-41.90
-38.31
-35.00
-31.90
-29.32
-27.05
-24.87
-22.69
-20.60
-18.74
-17.15
-15.89
-14.79
-13.90
-12.97
-11.85
-10.60
-9.48
-8.83
-8.82
-9.49
-10.57
-11.71
-12.48
-12.65
-12.41
-12.29
-12.92
-14.68
-17.58
-21.16
-24.64
-27.40
-29.16
-30.15
-31.17
-33.50
-37.26
-42.58
-49.35
-57.18
-65.28
-72.44
-77.01
-77.59
-73.59
-65.69
-56.00
-47.16
-41.34
-39.41
-40.84
-44.21
-48.22
-52.13
-55.85
-59.68
-63.56
-66.72
-67.56
-64.52
-55.62
-40.22
-19.23
4.98
29.18
50.38
66.75
77.95
84.78
88.54
90.20
90.34
89.33
87.56
85.52
83.57
81.58
78.87
74.58
68.22
60.15
51.58
44.07
38.74
35.74
34.12
32.38
29.50
25.36
20.88
17.72
17.24
20.09
26.05
34.33
43.19
49.53
48.86
36.48
9.79
-29.48
-74.74
-116.45
-146.11
-159.91
-160.22
-153.80
-148.13
-147.82
-153.29
-161.97
-171.01
-179.35
-187.99
-198.67
-212.04
-226.86
-240.66
-251.08
-256.87
-258.37
-257.14
-254.59
-251.95
-249.05
-244.67
-237.19
-225.37
-208.94
-188.69
-166.04
-142.44
-118.81
-95.27
-71.41
-46.73
-21.15
4.80
29.92
52.75
71.96
86.71
96.89
102.99
105.82
106.20
104.77
101.90
97.75
92.37
85.83
78.25
69.80
60.58
50.66
40.03
28.71
16.72
4.22
-8.55
-21.20
-33.31
-44.43
-54.17
-62.19
-68.23
-72.10
-73.65
-72.77
-69.39
-63.44
-54.93
-43.91
-30.50
-14.92
2.58
21.65
41.87
62.79
83.88
104.59
124.32
142.39
158.11
170.74
179.58
184.09
183.97
179.34
170.74
159.24
146.28
133.49
122.49
114.64
110.85
111.49
116.42
125.05
136.51
149.74
163.53
176.53
187.26
194.03
195.21
189.32
175.45
153.54
124.43
89.85
52.02
13.27
-24.35
-59.28
-90.44
-117.02
-138.24
-153.22
-161.14
-161.53
-154.48
-140.86
-122.11
-99.73
-74.95
-48.36
-20.00
10.35
42.88
77.75
115.36
156.35
201.02
248.37
295.20
336.21
365.31
377.80
372.20
351.02
319.65
284.45
250.78
222.27
201.16
189.04
186.79
193.69
206.23
217.91
220.68
207.90
177.06
131.19
77.67
25.54
-18.04
-49.93
-71.13
-85.05
-95.07
-102.56
-106.54
-104.68
-95.07
-77.56
-53.91
-26.94
0.85
28.21
54.88
80.57
103.87
122.11
132.29
132.51
122.93
105.43
82.45
55.88
27.16
-1.72
-27.40
-45.43
-52.51
-49.17
-41.28
-38.79
-51.70
-85.09
-135.77
-192.77
-241.38
-268.95
-269.40
-244.59
-202.27
-152.19
-102.69
-59.28
-25.31
-3.25
4.40
-4.24
-28.96
-66.29
-109.60
-150.72
-182.25
-199.50
-201.20
-189.09
-166.53
-137.19
-103.96
-68.57
-31.73
6.39
45.51
84.77
122.57
156.92
185.93
208.34
223.87
233.15
237.51
238.77
238.81
239.30
241.50
245.94
252.15
258.66
263.23
263.46
257.53
244.86
226.29
203.94
180.51
158.50
139.61
124.59
113.42
105.66
100.74
98.01
96.72
95.95
94.75
92.41
88.71
83.96
78.90
74.36
71.04
69.33
69.29
70.97
74.46
79.94
87.69
97.95
110.67
125.44
141.42
157.45
172.22
184.49
193.21
197.65
197.40
192.36
182.72
168.90
151.54
131.46
109.53
86.56
63.22
39.97
17.12
-5.08
-26.29
-46.09
-63.95
-79.47
-92.50
-103.27
-112.43
-120.77
-128.84
-136.70
-143.91
-149.71
-153.48
-155.20
-155.62
-156.07
-158.01
-162.36
-169.17
-177.57
-186.41
-194.86
-203.00
-211.86
-222.93
-237.53
-256.40
-279.78
-307.71
-340.03
-375.74
-412.22
-444.87
-467.77
-475.51
-465.22
-437.89
-397.96
-351.62
-304.81
-262.20
-227.60
-205.15
-199.76
-215.95
-255.13
-313.04
-379.12
-438.94
-478.92
-491.07
-475.42
-439.19
-392.78
-345.26
-301.36
-261.17
-222.27
-182.61
-142.29
-103.52
-69.02
-40.12
-15.77
7.05
31.75
60.74
94.74
133.00
173.96
215.57
254.99
288.13
309.92
315.65
302.94
273.41
232.61
188.15
146.77
112.09
83.99
59.86
36.76
12.95
-11.78
-36.95
-62.39
-88.57
-116.03
-144.40
-171.87
-195.40
-211.76
-218.76
-216.23
-205.91
-190.76
-173.87
-157.19
-141.15
-124.72
-106.45
-85.61
-63.26
-42.27
-26.59
-19.58
-22.43
-33.37
-47.92
-60.38
-65.68
-60.89
-45.89
-22.80
5.07
34.45
62.92
89.43
114.26
138.67
164.37
192.53
222.92
253.52
280.65
299.67
306.43
298.55
276.15
242.11
201.07
158.57
120.06
90.21
71.88
64.95
65.35
65.66
57.44
34.87
-2.17
-47.55
-91.40
-124.51
-142.37
-146.61
-143.07
-138.18
-135.82
-136.38
-138.16
-139.69
-140.89
-142.66
-145.46
-148.12
-148.00
-142.22
-129.15
-109.26
-85.06
-59.80
-36.00
-14.38
6.33
28.74
55.66
88.79
127.78
170.02
211.31
247.03
273.57
289.39
295.30
293.85
288.26
281.30
274.57
268.53
262.87
257.13
251.33
246.20
243.03
243.06
246.60
252.14
255.99
252.80
237.07
205.40
158.23
100.43
40.08
-13.76
-53.58
-75.06
-77.42
-62.67
-34.68
1.45
39.68
73.17
95.03
99.86
85.55
54.51
13.52
-28.01
-60.78
-78.40
-79.03
-65.58
-44.36
-22.73
-7.00
-0.81
-4.70
-16.57
-32.63
-48.21
-58.40
-58.68
-45.76
-18.79
19.46
62.23
99.64
121.31
119.72
93.14
46.81
-8.01
-57.11
-87.46
-91.23
-68.41
-27.19
18.29
52.39
63.17
46.54
7.54
-41.68
-86.29
-113.88
-118.05
-99.58
-65.23
-24.98
11.02
34.91
42.61
34.21
13.29
-14.44
-43.11
-68.29
-87.79
-101.50
-110.43
-115.53
-116.84
-113.57
-104.60
-89.35
-68.44
-43.84
-18.16
6.46
29.36
51.36
73.61
95.66
114.02
122.56
114.83
87.54
43.08
-10.29
-60.98
-98.23
-115.67
-112.81
-93.72
-64.45
-30.34
5.19
40.00
71.86
97.45
112.48
113.01
97.23
66.58
25.74
-18.44
-58.56
-88.10
-102.48
-99.62
-80.44
-48.90
-11.67
23.30
48.83
60.77
59.43
49.30
37.31
30.13
31.96
43.49
62.15
83.22
101.04
110.20
106.72
89.13
59.58
23.95
-9.14
-30.46
-32.90
-13.67
24.80
75.49
128.49
173.40
201.53
207.78
191.97
159.24
119.05
82.41
58.39
50.78
56.77
68.31
75.52
70.51
50.10
16.53
-23.82
-62.94
-93.81
-112.32
-118.40
-115.63
-110.09
-108.54
-116.46
-136.83
-169.29
-210.31
-253.79
-292.26
-318.17
-325.38
-310.67
-274.68
-222.17
-161.10
-100.81
-49.66
-13.18
6.55
10.78
3.06
-12.06
-29.98
-46.73
-59.33
-66.01
-66.46
-61.76
-54.19
-46.43
-40.38
-36.47
-33.52
-29.68
-23.46
-14.40
-2.63
12.24
32.06
59.86
98.11
146.33
199.37
247.81
280.63
289.03
269.35
223.98
160.20
87.95
17.79
-40.83
-81.18
-100.95
-103.48
-97.29
-93.16
-99.54
-118.37
-144.08
-166.44
-175.73
-167.52
-143.86
-110.87
-74.55
-37.77
-0.26
39.04
79.33
117.31
148.88
171.83
187.56
200.41
214.88
232.37
249.65
259.63
254.24
228.03
180.70
117.96
50.06
-11.06
-55.36
-77.64
-78.95
-65.90
-48.01
-33.99
-28.75
-32.27
-40.77
-49.30
-54.26
-54.46
-50.56
-43.59
-33.78
-20.61
-3.75
15.78
35.20
50.58
58.02
55.00
41.23
18.75
-8.62
-36.36
-60.33
-77.78
-87.82
-91.17
-89.56
-84.89
-78.70
-72.21
-66.61
-63.32
-63.82
-68.99
-78.28
-89.39
-98.56
-101.47
-94.41
-75.22
-44.05
-3.81
39.80
78.94
105.18
111.89
96.74
63.03
19.03
-24.53
-57.71
-74.22
-72.57
-55.82
-30.12
-2.86
18.93
30.18
28.72
15.82
-4.36
-26.04
-43.62
-53.24
-53.53
-45.51
-31.87
-16.11
-1.89
7.65
10.50
6.30
-3.43
-15.58
-26.27
-31.92
-30.11
-20.29
-3.90
15.85
34.60
47.98
52.87
48.58
37.30
23.57
12.82
9.36
14.81
27.67
43.91
58.57
67.23
67.13
57.60
39.85
16.48
-9.03
-32.88
-51.43
-61.79
-62.27
-52.66
-34.33
-10.11
15.88
38.80
53.76
56.95
46.87
25.07
-3.88
-33.71
-58.49
-74.57
-81.50
-81.54
-78.14
-73.91
-69.24
-61.98
-48.17
-23.71
13.62
62.46
117.03
167.64
202.88
213.01
193.58
147.91
86.90
26.01
-19.88
-41.71
-39.26
-20.89
0.03
10.48
2.49
-24.19
-62.50
-100.97
-127.87
-135.04
-120.34
-88.17
-47.85
-10.45
14.78
23.39
16.99
2.02
-12.93
-20.65
-18.01
-6.85
7.12
16.77
16.22
2.84
-22.22
-54.62
-88.16
-116.33
-133.54
-136.04
-122.41
-93.62
-52.90
-5.12
44.11
89.42
126.29
151.23
161.60
155.82
134.09
99.47
58.45
20.04
-7.04
-17.67
-12.64
1.47
15.13
20.14
13.42
-1.71
-17.05
-23.39
-14.70
8.98
41.35
71.92
89.57
86.01
58.32
9.72
-51.29
-112.98
-163.02
-191.09
-191.14
-162.83
-111.94
-49.44
10.90
55.98
76.79
70.87
42.80
2.62
-37.29
-65.90
-76.49
-68.08
-44.72
-13.14
20.28
51.57
79.67
105.00
127.61
145.64
155.31
152.15
132.86
96.79
46.59
-12.04
-71.14
-121.45
-153.59
-159.90
-136.52
-85.62
-16.18
57.32
118.34
152.74
152.58
117.89
56.35
-18.91
-92.55
-150.67
-183.95
-189.87
-172.87
-142.32
-108.93
-80.30
-58.35
-39.65
-18.81
6.95
34.76
56.55
62.81
47.55
11.74
-36.61
-85.51
-123.44
-142.96
-142.48
-125.57
-98.73
-68.70
-39.98
-13.63
12.74
43.30
81.19
125.69
171.02
207.81
226.84
223.30
199.25
162.92
125.29
95.70
78.72
73.63
76.03
80.31
81.48
75.91
61.22
36.29
1.57
-40.37
-84.76
-125.47
-156.45
-172.88
-171.74
-151.83
-113.82
-60.74
1.21
62.40
110.93
135.60
129.87
94.90
40.16
-19.11
-66.78
-90.90
-87.06
-58.92
-16.11
29.22
65.70
85.02
83.07
60.24
21.26
-25.44
-69.00
-98.39
-105.21
-86.55
-46.62
3.77
50.01
78.10
79.18
52.35
4.89
-50.23
-98.37
-127.21
-129.62
-104.80
-57.83
1.62
61.37
109.16
135.37
135.56
111.61
71.32
25.65
-14.89
-43.49
-58.47
-62.27
-59.13
-52.65
-44.62
-35.34
-24.78
-13.36
-1.90
9.16
20.42
33.18
48.25
64.50
78.46
85.17
80.23
61.73
31.16
-6.88
-45.89
-78.93
-99.55
-102.78
-86.21
-51.34
-4.43
43.76
80.21
93.48
77.93
36.46
-19.65
-74.05
-110.70
-119.28
-98.60
-56.54
-6.76
36.57
63.58
71.30
63.15
46.04
26.87
10.13
-2.55
-11.27
-16.60
-18.93
-18.90
-18.03
-18.78
-23.61
-33.18
-44.87
-52.86
-50.09
-31.34
3.72
49.35
95.00
128.69
141.12
128.77
94.87
48.19
0.34
-37.54
-57.58
-57.00
-38.82
-10.92
16.09
32.22
31.33
13.28
-16.08
-47.13
-69.88
-77.32
-67.30
-42.84
-10.87
19.80
40.66
45.49
31.79
1.40
-39.93
-83.78
-121.11
-144.31
-149.04
-135.42
-108.23
-75.90
-48.46
-34.78
-39.90
-63.49
-99.96
-140.39
-175.27
-197.25
-202.74
-192.07
-168.49
-136.74
-101.54
-66.58
-33.95
-4.14
23.70
51.29
80.63
113.42
150.30
190.32
230.50
266.19
291.94
303.18
297.77
276.97
245.08
207.93
171.03
138.10
110.60
88.28
70.09
55.06
42.56
32.23
23.68
16.35
9.67
3.32
-2.42
-6.49
-7.29
-3.18
6.91
22.87
43.20
65.05
84.84
99.04
104.95
101.45
89.22
70.49
48.33
25.73
4.77
-13.64
-29.58
-43.41
-55.23
-64.67
-71.17
-74.47
-74.95
-73.50
-71.05
-68.05
-64.30
-59.23
-52.49
-44.30
-35.53
-27.41
-21.04
-16.87
-14.63
-13.52
-12.64
-11.45
-9.98
-8.75
-8.42
-9.40
-11.63
-14.66
-17.80
-20.44
-22.22
-23.05
-23.06
-22.51
-21.62
-20.56
-19.37
-17.94
-16.13
-13.74
-10.75
-7.31
-3.73
-0.38
2.52
5.00
7.40
10.12
13.50
17.55
21.95
26.19
29.86
32.81
35.23
37.55
40.19
43.45
47.38
51.91
56.85
62.04
67.29
72.48
77.60
82.82
88.48
94.99
102.65
111.56
121.42
131.39
139.98
145.07
144.27
135.58
118.13
92.59
61.18
26.88
-7.63
-40.94
-72.93
-104.23
-135.09
-164.73
-191.36
-212.92
-227.96
-235.97
-237.00
-231.08
-217.93
-197.47
-170.70
-140.47
-111.16
-87.48
-72.71
-67.59
-70.22
-77.23
-85.20
-91.76
-95.69
-96.35
-93.16
-85.31
-72.04
-53.33
-30.19
-4.64
20.80
43.66
61.93
74.03
78.79
75.57
64.75
48.21
29.31
12.15
0.16
-5.32
-5.50
-3.61
-3.31
-7.11
-15.43
-26.84
-39.05
-50.19
-59.47
-67.03
-73.11
-77.34
-78.56
-75.45
-67.54
-55.97
-43.51
-33.42
-28.03
-27.44
-29.47
-30.61
-27.85
-20.07
-8.66
3.24
12.19
15.79
13.54
6.77
-1.89
-9.16
-11.81
-7.11
6.58
29.11
58.10
88.89
115.51
132.49
136.60
127.95
109.53
85.59
59.66
33.50
7.29
-18.98
-44.22
-65.88
-80.78
-86.64
-83.11
-71.89
-55.54
-36.15
-14.45
10.10
38.39
70.56
105.25
139.42
168.91
189.37
197.59
192.63
176.55
153.81
129.71
108.08
89.70
72.27
52.08
26.61
-3.51
-34.33
-60.36
-77.17
-83.40
-81.03
-73.97
-66.01
-59.32
-54.28
-50.45
-47.82
-47.48
-51.22
-60.55
-75.50
-94.28
-113.64
-130.12
-141.30
-146.58
-147.11
-144.91
-141.94
-139.25
-136.92
-134.26
-130.30
-124.07
-114.96
-102.94
-88.76
-73.85
-59.96
-48.33
-39.25
-31.86
-24.82
-17.10
-8.70
-0.56
6.12
10.81
14.03
17.03
20.96
25.99
31.14
34.74
35.28
32.19
26.06
18.22
10.07
2.40
-4.79
-11.92
-19.05
-25.32
-28.76
-26.71
-16.72
2.57
30.88
66.13
104.80
142.57
175.11
198.90
211.97
214.23
207.41
194.46
178.63
162.57
147.83
134.86
123.49
113.37
104.32
96.27
89.09
82.53
76.36
70.52
65.32
61.27
58.79
57.87
57.97
58.16
57.54
55.56
52.23
48.01
43.61
39.65
36.64
34.89
34.53
35.59
37.90
41.19
45.13
49.48
54.23
59.60
65.78
72.74
79.94
86.35
90.75
92.19
90.43
86.14
80.78
76.11
73.73
74.63
78.93
85.82
93.73
100.47
103.70
101.52
92.97
78.40
59.29
37.64
15.22
-6.97
-28.75
-50.26
-71.35
-91.44
-109.51
-124.79
-137.37
-148.40
-160.09
-175.27
-196.90
-227.13
-266.02
-310.41
-353.73
-387.37
-403.36
-397.48
-371.01
-330.35
-284.39
-241.13
-205.17
-177.05
-154.50
-134.43
-114.52
-93.81
-72.47
-51.47
-32.31
-16.81
-6.63
-2.50
-3.60
-7.77
-12.13
-14.01
-11.74
-4.78
6.46
20.93
37.06
52.74
65.36
72.22
71.28
61.82
44.85
23.00
0.00
-19.99
-32.96
-35.74
-26.68
-6.33
22.25
53.98
82.97
104.24
115.00
115.26
107.11
93.62
77.62
60.97
44.53
28.52
12.90
-2.14
-15.85
-26.72
-32.49
-30.82
-20.39
-2.11
20.31
41.08
54.29
56.15
46.64
29.45
10.64
-3.57
-8.78
-3.61
10.00
27.34
42.20
48.59
42.74
24.48
-2.43
-31.42
-55.05
-67.26
-64.84
-47.84
-19.32
15.45
49.77
76.57
89.76
85.89
65.51
33.30
-3.00
-34.82
-55.28
-60.90
-52.27
-33.33
-9.89
12.12
28.28
36.65
37.87
34.52
29.81
26.32
25.00
25.04
24.20
19.79
9.71
-6.71
-28.24
-51.86
-73.58
-89.49
-96.96
-95.34
-85.87
-70.87
-52.57
-32.23
-9.99
14.41
40.55
66.58
89.09
103.90
107.44
97.93
76.15
45.33
10.43
-22.94
-49.61
-65.77
-69.61
-61.67
-44.78
-23.35
-2.31
14.26
24.15
27.47
26.25
23.50
22.03
23.38
27.16
31.02
31.46
25.25
10.95
-9.91
-32.86
-51.75
-61.03
-57.87
-43.41
-22.28
-0.82
15.37
23.38
23.81
20.01
16.35
16.21
20.61
27.83
34.18
35.69
29.82
16.76
-0.34
-16.36
-26.02
-26.08
-16.78
-2.07
11.78
18.55
14.46
-0.42
-22.30
-45.18
-62.89
-70.85
-66.86
-51.20
-26.16
4.45
35.82
62.75
80.58
86.14
78.46
58.99
31.16
-0.37
-30.63
-55.13
-70.36
-74.17
-65.88
-46.40
-18.26
14.53
46.89
73.35
89.10
91.06
78.83
54.95
24.46
-6.33
-31.38
-46.34
-49.42
-41.43
-25.17
-4.42
17.06
36.17
50.73
59.36
61.29
56.37
45.20
29.22
10.54
-8.43
-25.68
-39.90
-50.52
-57.40
-60.37
-59.05
-53.01
-42.14
-26.96
-8.68
11.02
30.20
46.87
59.26
66.03
66.75
62.15
54.08
45.00
37.30
32.67
31.83
34.62
40.34
48.09
56.97
66.24
75.27
83.52
90.24
94.30
94.00
87.24
72.23
48.32
16.82
-18.91
-54.13
-83.97
-104.85
-115.32
-116.27
-110.39
-101.13
-91.67
-84.11
-79.30
-77.09
-76.80
-77.59
-78.48
-78.12
-74.66
-65.99
-50.30
-26.85
3.54
38.62
75.15
109.63
138.74
159.68
170.38
169.98
159.22
140.62
117.88
94.84
74.18
56.89
42.39
29.39
16.75
3.83
-9.67
-24.14
-40.16
-58.03
-76.85
-93.97
-105.09
-105.34
-90.94
-60.66
-16.43
37.07
93.50
146.23
189.35
218.29
230.28
224.62
203.03
169.85
131.43
94.80
65.89
47.94
41.07
42.96
50.36
60.39
71.04
80.64
87.18
87.85
79.53
59.93
28.44
-13.54
-63.09
-116.49
-169.71
-218.57
-258.80
-286.75
-300.40
-300.43
-290.32
-275.12
-259.30
-244.79
-230.35
-212.85
-189.73
-161.12
-130.43
-103.07
-83.92
-75.10
-75.00
-79.28
-82.88
-82.22
-76.51
-67.55
-58.40
-51.63
-47.97
-46.13
-43.48
-37.49
-26.98
-12.61
3.42
18.40
30.22
38.04
42.23
43.82
43.76
42.48
39.94
36.01
30.90
25.31
20.24
16.56
14.57
13.86
13.51
12.51
10.26
6.88
3.19
0.34
-0.59
1.01
5.20
11.55
19.35
27.83
36.17
43.60
49.38
52.99
54.25
53.38
50.93
47.60
43.92
40.24
36.72
33.53
30.93
29.24
28.66
29.05
29.92
30.55
30.25
28.67
25.91
22.46
18.89
15.66
12.89
10.52
8.33
6.22
4.21
2.43
0.99
-0.12
-0.99
-1.84
-2.84
-4.16
-5.92
-8.16
-10.90
-14.11
-17.72
-21.55
-25.27
-28.44
-30.56
-31.17
-30.02
-27.13
-22.83
-17.55
-11.76
-5.76
0.27
6.25
12.01
17.30
21.73
24.96
26.80
27.29
26.76
25.73
24.77
24.28
24.41
25.01
25.76
26.29
26.45
26.27
26.04
26.11
26.75
27.98
29.54
30.89
31.42
30.66
28.47
25.10
21.08
16.97
13.18
9.83
6.89
4.30
2.15
0.55
-0.45
-1.04
-1.68
-2.88
-4.99
-7.93
-11.24
-14.32
-16.68
-18.14
-18.85
-19.13
-19.16
-18.92
-18.16
-16.60
-14.14
-10.92
-7.27
-3.59
-0.13
3.03
5.97
8.78
11.48
14.02
16.36
18.53
20.65
22.84
25.11
27.30
29.11
30.25
30.54
30.04
28.90
27.36
25.61
23.76
21.90
20.12
18.51
17.18
16.15
15.35
14.64
13.83
12.79
11.48
9.96
8.38
6.89
5.57
4.39
3.20
1.85
0.21
-1.70
-3.76
-5.78
-7.62
-9.28
-10.90
-12.71
-14.86
-17.41
-20.21
-22.93
-25.10
-26.18
-25.70
-23.39
-19.31
-13.94
-8.06
-2.56
1.83
4.76
6.29
6.86
7.07
7.42
8.24
9.60
11.41
13.45
15.48
17.19
18.35
18.82
18.64
18.02
17.32
16.87
16.85
17.22
17.73
18.04
17.85
17.00
15.51
13.57
11.41
9.26
7.27
5.46
3.84
2.37
1.08
0.00
-0.87
-1.58
-2.25
-2.99
-3.78
-4.52
-5.01
-5.13
-4.89
-4.48
-4.16
-4.19
-4.65
-5.47
-6.38
-7.07
-7.24
-6.70
-5.48
-3.82
-2.06
-0.58
0.38
0.80
0.85
0.79
0.79
0.92
1.15
1.51
2.16
3.41
5.52
8.54
12.21
16.04
19.39
21.77
22.97
23.01
22.09
20.47
18.35
15.91
13.34
10.80
8.41
6.25
4.30
2.52
0.85
-0.75
-2.30
-3.82
-5.38
-7.09
-9.07
-11.38
-13.90
-16.41
-18.60
-20.23
-21.23
-21.71
-21.93
-22.14
-22.47
-22.89
-23.27
-23.45
-23.30
-22.62
-21.20
-18.76
-15.06
-10.09
-4.14
2.23
8.37
13.70
17.89
20.84
22.61
23.29
23.00
21.83
19.88
17.35
14.53
11.74
9.36
7.68
6.92
7.12
8.18
9.80
11.69
13.53
15.11
16.33
17.11
17.36
16.90
15.55
13.17
9.82
5.75
1.37
-2.89
-6.73
-10.06
-12.94
-15.58
-18.15
-20.82
-23.66
-26.66
-29.73
-32.64
-35.14
-37.02
-38.27
-39.14
-40.12
-41.71
-44.16
-47.26
-50.44
-52.97
-54.29
-54.31
-53.40
-52.18
-51.18
-50.48
-49.59
-47.63
-43.86
-38.15
-31.37
-25.29
-21.87
-22.29
-25.98
-30.21
-30.69
-22.76
-2.83
30.55
76.36
131.17
189.52
244.51
289.07
317.76
328.62
324.16
310.56
295.25
283.83
278.00
275.37
271.35
261.78
244.67
220.40
190.53
156.37
118.41
76.71
31.76
-15.06
-61.77
-106.32
-147.20
-183.65
-215.75
-244.64
-272.74
-303.50
-340.20
-383.98
-432.04
-477.34
-510.32
-522.34
-509.10
-472.04
-417.29
-352.60
-284.54
-217.41
-154.08
-97.81
-52.83
-22.87
-8.47
-5.36
-5.43
-0.26
14.63
37.63
62.10
80.01
85.87
79.13
63.89
46.73
34.10
30.35
37.07
53.03
74.62
96.72
113.78
121.40
117.77
104.29
84.97
65.07
49.26
40.69
40.63
48.80
64.07
85.05
110.57
139.72
171.63
204.72
236.06
261.03
274.00
269.54
244.24
198.26
136.12
66.23
-0.78
-54.91
-89.66
-104.05
-102.65
-93.52
-84.76
-81.15
-82.34
-83.39
-77.42
-59.35
-28.85
8.69
43.76
66.14
68.94
51.39
19.39
-16.43
-44.27
-55.32
-46.65
-22.01
9.83
38.48
55.78
58.72
49.76
34.87
19.83
7.09
-5.14
-20.93
-42.77
-68.19
-89.43
-96.84
-84.29
-53.39
-14.00
19.76
35.87
29.69
5.77
-24.51
-47.93
-54.45
-40.46
-9.33
30.29
67.36
91.55
95.94
78.64
42.98
-3.62
-51.83
-92.66
-119.13
-127.20
-116.17
-88.93
-51.78
-13.64
15.98
29.74
25.17
5.83
-19.85
-41.76
-51.82
-46.70
-28.37
-2.68
23.20
43.15
53.71
54.68
48.96
41.71
38.85
45.11
62.16
87.59
115.20
136.56
143.63
131.32
99.26
52.13
-1.35
-50.24
-83.90
-94.69
-80.20
-44.64
1.52
44.22
69.91
70.13
44.27
-0.47
-51.76
-96.11
-122.49
-124.76
-102.58
-61.13
-10.32
36.88
67.06
70.05
42.85
-8.27
-68.74
-120.30
-147.51
-143.46
-111.95
-65.29
-18.97
14.19
27.78
22.40
3.64
-21.06
-44.64
-61.31
-66.26
-55.40
-26.05
21.40
81.98
145.89
200.14
231.75
231.84
198.73
139.02
66.31
-2.51
-51.79
-71.47
-59.73
-23.13
25.44
70.57
98.53
100.84
76.30
30.78
-24.64
-76.84
-114.02
-128.76
-119.90
-93.12
-59.58
-32.98
-25.21
-42.10
-80.94
-130.94
-176.87
-204.29
-204.27
-175.71
-124.68
-61.45
3.02
59.74
102.77
129.10
138.08
130.86
110.32
81.14
49.78
23.99
11.50
18.23
46.21
91.82
145.83
195.18
226.56
230.30
203.30
150.04
81.70
13.16
-40.75
-69.31
-69.11
-45.14
-9.34
23.20
39.08
30.87
-0.78
-47.82
-97.93
-139.03
-163.22
-168.92
-160.38
-144.97
-129.23
-115.59
-101.41
-80.86
-49.11
-6.39
40.38
79.40
98.69
91.26
58.10
8.01
-45.61
-89.03
-112.07
-110.53
-86.78
-48.68
-7.37
26.07
43.93
44.60
33.18
19.52
14.12
23.51
47.13
77.27
102.13
110.70
97.10
62.62
14.80
-35.32
-76.40
-99.55
-99.91
-77.66
-38.38
7.44
46.56
66.89
62.03
34.24
-5.99
-43.97
-66.90
-69.10
-53.83
-30.93
-11.86
-4.44
-9.99
-23.71
-37.82
-45.63
-44.61
-37.00
-28.18
-23.70
-26.60
-36.40
-49.74
-62.41
-71.31
-75.25
-74.17
-67.97
-56.08
-38.14
-15.64
7.29
24.39
29.76
20.89
0.59
-23.44
-41.23
-44.20
-28.21
5.11
49.17
94.43
131.10
151.45
151.52
131.70
96.29
51.90
5.48
-37.41
-73.20
-99.78
-115.48
-118.14
-105.26
-75.05
-28.16
31.23
95.39
154.59
199.55
223.80
225.38
206.65
172.88
130.03
82.79
33.51
-17.52
-70.79
-125.85
-179.92
-227.70
-262.56
-278.84
-274.49
-252.54
-220.33
-186.81
-158.64
-137.30
-118.95
-96.93
-65.99
-25.49
20.07
63.55
98.96
124.40
142.27
157.01
171.84
186.61
197.68
200.25
191.20
171.04
143.73
114.62
87.70
63.83
40.96
16.14
-11.99
-41.84
-69.32
-89.74
-100.02
-100.03
-92.19
-79.83
-65.37
-49.30
-30.62
-8.28
17.30
43.57
66.41
81.61
86.50
80.87
67.00
48.72
30.13
14.55
4.11
-0.09
2.37
11.23
25.28
42.11
58.20
69.46
71.96
62.76
40.49
5.71
-38.82
-88.18
-135.57
-173.10
-193.08
-189.76
-161.16
-110.32
-45.32
22.14
79.35
115.59
124.52
105.51
63.59
8.16
-49.13
-96.85
-126.38
-133.88
-121.13
-94.74
-63.65
-35.69
-14.81
-0.22
12.19
26.77
45.29
65.90
84.19
95.55
97.38
89.92
75.67
57.99
39.73
22.65
7.57
-5.12
-15.05
-21.62
-24.14
-22.05
-15.26
-4.47
8.64
21.57
31.52
36.07
33.82
24.58
9.36
-9.70
-29.48
-46.03
-55.20
-53.78
-40.89
-18.85
6.98
29.78
43.47
44.71
33.64
13.32
-11.56
-36.11
-56.05
-67.93
-69.14
-57.99
-34.12
1.12
44.18
89.41
129.65
157.35
166.06
151.91
114.83
59.13
-6.71
-71.47
-123.37
-152.76
-154.66
-130.20
-86.57
-35.05
12.32
46.33
63.13
64.76
57.31
47.70
40.60
36.76
33.41
26.33
12.29
-9.20
-35.48
-61.64
-82.25
-92.84
-90.93
-76.29
-50.80
-17.86
18.01
51.88
79.05
95.97
101.14
95.31
81.12
62.04
40.98
19.59
-1.68
-22.60
-42.04
-57.34
-64.89
-61.49
-45.91
-19.77
12.54
45.00
71.51
87.35
90.51
82.42
67.98
54.46
49.07
56.13
74.94
99.40
119.99
127.18
114.85
82.51
35.23
-18.28
-68.30
-106.56
-127.80
-130.22
-115.24
-86.82
-50.52
-12.41
21.95
48.49
65.07
71.57
69.56
61.74
50.99
39.62
28.77
18.44
7.97
-3.22
-15.20
-27.33
-38.68
-48.37
-55.77
-60.42
-61.91
-59.94
-54.64
-46.91
-38.56
-31.81
-28.58
-29.65
-34.30
-40.53
-45.85
-48.26
-46.92
-42.50
-36.90
-32.63
-32.20
-37.53
-49.43
-67.31
-88.96
-110.79
-128.44
-137.80
-136.18
-123.21
-101.04
-73.77
-46.13
-22.19
-4.35
6.93
12.77
15.06
15.75
16.32
17.60
19.67
21.99
23.57
23.14
19.55
12.15
1.15
-12.07
-25.33
-36.15
-42.55
-43.81
-40.65
-34.87
-28.58
-23.38
-19.97
-18.18
-17.46
-17.30
-17.49
-18.02
-18.95
-20.23
-21.66
-23.05
-24.34
-25.60
-27.06
-29.24
-32.95
-39.19
-48.75
-61.58
-76.22
-89.67
-97.95
-97.30
-85.56
-62.91
-31.98
3.04
37.65
68.05
91.80
107.81
116.09
117.50
113.53
106.09
97.25
88.88
82.21
77.60
74.58
72.11
69.06
64.62
58.41
50.46
41.10
30.86
20.34
10.29
1.50
-5.17
-8.99
-9.53
-6.85
-1.54
5.39
12.67
19.12
23.78
26.08
25.81
23.07
18.35
12.40
6.17
0.61
-3.53
-5.83
-6.25
-4.99
-2.45
0.88
4.36
7.09
7.96
5.96
0.66
-7.38
-16.48
-24.30
-28.73
-28.69
-24.62
-18.16
-11.35
-5.65
-1.40
2.19
6.30
11.81
18.71
25.92
31.48
33.01
28.38
16.53
-1.82
-24.02
-45.98
-63.56
-74.02
-77.05
-74.64
-69.93
-65.63
-62.80
-60.68
-57.50
-51.69
-42.73
-31.23
-18.43
-5.37
7.41
19.86
31.90
42.98
51.91
57.04
57.01
51.31
40.79
27.52
14.24
3.60
-2.51
-3.33
0.85
8.98
19.43
30.19
38.90
43.32
41.89
34.46
22.66
9.49
-1.60
-7.93
-8.48
-4.00
3.50
11.58
17.97
20.94
19.27
12.37
0.42
-15.13
-31.45
-44.49
-49.91
-44.46
-27.34
-0.99
29.20
56.44
74.63
80.32
73.45
56.84
34.67
10.96
-11.43
-30.94
-47.02
-59.74
-69.75
-78.07
-85.58
-92.12
-95.88
-93.44
-80.87
-55.37
-16.78
31.94
85.45
137.46
182.25
215.72
235.70
241.74
234.67
216.24
188.68
154.58
116.72
77.88
40.56
6.75
-22.39
-46.68
-66.60
-82.86
-95.75
-104.95
-109.69
-109.30
-103.76
-94.00
-81.75
-69.10
-58.03
-49.96
-45.62
-44.96
-47.20
-50.93
-54.34
-55.62
-53.44
-47.25
-37.46
-25.10
-11.44
2.45
15.75
27.91
38.47
47.18
54.12
59.92
65.70
72.67
81.46
91.61
101.57
109.09
111.96
108.77
99.13
83.59
63.16
39.19
13.37
-12.08
-34.40
-51.06
-60.77
-64.56
-65.69
-68.27
-75.11
-85.89
-96.95
-102.79
-98.84
-83.71
-59.76
-31.94
-5.40
16.36
32.16
42.39
47.84
48.90
45.84
39.53
31.92
25.68
23.14
24.97
29.65
33.89
33.94
27.25
13.55
-5.21
-25.91
-45.70
-63.11
-78.26
-92.20
-105.92
-119.65
-132.61
-143.17
-149.13
-148.08
-137.85
-117.17
-86.35
-47.61
-4.89
37.12
74.31
104.13
125.84
140.05
147.82
149.86
146.44
137.60
123.69
105.72
85.38
64.65
45.40
28.83
15.07
3.31
-7.89
-19.79
-32.91
-46.66
-59.67
-70.42
-77.83
-81.69
-82.50
-81.19
-78.63
-75.57
-72.69
-70.73
-70.53
-72.62
-76.98
-82.75
-88.47
-92.50
-93.60
-91.24
-85.54
-77.05
-66.43
-54.32
-41.39
-28.43
-16.21
-5.30
4.12
12.27
19.47
25.76
30.61
33.11
32.41
28.25
21.29
12.87
4.50
-2.77
-8.70
-13.84
-19.00
-24.69
-30.72
-36.15
-39.61
-39.79
-35.98
-28.41
-18.19
-7.02
3.38
11.75
17.47
20.59
21.64
21.61
22.07
25.27
33.91
50.51
76.36
110.61
149.86
188.70
220.93
241.13
245.92
234.85
210.33
176.96
140.04
104.06
71.62
43.27
18.12
-5.35
-28.61
-53.10
-79.87
-109.12
-139.34
-166.65
-185.16
-188.69
-173.36
-140.03
-95.03
-48.46
-10.79
11.20
16.93
11.86
4.67
2.94
9.28
20.11
27.93
25.75
11.46
-10.69
-32.39
-45.89
-48.19
-41.84
-32.30
-23.57
-15.38
-3.81
15.34
42.40
72.37
96.77
107.86
102.62
84.14
59.83
38.13
25.34
24.02
33.37
50.36
70.90
90.88
106.73
116.05
118.08
113.70
104.65
92.40
77.05
57.10
30.39
-4.29
-45.47
-88.38
-125.78
-149.99
-155.60
-141.66
-112.36
-75.93
-42.03
-18.50
-8.93
-12.04
-23.04
-36.02
-46.47
-52.58
-54.98
-55.50
-55.49
-54.69
-51.33
-43.07
-28.42
-7.93
15.81
38.98
58.29
72.45
82.67
91.80
102.35
114.42
124.66
127.01
115.01
85.06
38.76
-16.44
-68.92
-106.21
-119.00
-104.37
-67.05
-18.44
26.62
54.26
55.85
30.63
-14.14
-65.54
-109.11
-133.15
-131.87
-106.50
-64.25
-15.83
27.70
57.66
69.62
63.76
44.09
16.55
-13.00
-40.15
-62.32
-78.07
-86.07
-84.57
-71.63
-46.33
-9.98
33.35
77.19
114.03
137.08
141.86
127.18
95.35
51.85
4.52
-37.44
-64.87
-70.42
-50.47
-7.02
51.76
112.65
160.57
182.95
173.83
136.01
80.33
22.43
-21.94
-41.48
-32.27
1.60
49.63
98.24
134.66
150.16
141.56
110.77
63.15
5.56
-54.89
-111.40
-157.79
-189.21
-203.34
-201.27
-187.45
-168.20
-149.38
-134.62
-124.78
-118.87
-115.43
-113.37
-111.79
-109.09
-102.44
-88.30
-63.86
-28.66
14.79
61.66
106.47
144.83
174.42
195.02
207.86
214.73
217.55
218.12
217.94
217.82
217.38
214.84
207.34
191.82
166.12
129.80
84.50
33.86
-16.99
-62.40
-97.26
-118.39
-125.41
-120.95
-109.79
-97.31
-87.80
-83.49
-84.33
-88.72
-94.47
-99.55
-102.49
-102.46
-99.21
-92.92
-84.06
-73.21
-60.92
-47.79
-34.68
-22.84
-13.97
-9.77
-11.31
-18.40
-29.37
-41.56
-52.33
-60.06
-64.77
-68.04
-72.09
-78.77
-88.64
-100.74
-113.07
-123.37
-129.96
-132.36
-131.53
-129.97
-131.33
-139.54
-157.19
-183.88
-215.26
-243.69
-260.57
-259.50
-238.79
-201.77
-155.15
-105.85
-58.37
-13.74
29.75
74.83
123.90
178.18
237.25
298.67
357.71
407.71
441.51
453.72
442.73
411.42
365.94
313.38
259.38
206.88
156.23
106.49
56.97
8.16
-38.17
-79.51
-113.47
-138.44
-153.91
-160.31
-158.79
-150.46
-136.44
-117.93
-96.67
-75.21
-56.70
-44.09
-38.94
-40.73
-46.92
-54.06
-59.17
-60.99
-60.15
-58.47
-57.45
-56.89
-54.83
-48.44
-35.85
-17.49
3.67
23.18
37.01
43.13
42.04
36.20
28.68
21.85
16.83
13.44
10.90
8.48
6.07
4.23
3.93
6.02
10.70
17.28
24.34
30.25
33.78
34.55
33.15
30.66
28.24
26.49
25.33
24.27
22.79
20.75
18.45
16.47
15.23
14.83
14.93
14.98
14.42
12.94
10.43
6.95
2.57
-2.67
-8.75
-15.53
-22.69
-29.71
-36.01
-41.10
-44.64
-46.56
-46.95
-46.02
-44.09
-41.47
-38.51
-35.56
-32.95
-30.90
-29.51
-28.68
-28.20
-27.74
-27.03
-25.97
-24.66
-23.37
-22.42
-22.03
-22.13
-22.41
-22.41
-21.75
-20.26
-18.00
-15.14
-11.79
-7.97
-3.62
1.20
6.20
10.90
14.78
17.51
19.03
19.58
19.46
18.92
18.00
16.66
14.83
12.55
9.96
7.23
4.52
2.03
-0.10
-1.79
-3.04
-4.00
-4.92
-6.01
-7.31
-8.61
-9.56
-9.90
-9.64
-9.12
-8.86
-9.29
-10.45
-12.00
-13.27
-13.58
-12.51
-9.98
-6.36
-2.29
1.53
4.48
6.17
6.55
5.85
4.46
2.88
1.47
0.40
-0.37
-1.01
-1.64
-2.26
-2.72
-2.82
-2.54
-2.10
-2.04
-3.01
-5.47
-9.40
-14.23
-18.93
-22.48
-24.15
-23.82
-21.99
-19.62
-17.85
-17.78
-20.09
-24.91
-31.74
-39.52
-46.92
-52.71
-55.96
-56.31
-53.96
-49.58
-44.10
-38.31
-32.54
-26.55
-19.61
-10.86
0.25
13.62
28.44
43.39
57.11
68.60
77.60
84.53
90.36
96.03
102.08
108.44
114.47
119.52
123.35
126.38
129.37
132.82
136.42
138.98
139.04
135.42
127.54
115.04
97.21
72.89
41.19
2.61
-40.06
-82.14
-118.55
-145.81
-163.19
-172.42
-176.20
-176.28
-172.63
-163.78
-148.27
-126.07
-99.00
-70.06
-42.14
-16.83
5.80
26.66
46.57
65.44
81.92
94.02
99.95
99.04
92.20
81.59
69.84
59.00
49.97
42.50
35.86
29.59
23.97
19.86
18.16
19.09
21.93
25.23
27.50
27.95
26.83
25.21
24.35
25.06
27.29
30.25
32.84
34.18
33.95
32.40
30.09
27.55
24.97
22.17
18.71
14.18
8.42
1.66
-5.54
-12.49
-18.53
-23.24
-26.40
-27.97
-27.99
-26.52
-23.69
-19.83
-15.54
-11.66
-9.04
-8.29
-9.48
-12.13
-15.35
-18.21
-20.12
-21.04
-21.38
-21.85
-22.95
-24.76
-26.82
-28.36
-28.71
-27.71
-25.80
-23.90
-23.02
-23.67
-25.63
-27.99
-29.55
-29.46
-27.73
-25.25
-23.46
-23.41
-24.91
-26.11
-23.68
-13.82
6.68
39.55
84.69
140.10
201.74
263.40
317.32
355.67
372.97
368.20
345.24
311.28
273.69
237.07
202.23
167.44
131.01
93.26
56.71
24.45
-2.02
-23.95
-44.70
-68.04
-96.56
-130.84
-169.68
-210.40
-249.36
-282.36
-305.37
-315.47
-311.91
-296.54
-273.44
-247.57
-223.25
-202.78
-186.07
-171.20
-155.63
-137.42
-115.97
-92.09
-67.57
-44.50
-24.95
-10.73
-3.30
-3.37
-10.20
-20.72
-29.55
-30.11
-16.85
12.26
54.52
102.91
148.07
181.01
195.48
189.46
165.47
129.72
90.14
54.20
26.87
9.79
1.86
0.95
5.84
17.10
36.50
65.06
101.25
140.23
174.93
198.36
206.00
197.06
174.02
141.31
103.38
63.51
23.47
-16.06
-54.95
-93.36
-131.58
-169.94
-208.42
-246.27
-281.93
-313.32
-338.19
-354.43
-360.21
-354.02
-335.30
-305.38
-268.19
-229.92
-197.34
-175.20
-164.08
-160.08
-156.45
-146.61
-126.83
-97.53
-62.56
-27.45
2.65
24.69
38.51
46.74
54.18
66.63
89.30
124.75
171.42
223.15
270.46
303.24
313.75
298.61
258.91
198.98
125.08
44.87
-32.31
-95.97
-136.31
-147.70
-131.87
-98.41
-61.82
-35.78
-27.99
-37.86
-58.42
-80.73
-97.91
-107.11
-108.61
-103.70
-92.90
-75.65
-51.00
-18.59
21.16
67.22
118.48
173.38
229.12
280.92
322.23
346.31
348.90
329.99
294.10
248.36
199.21
149.43
97.49
39.49
-26.98
-99.30
-168.88
-223.64
-252.48
-249.73
-217.30
-163.95
-102.41
-45.71
-3.75
19.13
24.82
20.51
15.64
17.69
28.21
41.41
46.34
32.50
-4.05
-57.43
-113.35
-154.88
-169.00
-151.15
-105.99
-44.90
17.85
68.48
96.44
96.44
69.77
24.61
-25.43
-64.70
-80.17
-65.42
-22.88
36.91
98.50
145.88
166.57
154.58
111.69
46.78
-26.24
-91.77
-136.08
-150.08
-131.39
-84.47
-19.52
50.03
110.52
151.21
166.22
155.19
122.41
74.99
21.21
-30.91
-74.30
-103.04
-112.64
-100.49
-66.39
-13.49
51.32
118.04
175.38
213.23
225.30
210.46
172.17
116.79
51.59
-16.31
-79.89
-132.29
-167.40
-181.38
-174.32
-150.40
-116.01
-76.67
-34.71
10.35
59.16
109.31
154.07
184.32
192.39
175.52
136.58
82.21
19.92
-43.51
-101.86
-148.66
-177.45
-183.73
-167.69
-135.74
-99.20
-70.36
-57.99
-64.34
-85.16
-112.14
-135.93
-148.58
-144.54
-120.77
-77.16
-17.16
51.67
118.22
169.83
195.43
188.96
151.78
93.00
27.68
-27.13
-57.05
-54.56
-21.38
32.42
91.74
141.28
170.22
174.38
155.57
118.52
67.98
7.41
-59.72
-127.67
-187.41
-228.01
-240.28
-220.47
-172.10
-104.85
-31.53
35.30
85.62
112.90
114.51
91.82
50.19
-1.84
-54.22
-97.83
-126.29
-136.51
-127.60
-99.43
-52.60
10.31
82.97
154.62
211.94
243.18
242.42
211.50
158.68
94.85
29.61
-30.40
-80.59
-116.92
-135.47
-134.28
-115.90
-88.00
-60.56
-40.79
-29.19
-19.98
-5.80
16.25
41.64
60.39
63.13
47.17
19.05
-7.82
-19.29
-6.39
31.17
85.18
142.25
188.03
210.98
204.46
167.73
105.97
29.45
-48.08
-111.89
-149.27
-152.53
-121.37
-63.76
5.65
69.18
111.12
122.61
104.26
65.54
20.56
-17.72
-43.05
-57.75
-70.09
-88.52
-115.58
-144.92
-163.50
-158.28
-123.40
-64.51
2.45
57.25
83.49
75.14
38.52
-10.71
-53.67
-75.15
-68.43
-36.68
9.36
55.76
90.02
104.33
96.66
70.02
30.55
-14.42
-57.56
-92.10
-111.73
-110.67
-84.91
-34.16
36.15
114.38
184.48
230.39
240.98
213.57
154.54
77.32
-1.45
-66.08
-105.05
-113.39
-93.67
-55.41
-12.68
19.69
30.16
13.29
-29.25
-89.66
-156.56
-217.42
-260.79
-277.91
-264.23
-220.86
-155.08
-79.33
-8.52
43.54
67.67
61.47
29.60
-17.60
-66.95
-105.95
-125.70
-122.62
-98.46
-58.72
-10.12
41.42
92.09
139.90
183.51
220.81
248.46
262.28
258.67
235.76
193.94
136.13
67.61
-4.08
-69.62
-118.79
-142.36
-134.49
-95.04
-30.78
45.51
117.69
170.34
192.32
179.48
135.42
70.45
-0.83
-62.69
-101.51
-108.62
-82.24
-28.27
41.09
110.04
163.41
190.71
188.53
160.17
112.88
54.53
-8.21
-69.56
-123.38
-162.70
-181.41
-177.41
-155.02
-124.52
-98.08
-84.22
-83.92
-90.54
-93.74
-84.56
-59.22
-19.30
30.89
87.23
147.06
208.04
266.08
314.43
345.35
352.90
336.17
300.05
253.28
204.65
159.70
119.50
82.16
45.71
10.25
-21.70
-46.85
-63.21
-71.23
-73.39
-72.62
-71.04
-69.64
-69.06
-70.58
-76.25
-87.91
-105.61
-126.64
-145.95
-158.03
-159.11
-148.60
-129.12
-105.09
-81.02
-60.11
-43.79
-32.09
-24.37
-19.86
-18.00
-18.45
-20.85
-24.83
-29.86
-35.22
-39.91
-42.75
-42.56
-38.54
-30.71
-20.08
-8.42
2.27
10.33
14.92
16.12
14.79
12.06
9.15
7.06
6.44
7.57
10.34
14.18
18.37
22.19
25.22
27.57
29.62
31.69
33.61
34.64
33.64
29.85
23.37
15.26
7.35
1.44
-1.33
-0.73
2.72
8.21
14.87
21.88
28.28
33.11
35.45
34.85
31.46
25.63
17.55
6.88
-7.13
-24.79
-44.90
-64.12
-77.46
-80.04
-69.40
-47.15
-19.18
6.10
20.76
20.17
4.44
-22.16
-53.36
-83.15
-107.49
-124.45
-133.68
-135.82
-132.35
-125.77
-119.54
-117.19
-120.97
-130.68
-143.46
-154.67
-159.72
-155.72
-142.49
-122.22
-98.33
-74.18
-52.10
-33.10
-16.91
-2.68
10.67
23.95
37.48
51.08
64.13
75.71
84.84
90.69
92.73
91.13
86.81
81.27
76.14
72.58
70.86
70.26
69.53
67.51
63.78
58.71
53.16
47.97
43.61
40.30
38.31
38.10
40.09
44.13
49.01
52.52
52.32
46.93
36.45
22.49
7.34
-7.16
-20.14
-31.78
-42.57
-52.58
-61.36
-68.12
-72.25
-73.65
-72.67
-69.74
-65.01
-58.30
-49.38
-38.54
-26.78
-15.78
-7.39
-2.88
-2.45
-5.08
-8.88
-11.98
-13.25
-12.72
-11.41
-10.71
-11.65
-14.42
-18.41
-22.67
-26.40
-29.28
-31.35
-32.76
-33.54
-33.54
-32.65
-30.91
-28.53
-25.72
-22.43
-18.35
-13.11
-6.49
1.22
9.25
16.43
21.59
23.83
22.85
19.17
13.96
8.82
5.32
4.42
6.30
10.28
15.21
19.91
23.49
25.57
26.20
25.71
24.47
22.80
20.81
18.46
15.72
12.66
9.59
6.95
5.09
4.09
3.63
3.19
2.31
0.85
-0.98
-2.84
-4.52
-6.12
-7.95
-10.35
-13.42
-16.95
-20.47
-23.41
-25.39
-26.28
-26.24
-25.71
-25.20
-25.18
-25.80
-26.89
-27.89
-28.14
-27.14
-24.71
-21.08
-16.64
-11.78
-6.76
-1.70
3.26
7.92
11.94
15.04
17.14
18.42
19.34
20.34
21.68
23.36
25.07
26.51
27.54
28.26
28.99
30.02
31.51
33.44
35.66
37.99
40.25
42.19
43.37
43.18
41.06
36.82
30.91
24.42
18.72
14.90
13.31
13.36
13.85
13.57
11.81
8.55
4.36
-0.08
-4.28
-8.02
-11.15
-13.33
-14.08
-13.03
-10.27
-6.62
-3.32
-1.51
-1.64
-3.26
-5.26
-6.52
-6.49
-5.35
-3.81
-2.55
-1.80
-1.32
-0.61
0.60
2.21
3.79
4.93
5.54
5.94
6.59
7.73
9.17
10.34
10.70
10.13
9.08
8.29
8.39
9.51
11.19
12.65
13.30
13.00
12.13
11.25
10.74
10.63
10.65
10.46
9.86
8.92
7.83
6.71
5.53
4.14
2.39
0.26
-2.10
-4.45
-6.53
-8.18
-9.33
-10.00
-10.34
-10.57
-10.98
-11.87
-13.52
-16.21
-20.08
-25.04
-30.63
-35.96
-39.92
-41.42
-39.84
-35.30
-28.61
-20.98
-13.62
-7.38
-2.72
0.21
1.32
0.64
-1.64
-4.90
-8.23
-10.64
-11.52
-10.97
-9.81
-9.21
-10.04
-12.31
-14.90
-15.90
-13.39
-6.32
4.83
18.07
30.53
39.44
43.10
41.28
35.12
26.44
17.08
8.31
0.80
-5.21
-9.62
-12.38
-13.51
-13.27
-12.22
-11.04
-10.33
-10.27
-10.52
-10.42
-9.36
-7.18
-4.37
-1.84
-0.44
-0.64
-2.17
-4.41
-6.66
-8.60
-10.28
-11.78
-12.80
-12.56
-10.09
-4.82
2.89
11.79
20.18
26.51
29.95
30.46
28.62
25.37
21.79
19.05
18.17
19.76
23.66
28.79
33.58
36.67
37.70
37.81
39.23
44.39
54.68
69.66
86.82
102.29
112.07
113.26
104.90
88.02
65.11
39.25
13.29
-10.49
-30.52
-45.71
-55.58
-60.32
-60.98
-59.31
-57.33
-56.61
-57.82
-60.62
-64.05
-67.02
-68.78
-69.07
-68.01
-65.91
-63.03
-59.49
-55.34
-50.67
-45.74
-41.01
-37.07
-34.42
-33.23
-33.09
-33.20
-32.71
-31.15
-28.77
-26.29
-24.42
-23.22
-21.98
-19.63
-15.43
-9.55
-3.09
2.38
5.68
6.61
6.01
5.33
5.81
7.89
11.08
14.31
16.56
17.42
17.15
16.48
16.07
16.15
16.44
16.36
15.47
13.71
11.46
9.30
7.64
6.57
5.88
5.18
4.15
2.59
0.49
-2.02
-4.63
-6.86
-8.19
-8.20
-6.75
-4.10
-0.77
2.60
5.47
7.51
8.66
9.01
8.80
8.37
8.11
8.32
9.06
10.07
10.82
10.90
10.36
9.94
10.86
14.25
20.51
28.88
37.58
44.40
47.58
46.41
41.44
34.13
26.31
19.76
15.87
15.39
18.00
21.75
23.04
17.24
0.36
-29.33
-70.25
-117.98
-166.92
-212.22
-250.87
-281.48
-303.29
-315.22
-316.00
-305.11
-283.84
-255.45
-224.18
-193.54
-165.11
-138.30
-111.46
-83.25
-53.72
-24.48
2.13
24.11
40.70
52.67
62.12
71.78
84.44
102.54
127.89
161.25
201.77
246.55
290.87
329.05
356.01
368.74
366.98
352.86
329.80
301.17
269.64
237.25
206.09
178.78
158.39
147.55
147.40
156.90
172.87
190.86
206.34
215.80
217.62
212.02
200.77
186.25
170.79
155.95
142.27
129.30
116.21
102.72
89.82
79.72
74.84
76.26
82.45
89.23
91.04
83.05
62.91
31.34
-8.45
-52.23
-95.79
-135.28
-167.04
-187.68
-194.93
-189.05
-173.85
-156.33
-144.98
-147.26
-167.36
-205.04
-255.48
-310.34
-359.69
-394.62
-409.74
-404.62
-383.66
-354.03
-322.69
-293.83
-268.05
-243.59
-218.59
-193.00
-168.96
-149.71
-137.95
-134.63
-138.49
-146.59
-155.12
-160.33
-159.46
-151.41
-136.93
-118.14
-97.37
-76.06
-54.27
-30.94
-4.52
26.41
62.83
104.82
151.00
197.63
238.41
265.74
273.25
258.69
225.26
180.86
134.95
94.91
63.64
39.17
16.25
-11.25
-48.04
-95.80
-152.34
-211.63
-264.92
-302.87
-318.28
-308.44
-275.84
-227.09
-170.59
-113.82
-61.88
-17.27
19.54
49.29
73.75
95.87
119.84
150.23
189.92
237.94
288.42
331.82
357.91
360.07
338.06
298.30
251.15
206.76
171.53
146.94
130.80
119.77
111.57
105.49
101.66
99.77
98.48
95.70
89.68
79.73
66.46
51.62
37.26
24.98
15.43
8.21
2.21
-3.82
-10.66
-18.23
-25.60
-31.41
-34.49
-34.36
-31.32
-26.34
-20.62
-15.19
-10.72
-7.46
-5.43
-4.46
-4.38
-5.02
-6.29
-8.16
-10.67
-13.80
-17.44
-21.32
-25.06
-28.22
-30.40
-31.27
-30.62
-28.32
-24.46
-19.29
-13.37
-7.45
-2.31
1.41
3.51
4.20
4.00
3.54
3.31
3.53
4.15
4.89
5.45
5.59
5.24
4.47
3.45
2.33
1.20
0.08
-1.09
-2.31
-3.52
-4.54
-5.19
-5.29
-4.72
-3.46
-1.54
0.93
3.74
6.62
9.28
11.45
12.97
13.77
13.85
13.29
12.18
10.63
8.79
6.88
5.19
4.00
3.48
3.61
4.15
4.66
4.65
3.74
1.85
-0.87
-4.06
-7.32
-10.40
-13.12
-15.39
-17.05
-17.86
-17.58
-16.15
-13.77
-10.97
-8.39
-6.62
-5.93
-6.25
-7.25
-8.46
-9.51
-10.12
-10.12
-9.44
-8.10
-6.22
-4.09
-2.08
-0.58
0.19
0.26
-0.06
-0.34
-0.25
0.31
1.17
1.99
2.43
2.38
1.97
1.44
1.02
0.71
0.36
-0.25
-1.24
-2.61
-4.26
-6.09
-8.07
-10.13
-12.11
-13.67
-14.35
-13.76
-11.82
-8.84
-5.53
-2.72
-1.09
-0.92
-1.98
-3.64
-5.09
-5.58
-4.69
-2.43
0.79
4.34
7.53
9.84
11.04
11.14
10.41
9.24
7.96
6.85
5.99
5.37
4.87
4.36
3.77
3.08
2.34
1.71
1.34
1.41
2.07
3.35
5.16
7.17
8.91
9.93
9.95
9.03
7.50
5.86
4.48
3.45
2.60
1.64
0.34
-1.33
-3.26
-5.36
-7.54
-9.77
-11.89
-13.54
-14.31
-13.80
-11.95
-9.06
-5.72
-2.64
-0.37
0.83
1.05
0.62
-0.03
-0.48
-0.46
0.15
1.27
2.70
4.21
5.58
6.67
7.41
7.78
7.82
7.58
7.15
6.65
6.23
6.00
5.96
6.06
6.13
5.96
5.36
4.27
2.77
1.11
-0.39
-1.40
-1.74
-1.44
-0.74
-0.01
0.39
0.24
-0.52
-1.82
-3.49
-5.34
-7.18
-8.80
-10.10
-11.06
-11.85
-12.71
-13.92
-15.58
-17.55
-19.43
-20.64
-20.67
-19.24
-16.44
-12.67
-8.55
-4.66
-1.41
1.03
2.71
3.78
4.37
4.56
4.35
3.76
2.89
1.93
1.11
0.62
0.57
0.97
1.75
2.75
3.81
4.68
5.16
5.09
4.43
3.30
1.94
0.72
-0.01
-0.02
0.73
2.07
3.62
4.90
5.53
5.31
4.39
3.16
2.12
1.69
2.04
3.05
4.45
5.94
7.27
8.30
8.98
9.26
9.10
8.52
7.55
6.26
4.69
2.78
0.37
-2.67
-6.36
-10.51
-14.74
-18.55
-21.45
-23.09
-23.32
-22.22
-20.13
-17.48
-14.69
-12.14
-10.04
-8.48
-7.42
-6.77
-6.37
-6.04
-5.63
-5.07
-4.41
-3.82
-3.50
-3.52
-3.71
-3.66
-2.91
-1.19
1.42
4.41
7.14
9.04
9.91
9.89
9.36
8.70
8.11
7.62
7.15
6.64
6.09
5.51
4.85
4.01
2.91
1.49
-0.13
-1.78
-3.25
-4.44
-5.38
-6.16
-6.91
-7.68
-8.43
-9.10
-9.57
-9.76
-9.64
-9.21
-8.51
-7.52
-6.18
-4.28
-1.60
1.97
6.24
10.61
14.21
16.10
15.72
13.08
8.92
4.35
0.45
-2.05
-3.01
-2.72
-1.59
0.00
1.83
3.77
5.66
7.23
8.23
8.45
7.92
6.85
5.58
4.41
3.47
2.77
2.22
1.74
1.28
0.77
0.13
-0.75
-1.95
-3.44
-5.00
-6.33
-7.14
-7.32
-7.03
-6.76
-7.07
-8.44
-11.01
-14.44
-18.04
-20.93
-22.38
-22.03
-20.01
-16.81
-13.10
-9.43
-6.13
-3.25
-0.76
1.42
3.32
4.93
6.21
7.19
7.92
8.46
8.84
9.06
9.07
8.89
8.49
7.93
7.25
6.51
5.81
5.25
4.92
4.82
4.91
5.05
5.13
5.10
5.04
5.09
5.40
6.02
6.79
7.43
7.68
7.36
6.49
5.18
3.59
1.84
0.00
-1.86
-3.61
-5.14
-6.41
-7.52
-8.70
-10.17
-12.02
-14.06
-15.98
-17.36
-17.94
-17.66
-16.60
-14.95
-12.86
-10.42
-7.72
-4.93
-2.27
0.04
1.83
3.04
3.78
4.17
4.33
4.29
4.08
3.74
3.40
3.31
3.69
4.69
6.22
8.02
9.66
10.79
11.16
10.78
9.81
8.51
7.16
5.99
5.12
4.60
4.36
4.21
3.93
3.23
1.94
-0.02
-2.52
-5.30
-8.06
-10.54
-12.61
-14.24
-15.47
-16.29
-16.64
-16.42
-15.58
-14.13
-12.22
-10.08
-8.05
-6.47
-5.73
-6.14
-7.75
-10.27
-13.01
-15.05
-15.54
-14.02
-10.63
-6.04
-1.17
3.12
6.30
8.25
9.17
9.38
9.19
8.81
8.36
8.01
7.95
8.44
9.66
11.54
13.76
15.78
17.13
17.59
17.33
16.79
16.44
16.57
17.14
17.93
18.67
19.18
19.43
19.48
19.33
18.97
18.36
17.42
16.11
14.44
12.54
10.60
8.91
7.65
6.86
6.28
5.50
4.09
1.81
-1.33
-5.06
-9.05
-12.98
-16.64
-19.89
-22.61
-24.65
-25.88
-26.17
-25.51
-23.97
-21.76
-19.20
-16.66
-14.45
-12.79
-11.70
-11.07
-10.68
-10.31
-9.71
-8.66
-6.96
-4.45
-1.09
2.96
7.31
11.39
14.63
16.61
17.28
16.88
15.93
14.98
14.47
14.56
15.10
15.76
16.14
15.96
15.08
13.53
11.47
9.17
6.89
4.86
3.24
2.03
1.16
0.51
-0.00
-0.48
-1.02
-1.77
-2.94
-4.74
-7.26
-10.36
-13.69
-16.81
-19.31
-21.02
-22.09
-22.91
-23.97
-25.58
-27.73
-29.96
-31.54
-31.68
-29.81
-25.81
-20.09
-13.47
-6.91
-1.35
2.49
4.21
3.79
1.74
-0.88
-2.57
-1.70
2.80
11.05
22.00
33.80
44.56
52.96
58.59
61.77
63.04
62.72
60.72
56.78
50.83
43.26
34.92
26.84
19.91
14.56
10.66
7.69
4.90
1.67
-2.25
-6.66
-11.03
-14.75
-17.46
-19.16
-20.20
-21.07
-22.20
-23.76
-25.72
-27.84
-29.83
-31.43
-32.49
-33.05
-33.24
-33.20
-32.96
-32.48
-31.60
-30.17
-28.12
-25.44
-22.15
-18.27
-13.81
-8.96
-4.03
0.53
4.35
7.28
9.45
11.24
13.02
15.01
17.24
19.56
21.75
23.61
25.00
25.77
25.85
25.31
24.36
23.34
22.60
22.27
22.20
21.94
20.91
18.63
14.91
10.04
4.73
-0.04
-3.34
-4.58
-3.71
-1.27
1.78
4.36
5.63
5.20
3.16
-0.00
-3.68
-7.29
-10.36
-12.62
-14.00
-14.60
-14.69
-14.60
-14.54
-14.50
-14.27
-13.51
-12.01
-9.87
-7.48
-5.40
-4.10
-3.69
-4.00
-4.69
-5.50
-6.35
-7.28
-8.33
-9.40
-10.25
-10.64
-10.41
-9.56
-8.13
-6.18
-3.69
-0.71
2.55
5.65
7.94
8.81
7.91
5.32
1.58
-2.53
-6.28
-9.18
-11.12
-12.31
-13.11
-13.83
-14.65
-15.57
-16.50
-17.37
-18.12
-18.80
-19.45
-20.08
-20.65
-21.04
-21.10
-20.70
-19.69
-18.00
-15.65
-12.71
-9.34
-5.69
-1.91
1.81
5.27
8.22
10.40
11.59
11.73
10.99
9.75
8.46
7.55
7.26
7.63
8.54
9.81
11.26
12.75
14.16
15.39
16.33
16.92
17.19
17.23
17.16
17.04
16.81
16.29
15.32
13.87
12.13
10.44
9.12
8.33
7.80
6.92
4.88
0.97
-5.06
-12.92
-21.71
-30.16
-36.91
-40.72
-40.80
-36.96
-29.75
-20.44
-10.71
-2.31
3.50
6.25
6.38
4.87
2.79
0.81
-0.92
-2.65
-4.65
-6.85
-8.81
-9.78
-9.14
-6.68
-2.77
1.83
6.22
9.73
12.07
13.31
13.72
13.51
12.74
11.30
9.05
5.91
1.97
-2.51
-7.10
-11.28
-14.48
-16.20
-16.15
-14.37
-11.25
-7.50
-3.86
-1.03
0.54
0.64
-0.73
-3.37
-6.90
-10.73
-14.08
-16.09
-16.08
-13.72
-9.21
-3.19
3.36
9.44
14.21
17.22
18.40
18.05
16.76
15.21
14.09
13.88
14.74
16.47
18.61
20.61
21.98
22.41
21.83
20.35
18.16
15.49
12.62
9.77
7.17
4.93
3.08
1.48
-0.04
-1.68
-3.47
-5.39
-7.25
-8.89
-10.12
-10.83
-11.01
-10.77
-10.37
-10.14
-10.44
-11.53
-13.42
-15.85
-18.30
-20.16
-20.94
-20.48
-19.00
-16.99
-14.95
-13.14
-11.46
-9.51
-6.83
-3.20
1.20
5.74
9.62
12.12
12.95
12.32
10.97
9.89
10.05
12.12
16.21
21.82
27.89
33.06
35.99
35.76
32.12
25.61
17.42
9.04
1.83
-3.34
-6.30
-7.46
-7.52
-7.22
-7.02
-7.13
-7.56
-8.20
-8.89
-9.47
-9.75
-9.51
-8.65
-7.24
-5.54
-3.92
-2.79
-2.39
-2.82
-3.99
-5.69
-7.67
-9.64
-11.29
-12.39
-12.87
-12.84
-12.58
-12.37
-12.31
-12.21
-11.59
-9.94
-6.90
-2.58
2.48
7.44
11.51
14.23
15.63
16.16
16.50
17.16
18.36
19.93
21.45
22.48
22.79
22.41
21.59
20.63
19.68
18.69
17.44
15.72
13.41
10.58
7.44
4.23
1.20
-1.48
-3.69
-5.34
-6.44
-7.12
-7.66
-8.43
-9.78
-11.86
-14.62
-17.76
-20.94
-24.04
-27.11
-30.34
-33.75
-36.88
-38.75
-38.25
-34.50
-26.98
-15.36
0.77
21.94
48.05
77.56
107.06
131.83
147.36
151.01
142.78
124.99
100.95
73.81
46.05
19.74
-3.03
-20.25
-30.65
-34.38
-33.18
-29.67
-26.26
-24.30
-23.91
-24.49
-25.21
-25.58
-25.43
-24.78
-23.75
-22.55
-21.31
-20.13
-18.97
-17.62
-15.91
-13.82
-11.66
-9.86
-8.78
-8.48
-8.63
-8.65
-7.88
-5.84
-2.47
1.82
6.24
9.81
11.72
11.55
9.41
5.86
1.65
-2.56
-6.32
-9.47
-12.04
-14.15
-15.89
-17.33
-18.50
-19.40
-20.01
-20.29
-20.32
-20.25
-20.39
-21.01
-22.27
-24.04
-25.88
-27.19
-27.36
-26.02
-23.10
-18.84
-13.75
-8.53
-3.95
-0.70
0.79
0.49
-1.20
-3.53
-5.61
-6.70
-6.42
-4.76
-2.08
1.13
4.37
7.30
9.70
11.49
12.70
13.40
13.67
13.58
13.17
12.49
11.59
10.63
9.80
9.24
9.06
9.17
9.41
9.57
9.54
9.30
9.00
8.81
8.83
9.03
9.26
9.30
8.97
8.15
6.90
5.31
3.54
1.71
-0.09
-1.82
-3.42
-4.85
-6.06
-7.04
-7.81
-8.46
-9.09
-9.85
-10.84
-12.15
-13.85
-15.91
-18.18
-20.41
-22.17
-23.03
-22.66
-20.96
-18.11
-14.56
-10.84
-7.44
-4.74
-2.86
-1.74
-1.22
-1.06
-1.08
-1.16
-1.19
-1.13
-0.93
-0.52
0.18
1.22
2.70
4.63
7.02
9.77
12.66
15.40
17.61
19.02
19.39
18.76
17.29
15.31
13.15
11.12
9.37
7.94
6.72
5.57
4.43
3.34
2.52
2.23
2.61
3.60
4.90
6.12
6.87
6.93
6.24
4.86
2.90
0.49
-2.21
-5.00
-7.64
-9.90
-11.62
-12.79
-13.54
-14.10
-14.78
-15.82
-17.35
-19.30
-21.42
-23.31
-24.51
-24.61
-23.31
-20.47
-16.13
-10.56
-4.26
2.11
7.83
12.34
15.39
17.08
17.72
17.68
17.20
16.45
15.58
14.79
14.39
14.56
15.28
16.23
16.96
17.07
16.37
14.98
13.20
11.33
9.61
8.22
7.34
7.13
7.71
9.06
10.95
13.09
15.24
17.27
19.13
20.69
21.67
21.63
20.20
17.27
13.24
8.90
5.22
2.93
2.13
2.04
1.04
-2.89
-11.60
-26.05
-45.88
-69.39
-93.97
-116.81
-135.72
-149.63
-158.79
-164.60
-169.19
-174.67
-182.26
-191.46
-199.78
-203.34
-198.17
-181.91
-154.81
-119.70
-80.96
-42.80
-7.88
23.16
51.37
78.86
107.98
140.73
178.18
219.89
263.61
305.55
341.17
366.42
378.78
377.58
363.78
339.40
306.98
269.37
229.58
190.55
154.47
122.40
93.97
67.61
41.30
13.05
-18.97
-56.57
-101.38
-153.85
-212.32
-272.40
-327.64
-371.26
-398.33
-407.25
-399.76
-379.63
-350.96
-316.97
-279.83
-241.23
-202.93
-166.71
-133.52
-102.76
-72.32
-39.99
-5.11
30.19
61.43
83.74
93.81
91.62
80.38
65.11
50.91
41.70
39.81
46.05
60.03
80.31
104.28
128.38
148.63
161.51
164.89
158.46
143.54
122.52
97.98
71.89
45.06
17.17
-12.46
-43.52
-73.52
-97.68
-110.45
-108.23
-91.71
-66.49
-41.23
-23.84
-18.10
-22.15
-29.74
-33.56
-28.52
-13.32
10.22
38.96
70.07
101.20
129.76
152.19
164.46
163.52
149.02
124.01
93.89
64.34
39.26
19.70
4.26
-9.71
-24.61
-41.40
-59.04
-74.45
-83.11
-80.41
-63.13
-30.95
12.96
62.67
111.12
152.06
181.43
197.82
202.04
196.50
184.67
170.58
158.30
151.01
149.82
152.95
155.88
152.55
137.31
106.97
62.20
7.90
-47.80
-95.66
-128.10
-141.69
-138.36
-124.60
-108.99
-98.94
-98.00
-105.13
-115.77
-124.21
-125.87
-118.56
-102.58
-79.94
-53.71
-27.55
-5.51
8.44
11.23
1.73
-18.51
-45.26
-72.82
-95.75
-110.67
-117.22
-117.71
-115.72
-114.35
-115.01
-117.15
-119.08
-119.08
-116.30
-110.95
-103.99
-96.39
-88.76
-81.01
-72.49
-62.30
-49.61
-34.02
-15.76
4.26
24.65
43.94
60.91
74.92
85.96
94.90
103.44
114.03
129.12
150.24
176.88
206.00
232.37
249.95
253.59
240.32
209.74
163.79
106.09
41.59
-23.45
-81.72
-125.86
-150.23
-152.74
-135.86
-106.03
-71.62
-40.32
-17.05
-3.19
2.92
4.75
6.10
9.88
17.19
26.70
34.71
36.18
26.54
3.91
-29.42
-66.83
-99.03
-116.72
-113.59
-88.28
-45.11
7.07
57.12
94.52
111.83
106.51
81.43
43.94
3.99
-28.61
-46.75
-48.12
-35.81
-17.33
-2.00
2.29
-7.90
-30.16
-56.79
-77.36
-82.30
-66.11
-29.43
20.94
73.84
116.66
138.47
132.50
97.58
38.47
-34.88
-109.20
-170.53
-207.44
-213.87
-190.66
-145.22
-89.05
-33.93
11.83
45.52
69.81
90.17
111.31
134.13
154.59
164.92
156.91
125.83
73.46
8.92
-53.26
-97.34
-111.36
-91.17
-42.15
22.28
84.66
128.53
142.82
124.43
78.42
16.13
-48.07
-100.62
-132.10
-139.59
-127.03
-103.52
-79.90
-64.74
-61.23
-66.26
-72.07
-69.66
-52.62
-19.76
24.38
70.91
109.39
130.80
129.85
106.14
64.04
11.67
-40.73
-82.69
-105.69
-105.10
-81.55
-41.10
6.10
48.53
76.47
84.84
74.17
49.96
20.53
-5.50
-21.47
-23.84
-12.63
9.05
35.93
61.88
81.18
89.61
85.15
68.22
41.60
9.84
-21.44
-46.52
-60.41
-59.64
-42.78
-11.05
31.39
77.59
118.73
145.86
152.06
134.37
94.86
40.41
-18.92
-72.49
-111.89
-133.01
-136.62
-127.29
-110.75
-91.00
-68.38
-40.25
-3.50
41.79
90.24
131.97
156.10
155.04
127.21
77.24
13.89
-52.40
-111.62
-155.46
-178.34
-178.46
-158.67
-126.14
-90.44
-60.49
-41.65
-34.54
-36.04
-41.67
-47.82
-52.72
-56.16
-58.52
-59.87
-59.77
-57.30
-51.33
-40.68
-24.46
-2.28
25.27
56.26
87.10
113.04
129.20
132.33
122.33
102.88
80.57
62.59
53.78
54.59
60.69
64.71
59.34
40.45
8.88
-29.75
-67.09
-94.94
-108.05
-105.59
-90.99
-70.34
-49.97
-34.47
-25.76
-23.41
-25.73
-30.75
-36.41
-40.25
-39.28
-30.56
-12.66
12.83
40.87
64.30
76.54
74.42
59.77
38.85
19.99
10.49
14.20
30.59
55.20
81.02
100.34
106.33
94.80
65.45
22.65
-24.91
-65.97
-89.74
-89.57
-65.71
-26.04
15.99
45.85
53.06
34.93
-2.52
-46.75
-83.03
-99.05
-88.64
-53.31
-1.73
52.79
95.98
116.67
109.98
78.64
31.98
-17.02
-55.74
-75.34
-72.99
-51.97
-20.42
11.28
33.43
39.79
29.34
6.56
-20.22
-41.83
-51.44
-46.76
-30.16
-6.88
17.57
39.48
57.52
71.75
82.09
87.08
84.04
70.43
45.70
12.41
-24.08
-57.32
-82.03
-95.69
-98.71
-93.35
-82.00
-65.92
-45.11
-19.14
11.61
45.18
78.32
107.41
129.61
143.18
147.38
142.07
127.67
105.61
78.66
50.91
26.76
9.72
1.30
0.80
6.00
14.10
22.48
28.91
31.51
28.80
20.10
5.97
-11.72
-30.37
-47.60
-62.00
-73.43
-82.45
-89.61
-94.88
-97.47
-96.36
-90.93
-81.57
-69.69
-57.47
-47.15
-40.42
-38.00
-39.33
-42.80
-46.10
-46.91
-43.55
-35.70
-24.51
-12.24
-1.52
5.67
8.59
7.75
4.57
0.56
-3.23
-6.38
-8.94
-11.13
-13.03
-14.53
-15.37
-15.29
-14.24
-12.52
-10.79
-9.87
-10.45
-12.72
-16.22
-20.02
-23.03
-24.62
-24.75
-23.96
-23.05
-22.59
-22.71
-23.12
-23.42
-23.37
-23.16
-23.24
-24.21
-26.55
-30.45
-35.67
-41.50
-46.75
-49.90
-49.49
-44.60
-35.31
-22.88
-9.41
2.89
12.54
19.20
23.60
26.90
29.93
32.67
34.41
34.29
31.95
27.81
22.96
18.65
15.72
14.34
14.13
14.51
15.09
15.75
16.55
17.45
18.13
18.14
17.04
14.72
11.52
8.12
5.20
3.21
2.17
1.80
1.67
1.43
0.94
0.24
-0.56
-1.36
-2.11
-2.82
-3.56
-4.39
-5.31
-6.27
-7.10
-7.66
-7.79
-7.49
-7.00
-6.75
-7.31
-9.18
-12.57
-17.24
-22.49
-27.36
-30.85
-32.22
-31.21
-28.03
-23.29
-17.89
-12.75
-8.60
-5.81
-4.33
-3.74
-3.48
-3.09
-2.37
-1.47
-0.66
-0.23
-0.23
-0.53
-0.78
-0.60
0.32
2.15
4.88
8.35
12.25
16.15
19.58
22.17
23.77
24.43
24.40
24.03
23.71
23.73
24.19
25.00
25.85
26.34
26.11
24.98
23.00
20.43
17.62
14.94
12.63
10.81
9.49
8.63
8.11
7.77
7.39
6.72
5.57
3.84
1.53
-1.31
-4.67
-8.57
-13.07
-18.11
-23.38
-28.34
-32.27
-34.51
-34.64
-32.64
-28.90
-24.08
-18.98
-14.29
-10.52
-7.85
-6.10
-4.67
-2.66
1.03
7.35
16.72
28.72
42.12
55.14
66.01
73.45
76.98
76.82
73.66
68.25
61.26
53.31
45.05
37.29
30.88
26.48
24.36
24.23
25.35
26.68
27.12
25.73
21.90
15.42
6.45
-4.49
-16.54
-28.63
-39.62
-48.61
-55.12
-59.26
-61.60
-62.88
-63.74
-64.53
-65.38
-66.31
-67.49
-69.17
-71.71
-75.39
-80.28
-86.18
-92.48
-98.21
-102.13
-103.11
-100.61
-95.05
-87.77
-80.50
-74.57
-70.31
-67.05
-63.62
-59.08
-53.05
-45.69
-37.28
-27.96
-17.71
-6.63
4.91
16.38
27.34
37.56
47.00
55.53
62.78
68.27
71.80
73.70
74.84
76.34
79.03
83.29
88.98
95.64
102.60
108.89
113.21
114.15
110.69
102.84
92.00
80.52
70.80
64.15
60.29
57.47
53.48
46.78
37.29
26.31
15.82
7.47
1.92
-1.23
-2.96
-4.09
-4.81
-4.63
-2.79
1.25
7.45
15.10
22.90
29.24
32.24
30.14
21.79
7.40
-10.92
-29.28
-43.17
-49.20
-46.58
-37.56
-26.44
-17.55
-13.37
-13.73
-16.46
-18.88
-19.31
-17.68
-15.27
-13.89
-15.01
-19.36
-26.65
-35.54
-43.77
-48.39
-46.48
-35.95
-16.33
11.08
43.39
76.78
107.27
131.54
147.43
154.35
153.18
145.67
133.53
117.49
97.13
71.50
40.47
5.74
-29.00
-59.23
-81.44
-94.39
-99.26
-98.30
-92.73
-81.44
-61.49
-30.38
10.97
56.30
94.70
113.84
105.00
67.15
8.26
-56.69
-110.52
-139.29
-136.47
-104.39
-53.11
2.95
49.40
75.72
77.92
58.91
26.88
-7.56
-34.62
-47.57
-43.78
-24.47
6.09
41.59
74.58
97.49
104.17
91.70
61.84
21.54
-18.36
-45.92
-51.78
-32.48
7.99
59.02
106.25
135.86
138.65
112.61
63.50
3.42
-52.40
-89.76
-99.66
-81.47
-43.48
-0.71
30.07
36.18
13.70
-31.22
-84.50
-129.16
-150.93
-142.76
-106.59
-52.36
5.47
52.42
78.20
78.96
57.34
20.71
-21.52
-60.20
-87.97
-100.06
-94.97
-75.11
-46.77
-18.99
-0.91
1.60
-11.53
-34.23
-56.59
-68.55
-63.56
-40.61
-4.22
37.25
74.11
97.88
103.37
89.89
61.25
24.60
-11.77
-40.72
-58.00
-62.49
-55.33
-38.48
-13.94
16.20
49.07
80.55
105.51
118.75
116.27
96.41
60.41
12.60
-39.91
-88.12
-122.68
-136.07
-125.00
-92.10
-45.74
2.33
40.74
62.31
66.12
57.01
42.98
31.85
28.59
34.11
45.70
58.29
65.87
62.78
44.67
9.63
-40.62
-100.01
-158.68
-204.87
-227.95
-221.71
-186.61
-130.00
-64.14
-2.54
43.97
69.88
75.48
65.13
44.40
17.88
-11.42
-41.02
-67.35
-85.14
-88.54
-73.64
-40.88
4.01
51.55
91.64
117.01
125.38
119.42
105.07
88.82
75.27
65.63
57.64
46.67
27.83
-1.69
-40.76
-83.71
-121.44
-144.15
-144.73
-121.59
-79.82
-29.86
15.77
46.45
56.65
47.16
24.13
-3.34
-26.00
-36.97
-33.39
-16.87
7.00
30.42
45.54
46.85
33.04
7.58
-22.02
-46.36
-56.86
-48.64
-22.24
15.98
55.42
84.40
93.94
80.90
49.41
9.79
-24.59
-41.72
-35.01
-5.75
36.97
79.06
106.22
109.05
86.52
46.52
3.11
-28.60
-37.81
-21.67
14.05
57.31
94.00
112.36
106.34
76.96
31.64
-18.06
-59.69
-83.34
-84.31
-64.29
-30.59
6.45
36.90
54.31
57.26
48.73
34.07
18.52
5.71
-2.57
-5.84
-4.42
0.29
5.23
5.47
-4.58
-28.93
-67.65
-115.72
-164.00
-201.93
-220.56
-214.81
-184.26
-132.98
-68.51
-0.80
59.30
102.03
120.69
112.82
80.18
27.61
-38.25
-109.76
-178.40
-234.80
-269.89
-277.10
-255.07
-209.02
-149.78
-90.47
-42.07
-10.37
4.98
8.89
8.30
9.70
17.93
35.88
64.71
103.75
150.02
198.03
240.17
267.92
273.87
253.68
207.43
140.01
60.49
-19.49
-87.67
-133.29
-148.92
-131.92
-85.38
-18.21
55.94
121.11
162.46
170.03
141.60
83.72
10.35
-60.73
-112.63
-133.82
-121.09
-80.23
-24.18
30.57
68.63
80.12
63.59
26.45
-17.37
-52.01
-65.09
-51.97
-17.45
25.87
62.13
77.91
67.05
32.92
-12.78
-54.07
-76.39
-71.56
-40.51
7.18
56.67
92.93
105.50
91.80
57.61
15.06
-21.62
-40.93
-38.12
-16.83
12.44
36.50
44.64
32.81
5.02
-28.57
-55.86
-67.51
-60.08
-36.59
-4.55
27.32
52.01
66.01
69.47
65.27
57.36
48.97
41.15
32.28
18.99
-1.83
-30.67
-63.74
-93.12
-108.97
-103.08
-72.60
-22.03
37.60
91.81
126.97
134.09
110.91
62.16
-1.67
-66.50
-117.72
-143.68
-139.05
-106.77
-57.40
-5.70
34.68
55.97
58.51
49.40
38.74
35.32
43.92
64.77
94.53
127.63
157.32
176.35
178.15
158.38
116.79
58.51
-6.59
-66.18
-108.88
-127.37
-119.81
-89.36
-42.41
13.47
70.74
122.28
161.56
183.10
183.26
161.13
118.81
61.03
-5.50
-72.98
-133.20
-178.30
-202.07
-201.48
-177.83
-136.80
-87.26
-38.93
-0.05
24.02
31.43
23.60
4.60
-19.77
-43.29
-60.50
-67.57
-62.63
-45.78
-19.01
13.48
45.03
66.99
70.68
50.46
6.74
-52.83
-115.07
-165.30
-191.82
-189.14
-158.49
-106.74
-44.07
18.38
70.34
104.15
116.44
108.98
88.09
62.45
39.72
23.79
13.92
6.31
-2.77
-14.16
-24.93
-29.85
-24.08
-5.93
22.28
55.23
86.87
112.52
129.83
138.06
136.64
124.21
98.72
58.85
5.50
-57.95
-126.42
-195.01
-260.30
-320.26
-372.85
-414.90
-441.96
-449.82
-436.62
-404.25
-358.04
-304.90
-250.92
-199.77
-152.59
-109.09
-68.75
-31.44
2.75
34.17
63.83
93.15
123.53
155.91
190.77
228.15
267.61
307.99
347.20
382.37
410.43
428.90
436.32
432.33
417.31
392.02
357.63
315.93
269.50
221.41
174.53
130.71
90.48
53.40
18.76
-13.59
-43.06
-68.54
-88.84
-103.06
-110.86
-112.63
-109.51
-103.39
-96.59
-91.33
-89.10
-90.19
-93.72
-98.12
-101.82
-103.81
-103.75
-101.73
-97.96
-92.52
-85.37
-76.60
-66.64
-56.27
-46.37
-37.67
-30.48
-24.68
-19.93
-15.92
-12.50
-9.67
-7.44
-5.75
-4.39
-3.14
-1.87
-0.56
0.75
2.02
3.28
4.65
6.32
8.42
10.95
13.63
15.95
17.19
16.60
13.75
8.61
1.64
-6.37
-14.56
-22.15
-28.51
-33.09
-35.31
-34.66
-30.87
-24.18
-15.44
-6.00
2.67
9.43
13.84
16.24
17.57
19.07
21.88
26.77
33.94
42.95
52.81
62.28
70.33
76.57
81.46
86.09
91.61
98.56
106.46
114.11
120.12
123.71
124.99
124.84
124.46
124.78
126.21
128.27
129.28
126.36
116.02
95.38
63.79
23.90
-18.42
-55.78
-81.87
-93.87
-93.53
-86.56
-80.76
-83.67
-100.39
-132.12
-175.78
-224.58
-269.90
-303.86
-321.68
-322.87
-310.79
-290.58
-267.02
-243.18
-220.54
-199.97
-182.78
-170.70
-164.89
-164.84
-167.94
-170.32
-168.55
-161.15
-149.00
-134.57
-120.34
-107.33
-94.51
-79.25
-58.63
-30.82
4.03
43.66
84.45
122.56
155.02
180.49
199.28
212.76
222.52
229.57
233.97
234.98
231.59
223.11
209.45
191.13
168.97
143.92
116.96
89.18
61.85
36.40
14.19
-3.80
-17.23
-26.43
-32.25
-35.79
-38.10
-40.03
-42.07
-44.25
-46.23
-47.28
-46.60
-43.55
-37.88
-29.88
-20.25
-9.92
0.19
9.31
16.96
22.87
27.00
29.43
30.37
30.13
29.08
27.60
26.03
24.63
23.46
22.48
21.59
20.67
19.74
18.84
17.99
17.17
16.26
15.13
13.72
12.09
10.38
8.71
7.06
5.35
3.47
1.41
-0.73
-2.78
-4.62
-6.21
-7.59
-8.88
-10.14
-11.41
-12.73
-14.11
-15.58
-17.13
-18.68
-19.98
-20.74
-20.58
-19.18
-16.38
-12.19
-6.86
-0.83
5.33
11.03
15.78
19.30
21.56
22.76
23.23
23.32
23.32
23.37
23.54
23.82
24.24
24.74
25.28
25.71
25.82
25.46
24.57
23.20
21.50
19.57
17.44
15.09
12.51
9.75
6.91
4.14
1.55
-0.74
-2.54
-3.60
-3.61
-2.38
0.00
3.15
6.41
9.08
10.67
11.04
10.42
9.23
7.93
6.83
6.07
5.62
5.41
5.34
5.33
5.26
5.00
4.48
3.77
3.05
2.67
2.90
3.85
5.42
7.34
9.31
11.06
12.36
12.99
12.69
11.24
8.63
5.14
1.30
-2.29
-5.19
-7.27
-8.72
-9.88
-11.04
-12.37
-13.94
-15.79
-17.99
-20.58
-23.47
-26.48
-29.36
-31.98
-34.43
-36.98
-39.85
-43.00
-45.97
-48.02
-48.37
-46.55
-42.53
-36.79
-30.07
-23.21
-16.84
-11.32
-6.69
-2.71
1.07
5.16
10.00
15.81
22.49
29.70
36.93
43.68
49.50
54.07
57.15
58.54
58.26
56.57
54.15
51.90
50.77
51.37
53.76
57.45
61.58
65.15
67.31
67.41
65.08
60.22
53.11
44.33
34.74
25.22
16.48
8.96
2.81
-1.96
-5.24
-6.79
-6.23
-3.18
2.48
10.54
20.44
31.30
42.15
52.10
60.49
67.01
71.72
74.91
76.96
78.26
79.19
80.09
81.19
82.45
83.30
82.63
79.03
71.37
59.39
44.01
27.11
10.77
-3.53
-15.54
-26.15
-36.85
-48.90
-62.69
-77.41
-91.15
-101.49
-106.21
-104.01
-95.02
-80.96
-64.79
-50.06
-40.04
-36.93
-41.17
-51.24
-64.04
-75.68
-82.78
-83.61
-78.62
-70.08
-60.86
-53.10
-47.30
-42.45
-36.87
-29.38
-19.87
-9.13
1.70
11.82
21.02
29.48
37.31
44.34
50.13
54.17
56.10
55.70
52.87
47.63
40.11
30.72
20.33
10.15
1.62
-3.88
-5.36
-2.38
4.80
15.18
27.18
38.71
47.71
52.47
52.12
46.83
37.74
26.65
15.48
5.70
-2.09
-8.28
-14.07
-20.82
-29.46
-39.97
-51.19
-61.25
-68.30
-71.27
-70.26
-66.55
-61.88
-57.80
-55.06
-53.53
-52.47
-51.19
-49.46
-47.68
-46.59
-46.76
-48.22
-50.34
-52.12
-52.62
-51.34
-48.32
-43.94
-38.74
-33.23
-27.87
-23.12
-19.41
-17.03
-15.92
-15.68
-15.56
-14.81
-12.93
-9.92
-6.27
-2.69
0.08
1.60
1.83
1.08
-0.17
-1.47
-2.50
-3.06
-3.05
-2.37
-0.99
0.92
2.92
4.40
4.77
3.76
1.57
-1.21
-3.80
-5.59
-6.32
-6.09
-5.26
-4.25
-3.39
-2.89
-2.75
-2.83
-2.81
-2.28
-0.81
1.84
5.65
10.20
14.86
18.86
21.62
22.84
22.58
21.13
18.86
16.06
12.85
9.27
5.32
1.12
-3.02
-6.72
-9.59
-11.44
-12.38
-12.84
-13.37
-14.49
-16.45
-19.25
-22.66
-26.45
-30.46
-34.62
-38.84
-42.91
-46.50
-49.19
-50.64
-50.67
-49.29
-46.67
-43.08
-38.88
-34.52
-30.45
-27.08
-24.64
-23.11
-22.23
-21.59
-20.74
-19.33
-17.17
-14.26
-10.82
-7.23
-3.93
-1.31
0.39
1.17
1.23
0.90
0.53
0.41
0.70
1.39
2.35
3.39
4.32
4.98
5.24
5.01
4.19
2.76
0.83
-1.26
-3.03
-3.99
-3.85
-2.65
-0.73
1.36
3.16
4.42
5.24
6.08
7.54
10.21
14.34
19.68
25.55
30.93
34.98
37.27
37.94
37.58
36.83
36.10
35.43
34.61
33.43
31.90
30.21
28.64
27.37
26.37
25.46
24.37
22.93
21.10
19.00
16.83
14.78
12.99
11.45
10.11
8.83
7.55
6.25
5.02
3.94
3.10
2.52
2.12
1.80
1.43
0.88
0.04
-1.19
-2.89
-5.03
-7.51
-10.09
-12.41
-14.06
-14.72
-14.19
-12.52
-9.96
-6.90
-3.75
-0.85
1.58
3.47
4.81
5.64
6.00
5.95
5.61
5.20
4.99
5.17
5.80
6.74
7.73
8.48
8.84
8.85
8.64
8.39
8.18
7.98
7.70
7.25
6.59
5.73
4.69
3.52
2.35
1.32
0.61
0.28
0.21
0.07
-0.53
-1.87
-3.98
-6.55
-9.06
-10.97
-11.92
-11.82
-10.80
-9.12
-7.03
-4.78
-2.53
-0.44
1.32
2.59
3.27
3.37
3.02
2.49
2.09
2.06
2.52
3.37
4.38
5.27
5.83
5.98
5.79
5.41
4.96
4.52
4.03
3.31
2.18
0.50
-1.75
-4.45
-7.40
-10.40
-13.32
-16.08
-18.65
-21.03
-23.28
-25.49
-27.86
-30.64
-33.95
-37.80
-42.04
-46.50
-51.14
-56.14
-61.79
-68.53
-76.77
-86.87
-99.02
-113.13
-128.70
-144.82
-160.45
-174.65
-186.93
-197.26
-205.95
-213.33
-219.43
-223.78
-225.40
-222.96
-215.07
-200.67
-179.41
-151.95
-120.01
-85.96
-52.15
-20.25
9.15
36.36
62.10
86.89
110.72
133.15
153.70
172.28
189.39
206.23
224.51
246.43
274.25
309.49
351.86
398.17
442.39
476.93
495.00
493.09
472.08
436.89
394.49
351.65
313.47
282.59
259.36
242.18
228.15
213.95
196.86
175.65
150.83
124.28
98.23
74.45
53.96
37.07
23.58
12.69
2.84
-8.22
-22.75
-41.85
-64.64
-88.33
-109.29
-124.63
-133.23
-135.83
-134.25
-130.24
-124.91
-118.32
-110.03
-99.53
-86.65
-71.75
-55.68
-39.45
-24.06
-10.24
1.57
11.30
19.11
25.34
30.39
34.61
38.22
41.23
43.39
44.26
43.23
39.69
33.18
23.62
11.44
-2.39
-16.58
-29.79
-40.98
-49.64
-55.85
-60.10
-63.10
-65.49
-67.73
-70.10
-72.71
-75.53
-78.39
-81.04
-83.20
-84.71
-85.61
-86.11
-86.50
-87.02
-87.84
-89.06
-90.64
-92.47
-94.32
-95.83
-96.62
-96.38
-94.96
-92.47
-89.12
-85.12
-80.59
-75.61
-70.30
-64.97
-60.02
-55.81
-52.49
-49.94
-47.83
-45.80
-43.63
-41.35
-39.22
-37.64
-36.97
-37.35
-38.58
-40.17
-41.50
-42.01
-41.41
-39.73
-37.24
-34.31
-31.23
-28.12
-24.93
-21.53
-17.83
-13.81
-9.59
-5.37
-1.46
1.80
4.17
5.56
6.13
6.18
6.00
5.63
4.87
3.37
0.89
-2.48
-6.16
-9.34
-11.23
-11.43
-10.07
-7.81
-5.57
-4.19
-4.15
-5.38
-7.32
-9.18
-10.34
-10.60
-10.40
-10.60
-11.94
-14.66
-18.29
-21.75
-23.83
-23.82
-21.81
-18.70
-16.09
-16.01
-20.72
-32.37
-52.61
-81.93
-119.16
-161.17
-203.38
-240.85
-269.66
-287.85
-295.46
-293.74
-284.11
-267.53
-244.66
-216.25
-183.83
-149.64
-116.07
-84.80
-56.12
-28.64
0.51
34.67
75.89
123.36
172.55
215.75
244.34
251.75
235.67
198.33
144.87
81.10
12.41
-55.94
-117.74
-165.52
-192.13
-193.64
-171.63
-133.22
-88.56
-46.82
-13.14
12.14
31.85
49.85
69.03
90.75
115.01
140.71
165.92
187.96
203.97
211.90
211.21
203.08
189.78
173.73
156.66
139.56
123.13
108.26
96.10
87.56
82.82
81.10
81.07
81.64
82.61
84.73
89.20
96.97
107.98
121.02
133.99
144.54
150.81
151.91
148.01
140.03
129.17
116.40
102.42
87.82
73.48
60.77
51.25
45.91
44.27
43.87
40.55
29.51
6.65
-30.10
-79.83
-138.35
-198.46
-251.06
-286.93
-298.89
-283.70
-243.02
-182.97
-112.37
-40.42
25.36
80.10
121.52
149.21
163.91
167.24
161.85
151.37
139.99
131.47
127.99
129.49
133.73
137.32
137.20
131.97
122.30
110.27
98.15
87.09
76.66
65.35
51.73
35.50
17.78
0.34
-15.29
-28.71
-40.59
-52.17
-64.62
-78.48
-93.68
-109.89
-126.95
-144.84
-163.38
-181.76
-198.31
-210.88
-217.62
-218.04
-213.37
-206.24
-199.60
-195.59
-194.80
-196.41
-199.01
-201.42
-203.07
-203.56
-202.04
-196.80
-185.49
-165.92
-136.81
-98.27
-51.87
-0.61
51.42
99.65
140.03
170.23
190.61
204.08
214.67
225.55
237.40
248.24
254.57
253.47
244.17
228.19
208.38
187.49
167.18
148.11
130.49
114.70
101.39
91.01
83.27
77.03
70.61
62.43
51.46
37.52
21.15
3.57
-13.47
-27.88
-37.60
-41.24
-38.72
-31.70
-23.24
-16.95
-15.80
-20.96
-31.18
-43.14
-52.60
-56.01
-51.80
-40.80
-25.79
-10.21
3.15
12.91
19.05
22.25
23.15
21.98
18.80
13.86
7.85
1.70
-3.86
-8.86
-14.05
-20.61
-29.41
-40.45
-52.59
-63.80
-71.80
-74.86
-72.39
-65.08
-54.53
-42.69
-31.21
-21.00
-12.33
-5.16
0.49
4.32
5.99
5.46
3.27
0.54
-1.45
-1.75
-0.13
2.99
6.75
10.42
13.57
16.25
18.69
21.01
23.04
24.31
24.27
22.50
19.02
14.34
9.32
4.93
1.89
0.46
0.35
0.90
1.35
1.11
-0.09
-2.21
-4.98
-8.06
-11.12
-13.90
-16.25
-18.15
-19.69
-21.06
-22.38
-23.72
-25.10
-26.55
-28.14
-29.94
-31.96
-33.95
-35.54
-36.26
-35.77
-34.00
-31.22
-27.90
-24.52
-21.39
-18.50
-15.60
-12.32
-8.41
-3.96
0.62
4.70
7.75
9.51
10.16
10.16
10.04
10.11
10.32
10.36
9.86
8.71
7.09
5.52
4.58
4.66
5.80
7.63
9.68
11.62
13.53
15.89
19.30
24.17
30.41
37.38
44.14
49.83
53.93
56.39
57.44
57.52
57.18
57.38
59.59
65.49
76.35
92.06
110.45
127.45
138.17
138.37
125.91
101.25
67.21
28.12
-11.07
-45.66
-71.78
-87.03
-91.05
-85.89
-76.01
-67.79
-68.47
-84.61
-120.00
-173.82
-239.68
-306.50
-361.32
-393.33
-397.43
-375.46
-334.73
-284.25
-231.22
-179.22
-128.91
-80.09
-33.60
8.34
43.25
69.92
89.24
103.69
116.00
127.83
139.30
149.26
156.26
159.53
159.31
156.60
152.33
146.50
138.01
125.31
107.85
87.43
68.34
56.01
54.81
66.12
87.91
115.98
146.09
175.54
203.38
229.37
252.49
270.40
279.94
278.41
264.79
240.03
206.48
166.99
123.98
78.77
31.51
-18.32
-70.83
-124.48
-175.41
-218.06
-247.08
-259.32
-255.29
-238.69
-214.50
-186.87
-158.24
-130.20
-105.01
-86.53
-79.12
-85.35
-103.69
-128.23
-150.85
-164.63
-166.59
-158.31
-144.18
-128.90
-115.28
-103.83
-93.65
-83.75
-73.90
-64.50
-56.03
-48.55
-41.89
-36.01
-31.20
-27.90
-26.23
-25.55
-24.76
-23.20
-21.37
-21.02
-24.27
-32.17
-43.81
-56.46
-66.76
-72.31
-72.66
-69.03
-63.20
-56.32
-48.60
-40.04
-31.37
-24.48
-21.74
-24.64
-32.54
-42.50
-50.31
-52.10
-45.81
-31.59
-11.30
12.59
37.88
63.03
87.00
108.99
128.29
144.24
156.28
163.96
166.99
165.34
159.50
150.82
141.46
134.10
131.07
133.44
140.50
149.88
158.34
162.94
161.96
155.17
143.62
129.03
113.44
98.87
87.31
80.35
78.64
81.34
86.29
90.97
93.88
95.38
97.13
100.62
105.27
107.83
103.39
87.50
58.17
16.46
-34.22
-89.59
-145.55
-198.41
-244.63
-280.72
-303.85
-312.77
-308.70
-295.14
-276.83
-258.35
-242.92
-231.85
-224.76
-220.04
-215.64
-209.80
-201.50
-190.77
-178.58
-166.48
-156.07
-148.49
-144.21
-142.86
-143.18
-143.09
-139.87
-130.70
-113.25
-86.47
-51.11
-9.85
33.30
73.84
108.00
133.82
151.70
164.25
175.29
188.42
205.50
225.87
246.62
263.78
273.97
275.69
269.78
258.68
245.22
231.31
217.45
203.08
187.66
171.38
155.35
141.00
129.12
119.18
109.26
96.58
78.62
54.31
24.69
-7.03
-36.35
-58.90
-71.98
-75.48
-71.69
-64.18
-56.20
-49.62
-44.84
-41.62
-40.21
-41.72
-47.57
-58.41
-73.17
-89.03
-102.27
-109.58
-109.13
-101.03
-87.08
-70.06
-52.96
-38.25
-27.60
-21.62
-19.91
-21.14
-23.38
-24.55
-22.95
-17.84
-9.63
0.29
10.14
18.44
24.56
28.70
31.44
33.05
33.12
30.60
24.40
14.06
0.27
-15.22
-30.04
-42.12
-50.51
-55.73
-59.47
-63.74
-69.90
-77.97
-86.85
-94.94
-101.00
-104.49
-105.29
-103.19
-97.56
-87.56
-72.76
-53.76
-32.34
-10.90
8.42
24.37
36.75
45.95
52.38
56.03
56.50
53.32
46.46
36.61
25.26
14.41
6.18
2.27
3.57
9.84
19.73
31.21
42.13
50.89
56.80
59.93
60.66
59.28
55.84
50.49
43.94
37.64
33.47
33.04
36.90
44.36
53.75
63.16
71.02
76.26
78.27
76.75
71.78
64.02
54.79
45.69
37.82
31.24
24.82
17.03
7.13
-3.89
-13.26
-17.39
-13.21
0.76
24.07
54.71
89.66
125.40
158.37
185.44
204.25
213.67
213.67
204.75
187.24
160.85
124.57
77.31
18.84
-48.98
-121.34
-190.81
-248.58
-286.92
-301.49
-292.61
-264.51
-222.84
-172.13
-115.00
-53.56
7.85
61.15
95.81
102.67
77.99
25.25
-46.19
-124.55
-198.88
-260.55
-303.00
-321.71
-314.83
-284.70
-238.50
-186.73
-139.39
-102.03
-73.95
-49.81
-23.80
6.60
39.11
68.54
90.29
103.23
109.99
114.92
121.18
128.93
135.54
137.69
133.64
124.20
112.26
101.07
92.83
88.24
87.07
89.08
94.33
102.67
113.04
123.15
129.97
130.96
125.18
113.62
98.75
83.45
70.13
60.32
54.78
53.69
56.73
62.71
69.22
72.82
69.84
57.71
36.19
7.74
-23.21
-51.66
-73.59
-86.86
-91.08
-86.93
-75.30
-57.00
-33.14
-5.65
22.37
47.15
65.32
75.18
77.15
73.51
67.39
61.61
57.81
56.03
54.97
52.46
46.24
34.73
17.72
-3.41
-25.96
-46.79
-63.21
-73.82
-78.71
-79.13
-76.91
-73.91
-71.74
-71.68
-74.60
-80.68
-89.05
-97.61
-103.37
-103.26
-95.23
-79.21
-57.27
-33.05
-10.43
7.70
20.35
28.34
33.60
38.05
42.81
47.88
52.50
55.77
57.16
56.72
54.89
52.24
49.23
46.22
43.58
41.71
40.99
41.56
43.12
44.96
46.11
45.78
43.75
40.50
37.12
34.98
35.19
38.21
43.51
49.50
53.80
53.70
46.95
32.47
10.88
-15.41
-42.72
-66.98
-84.82
-94.43
-95.89
-90.94
-82.20
-72.32
-63.29
-56.10
-50.90
-47.37
-44.94
-43.05
-41.01
-37.99
-33.07
-25.36
-14.26
0.43
18.37
38.81
60.56
82.12
101.80
118.02
129.73
136.77
139.98
141.06
142.04
144.70
150.06
158.13
167.93
177.74
185.46
189.00
186.48
176.55
158.57
132.89
100.97
65.33
29.23
-4.02
-31.84
-53.08
-68.23
-79.05
-87.67
-95.81
-104.07
-112.07
-118.89
-123.76
-126.54
-127.79
-128.44
-129.39
-131.14
-133.74
-136.83
-139.96
-142.71
-144.76
-145.92
-146.14
-145.50
-144.20
-142.52
-140.66
-138.60
-136.06
-132.53
-127.57
-121.01
-113.13
-104.61
-96.28
-88.74
-82.13
-76.10
-70.10
-63.76
-57.24
-51.18
-46.52
-44.00
-43.80
-45.50
-48.12
-50.33
-50.66
-47.68
-40.30
-28.16
-11.98
6.37
24.25
39.01
48.89
53.54
53.99
52.02
49.34
46.87
44.55
41.59
37.04
30.34
21.60
11.58
1.39
-7.84
-15.34
-20.88
-24.75
-27.71
-30.70
-34.62
-40.09
-47.26
-55.86
-65.19
-74.38
-82.54
-88.99
-93.47
-96.15
-97.58
-98.49
-99.40
-100.21
-100.02
-97.36
-90.70
-79.20
-63.18
-44.16
-24.31
-5.80
9.91
22.20
31.19
37.32
41.08
42.90
43.12
42.19
40.54
38.50
36.18
33.43
29.98
25.60
20.33
14.44
8.39
2.71
-2.22
-6.15
-9.06
-11.07
-12.29
-12.79
-12.45
-11.11
-8.59
-4.89
-0.08
5.72
12.56
20.68
30.35
41.66
54.29
67.57
80.72
93.21
104.83
115.61
125.50
134.11
140.68
144.39
144.67
141.33
134.55
124.74
112.48
98.46
83.53
68.63
54.63
42.06
31.17
21.98
14.54
9.00
5.51
3.97
3.86
4.42
4.83
4.62
3.80
2.73
1.90
1.60
1.89
2.59
3.44
4.22
4.81
5.29
5.83
6.57
7.44
8.18
8.34
7.43
5.22
1.76
-2.63
-7.70
-13.40
-19.97
-27.56
-35.97
-44.34
-51.35
-55.55
-55.81
-51.62
-43.10
-31.00
-16.61
-1.66
11.96
22.75
30.11
34.78
38.65
43.87
51.78
62.12
73.01
81.77
86.19
85.39
80.15
72.39
64.35
57.76
53.53
51.71
51.71
52.66
53.64
53.85
52.83
50.53
47.24
43.35
38.99
33.69
26.42
15.93
1.48
-16.47
-36.00
-54.11
-67.71
-74.65
-74.39
-67.91
-57.12
-44.06
-30.48
-17.73
-6.92
1.00
5.34
5.81
2.70
-3.29
-11.20
-19.97
-28.51
-35.72
-40.61
-42.48
-41.22
-37.32
-31.70
-25.31
-18.89
-12.91
-7.63
-3.23
0.19
2.71
4.71
6.72
9.31
12.86
17.42
22.76
28.36
33.55
37.61
39.96
40.35
38.99
36.53
33.91
31.98
31.29
31.91
33.56
35.77
38.06
40.15
41.93
43.46
44.92
46.44
48.05
49.53
50.51
50.54
49.37
47.01
43.81
40.31
37.04
34.41
32.62
31.74
31.73
32.50
33.81
35.34
36.76
37.86
38.66
39.41
40.45
41.92
43.63
45.03
45.51
44.73
42.86
40.56
38.65
37.76
37.93
38.59
38.84
37.68
34.30
28.27
19.59
8.61
-3.88
-16.82
-29.05
-39.66
-48.19
-54.79
-60.04
-64.71
-69.50
-74.90
-81.09
-87.95
-94.99
-101.45
-106.39
-108.99
-108.95
-106.73
-103.51
-100.84
-100.08
-101.86
-105.95
-111.37
-116.85
-121.28
-123.98
-124.67
-123.33
-120.00
-114.71
-107.63
-99.11
-89.74
-80.11
-70.64
-61.40
-52.27
-43.15
-34.24
-26.05
-19.23
-14.15
-10.68
-8.23
-5.92
-3.12
0.37
4.18
7.68
10.22
11.51
11.64
10.96
9.88
8.59
7.07
5.16
2.69
-0.33
-3.79
-7.49
-11.23
-14.82
-18.01
-20.37
-21.31
-20.27
-16.88
-11.20
-3.73
4.69
13.17
20.99
27.76
33.45
38.27
42.57
46.73
51.06
55.74
60.77
65.93
70.88
75.18
78.49
80.60
81.43
81.01
79.43
76.82
73.41
69.59
65.79
62.37
59.44
56.80
53.99
50.45
45.79
39.95
33.22
26.22
19.62
13.96
9.48
6.06
3.33
0.87
-1.59
-4.06
-6.36
-8.26
-9.72
-10.98
-12.61
-15.32
-19.85
-26.73
-36.14
-47.84
-61.20
-75.22
-88.67
-100.26
-108.82
-113.48
-113.86
-110.12
-103.02
-93.71
-83.51
-73.52
-64.39
-56.25
-48.80
-41.60
-34.29
-26.75
-19.05
-11.41
-4.01
2.95
9.31
14.90
19.56
23.24
25.98
27.84
28.85
28.93
27.92
25.73
22.49
18.63
14.73
11.39
8.95
7.47
6.71
6.31
5.94
5.37
4.47
3.21
1.57
-0.42
-2.72
-5.23
-7.76
-10.08
-11.98
-13.28
-13.98
-14.22
-14.27
-14.52
-15.31
-16.95
-19.56
-22.99
-26.74
-30.07
-32.09
-32.11
-29.79
-25.28
-19.11
-12.00
-4.65
2.40
8.83
14.53
19.52
23.90
27.81
31.41
34.79
37.99
40.97
43.67
46.03
47.96
49.28
49.72
48.88
46.32
41.69
34.82
25.83
15.11
3.36
-8.54
-19.60
-28.81
-35.38
-38.86
-39.34
-37.47
-34.36
-31.30
-29.46
-29.55
-31.74
-35.59
-40.24
-44.62
-47.71
-48.86
-48.11
-46.37
-45.21
-46.34
-50.88
-58.82
-69.05
-79.89
-89.89
-98.49
-105.94
-112.87
-119.55
-125.59
-130.01
-131.69
-129.76
-123.66
-113.02
-97.45
-76.83
-51.67
-23.56
4.99
31.28
53.32
70.63
84.22
96.02
107.83
120.60
134.13
147.45
159.40
169.10
176.18
180.65
182.58
181.87
178.26
171.42
161.27
148.23
133.17
117.33
101.89
87.83
75.75
66.00
58.82
54.40
52.74
53.45
55.60
57.76
58.45
56.60
51.85
44.56
35.51
25.55
15.35
5.40
-3.89
-12.04
-18.64
-23.45
-26.67
-28.90
-31.00
-33.77
-37.59
-42.31
-47.29
-51.69
-54.78
-56.20
-56.04
-54.78
-52.99
-50.98
-48.61
-45.18
-39.80
-31.71
-20.68
-7.17
7.80
22.99
37.30
49.98
60.71
69.40
75.95
80.19
81.85
80.85
77.53
72.75
67.74
63.72
61.48
61.05
61.81
62.84
63.28
62.72
61.17
58.90
56.27
53.72
51.68
50.49
50.15
50.10
49.25
46.39
40.83
32.80
23.48
14.40
6.72
0.72
-4.16
-8.82
-13.85
-19.21
-24.38
-28.73
-31.97
-34.21
-35.83
-37.24
-38.68
-40.21
-41.85
-43.59
-45.44
-47.33
-49.13
-50.62
-51.57
-51.78
-51.06
-49.23
-46.13
-41.69
-36.03
-29.55
-22.91
-16.92
-12.32
-9.58
-8.77
-9.61
-11.53
-13.99
-16.49
-18.79
-20.75
-22.33
-23.49
-24.19
-24.40
-24.17
-23.67
-23.08
-22.57
-22.22
-22.01
-21.85
-21.60
-21.17
-20.53
-19.78
-19.04
-18.48
-18.21
-18.20
-18.28
-18.22
-17.84
-17.07
-16.10
-15.22
-14.78
-15.04
-16.11
-17.87
-20.08
-22.41
-24.63
-26.65
-28.48
-30.15
-31.53
-32.31
-32.05
-30.47
-27.64
-24.04
-20.40
-17.43
-15.54
-14.75
-14.76
-15.16
-15.65
-16.12
-16.59
-17.17
-17.95
-19.00
-20.30
-21.74
-23.06
-23.93
-23.96
-22.93
-20.94
-18.52
-16.48
-15.71
-16.73
-19.46
-23.13
-26.60
-28.89
-29.80
-30.14
-31.41
-35.08
-41.80
-50.88
-60.36
-67.53
-69.63
-64.39
-50.32
-26.97
4.87
43.03
84.15
124.14
159.07
186.00
203.53
211.64
211.24
203.43
188.86
167.70
140.17
107.46
72.35
38.80
10.82
-9.19
-21.60
-29.53
-37.46
-48.87
-64.28
-80.71
-93.08
-96.85
-90.30
-75.46
-56.95
-39.76
-27.13
-19.62
-15.75
-13.47
-11.51
-10.03
-10.03
-12.38
-16.76
-21.72
-25.39
-26.47
-24.92
-21.89
-19.18
-18.30
-19.84
-23.26
-27.26
-30.44
-31.93
-31.70
-30.54
-29.53
-29.62
-31.15
-33.76
-36.69
-39.14
-40.65
-41.25
-41.35
-41.51
-42.11
-43.17
-44.39
-45.28
-45.39
-44.48
-42.54
-39.77
-36.40
-32.64
-28.62
-24.44
-20.17
-15.94
-11.92
-8.26
-5.13
-2.62
-0.78
0.42
1.18
1.74
2.39
3.37
4.77
6.49
8.27
9.78
10.74
11.03
10.63
9.66
8.28
6.61
4.80
2.91
1.01
-0.86
-2.69
-4.42
-6.03
-7.50
-8.88
-10.29
-11.91
-13.88
-16.24
-18.85
-21.31
-23.07
-23.57
-22.45
-19.66
-15.48
-10.43
-5.10
0.04
4.71
8.74
12.04
14.49
16.00
16.62
16.56
16.23
16.06
16.37
17.19
18.28
19.29
19.93
20.21
20.35
20.77
21.72
23.18
24.80
25.99
26.28
25.44
23.68
21.50
19.48
18.01
17.10
16.37
15.20
12.96
9.28
4.26
-1.68
-7.94
-14.05
-19.81
-25.29
-30.48
-35.01
-38.02
-38.21
-34.36
-25.86
-13.13
2.07
16.94
28.13
32.60
28.44
15.57
-4.13
-27.23
-49.70
-67.95
-79.87
-85.14
-85.10
-82.25
-79.33
-78.25
-79.23
-80.38
-78.52
-70.58
-55.37
-34.51
-12.10
7.12
19.92
26.29
29.49
34.54
45.91
65.40
91.46
119.98
146.01
165.50
176.20
177.68
170.59
156.27
136.49
113.74
91.26
72.64
60.59
55.78
56.62
59.90
62.35
61.90
57.97
51.00
41.73
31.16
21.02
14.24
14.39
24.12
43.11
66.99
88.11
98.07
90.93
65.35
24.87
-23.86
-73.52
-118.09
-153.47
-176.79
-185.61
-177.71
-151.99
-109.77
-55.69
2.77
57.02
99.82
127.28
139.64
140.64
135.89
131.02
130.17
135.34
146.50
162.34
181.11
201.34
221.83
241.33
258.10
269.89
274.55
270.95
259.54
242.21
221.26
198.35
173.92
147.48
118.60
87.85
56.95
28.10
2.90
-18.54
-37.69
-57.06
-79.25
-106.28
-139.08
-177.30
-219.09
-261.03
-298.43
-326.26
-340.45
-339.14
-323.30
-296.38
-263.04
-227.65
-193.13
-160.70
-130.17
-100.67
-71.25
-41.26
-10.40
21.31
53.54
85.53
116.12
143.78
166.84
183.98
194.61
199.14
198.86
195.39
189.83
182.35
172.04
157.44
137.24
110.64
77.17
36.24
-12.70
-69.16
-129.98
-188.28
-234.21
-257.63
-252.06
-217.79
-162.46
-98.59
-39.09
6.93
36.16
50.45
54.34
52.37
47.74
42.31
37.54
35.13
36.87
43.95
56.18
71.79
87.79
100.91
108.26
107.82
98.61
80.76
55.46
24.76
-8.82
-42.71
-74.69
-103.08
-126.86
-145.79
-160.60
-173.22
-186.36
-202.67
-223.18
-246.08
-266.61
-278.23
-274.71
-252.17
-210.21
-151.75
-82.43
-9.63
58.09
111.73
142.92
145.50
117.65
63.66
-5.51
-74.51
-128.04
-155.76
-155.81
-134.26
-101.31
-66.06
-32.83
-0.89
32.57
68.53
104.13
133.59
151.40
155.35
147.36
132.00
113.58
93.88
71.79
44.53
9.35
-34.67
-85.95
-140.43
-192.58
-237.02
-269.92
-289.71
-296.90
-293.30
-281.00
-261.98
-238.02
-210.74
-181.39
-150.56
-118.04
-83.45
-47.49
-12.91
15.78
33.80
38.40
30.40
14.15
-4.24
-19.26
-27.79
-29.53
-26.16
-20.06
-13.29
-7.06
-1.56
4.02
11.18
21.40
35.20
51.41
67.24
79.64
87.20
91.35
96.25
106.76
125.81
152.51
181.92
206.55
218.82
213.18
187.36
143.02
85.57
23.42
-33.44
-75.80
-97.70
-98.28
-81.95
-56.70
-31.12
-11.47
-0.16
4.09
4.67
5.04
7.39
12.08
18.11
23.89
27.98
29.47
28.09
24.07
18.02
10.87
3.64
-2.67
-7.48
-10.72
-13.01
-15.41
-19.06
-24.73
-32.19
-40.02
-45.76
-46.57
-40.24
-26.22
-6.12
16.29
35.90
47.63
48.06
36.83
17.17
-4.81
-22.09
-29.17
-24.11
-9.14
10.42
28.34
39.83
42.92
38.51
29.25
18.21
7.74
-0.83
-7.02
-10.81
-12.16
-10.74
-6.06
2.06
12.99
24.85
34.74
39.38
36.16
24.15
4.65
-18.71
-40.45
-54.26
-54.61
-38.71
-8.32
29.84
65.44
87.90
90.35
72.43
40.54
5.11
-23.42
-38.64
-39.91
-31.61
-20.51
-12.60
-10.82
-14.40
-19.90
-23.24
-21.53
-14.27
-3.20
8.56
17.97
23.01
23.22
19.33
12.73
4.74
-3.57
-11.36
-17.78
-21.84
-22.68
-20.03
-14.59
-7.84
-1.46
3.66
8.13
13.77
22.71
35.80
51.59
66.45
76.11
77.64
71.01
59.27
47.26
39.47
38.09
41.92
46.83
47.41
39.34
21.57
-2.64
-26.46
-41.82
-42.53
-26.92
1.29
34.10
62.02
77.19
75.62
57.94
28.64
-5.33
-36.23
-56.98
-62.76
-52.70
-30.62
-4.29
17.23
27.04
23.05
8.37
-10.57
-27.18
-37.26
-39.82
-36.10
-27.86
-16.28
-2.06
13.44
27.41
35.81
35.01
23.47
2.84
-22.49
-46.98
-65.82
-76.33
-78.39
-73.74
-64.70
-52.96
-39.21
-23.57
-6.51
10.25
23.64
30.11
27.21
15.03
-3.23
-22.02
-35.36
-38.86
-31.24
-14.47
7.15
28.51
45.20
54.53
55.93
50.72
41.61
31.93
24.73
21.96
23.92
29.43
36.42
42.95
47.88
51.11
53.08
53.99
53.30
49.60
41.57
28.98
13.61
-0.93
-10.49
-12.47
-7.41
0.85
6.60
4.87
-6.25
-24.40
-43.57
-56.35
-56.78
-42.91
-17.90
10.69
33.39
42.09
33.06
8.33
-25.07
-57.64
-80.79
-89.56
-83.82
-67.47
-46.47
-26.40
-10.71
-0.04
7.24
13.67
21.09
29.63
37.57
42.43
42.32
37.15
28.72
20.00
13.91
12.26
15.42
22.45
31.50
39.91
44.38
41.46
28.58
5.39
-25.37
-57.93
-85.19
-101.25
-103.57
-93.98
-77.83
-61.69
-50.76
-47.14
-49.46
-54.12
-57.25
-56.50
-51.77
-44.75
-37.50
-31.04
-24.64
-16.25
-3.88
12.86
32.00
49.69
61.77
65.70
61.80
53.06
43.65
37.01
34.53
35.58
38.57
42.32
46.76
52.49
59.79
67.61
73.54
74.69
69.09
56.87
40.53
24.33
12.83
9.14
13.46
22.60
30.93
32.53
23.70
4.74
-19.94
-43.54
-59.41
-63.41
-55.08
-37.40
-15.66
4.18
16.99
19.64
11.66
-4.77
-25.40
-45.19
-59.73
-66.44
-65.10
-57.46
-46.30
-34.25
-22.75
-11.70
0.24
14.49
31.31
48.90
63.59
71.12
68.55
55.66
35.13
11.47
-10.74
-28.24
-39.64
-45.15
-45.98
-43.82
-40.63
-38.36
-38.41
-40.90
-44.33
-45.87
-42.52
-32.56
-16.46
3.19
22.71
38.68
48.93
52.75
50.59
43.47
32.59
19.28
4.95
-8.90
-20.68
-28.87
-32.03
-29.16
-20.11
-6.17
9.79
23.75
31.75
31.49
23.27
9.94
-4.38
-16.07
-23.32
-26.47
-27.13
-26.83
-26.00
-23.97
-19.66
-12.62
-3.39
6.78
16.64
25.47
32.86
38.29
40.68
38.76
31.85
20.72
7.84
-3.18
-8.86
-7.28
1.04
13.16
24.67
31.15
29.65
19.69
3.29
-15.73
-33.10
-45.29
-50.41
-48.44
-41.05
-31.00
-21.38
-14.89
-12.96
-15.35
-20.21
-24.93
-27.27
-26.33
-22.73
-18.10
-14.10
-11.60
-10.55
-10.20
-9.69
-8.39
-5.99
-2.42
2.26
8.07
15.02
23.00
31.46
39.13
43.97
43.74
37.04
24.33
8.35
-6.65
-16.46
-18.56
-13.04
-2.35
9.88
20.32
26.90
29.20
28.20
25.69
23.56
23.15
24.66
27.01
28.21
26.28
20.13
10.19
-1.60
-12.49
-19.82
-21.77
-17.94
-9.62
0.32
7.93
9.30
1.88
-14.25
-35.89
-57.42
-72.48
-76.06
-66.09
-44.03
-14.29
17.04
43.84
61.27
66.81
60.74
46.09
28.07
12.60
4.70
6.77
17.73
33.46
48.47
57.99
59.76
54.73
46.28
39.04
37.27
43.69
58.72
80.34
104.54
126.39
141.68
148.08
146.11
138.78
130.17
123.73
120.86
120.61
120.60
118.28
111.63
99.99
83.93
64.95
45.15
26.88
12.32
3.14
-0.05
1.21
4.03
4.76
-0.07
-12.64
-33.33
-60.62
-91.64
-123.07
-153.33
-181.76
-208.41
-233.34
-255.91
-274.84
-288.77
-297.26
-301.32
-304.91
-312.47
-327.39
-350.64
-380.46
-413.22
-444.84
-472.15
-481.11
-460.94
-405.24
-315.28
-200.26
-73.92
50.43
163.40
259.84
338.23
397.72
438.72
462.73
472.44
471.63
464.35
454.19
443.80
433.36
420.74
403.63
380.45
350.94
316.32
278.80
240.89
203.88
168.55
134.54
101.21
67.97
34.34
-0.29
-37.13
-73.23
-107.91
-141.13
-173.31
-205.33
-238.78
-276.23
-320.16
-371.32
-426.86
-480.38
-522.32
-542.90
-535.55
-498.83
-436.72
-357.31
-270.89
-188.61
-122.11
-81.90
-75.26
-103.78
-161.31
-234.40
-305.59
-358.71
-383.88
-380.24
-354.40
-316.60
-276.47
-240.06
-209.36
-183.59
-161.10
-140.70
-122.00
-104.73
-87.98
-70.36
-50.65
-28.60
-5.27
17.44
37.46
53.52
65.66
75.04
83.33
91.90
101.28
111.15
120.59
128.76
135.38
140.87
146.20
152.48
160.50
170.42
181.86
194.18
206.81
219.71
233.59
249.70
269.15
292.14
317.27
341.53
361.04
372.21
373.07
363.90
347.14
326.61
306.28
289.20
276.94
269.43
265.30
262.48
258.72
252.17
241.69
226.93
208.40
187.20
164.78
142.62
121.71
102.07
82.58
61.40
36.70
7.66
-24.91
-58.52
-89.64
-114.50
-130.03
-134.41
-127.28
-109.76
-84.24
-53.88
-22.25
7.28
32.04
50.34
61.69
66.73
67.25
65.88
65.62
69.01
77.18
89.11
101.60
110.00
109.82
98.56
76.77
48.08
17.83
-9.11
-30.11
-45.39
-57.39
-68.99
-81.73
-94.79
-105.09
-108.38
-100.75
-79.93
-45.98
-1.32
49.65
101.28
147.50
182.78
203.17
206.88
194.54
168.76
133.21
91.16
44.37
-7.12
-63.71
-124.09
-183.40
-232.96
-262.61
-264.53
-237.19
-186.97
-126.86
-72.32
-36.52
-27.06
-44.97
-85.81
-141.78
-203.82
-263.27
-313.04
-348.38
-367.18
-369.85
-358.60
-336.65
-307.77
-276.00
-245.47
-220.03
-202.34
-193.15
-191.14
-193.63
-197.99
-202.70
-207.71
-213.72
-220.98
-228.67
-234.80
-237.13
-233.80
-224.23
-209.20
-190.38
-169.66
-148.61
-128.14
-108.49
-89.62
-71.34
-53.69
-36.89
-21.26
-7.02
5.74
17.04
27.05
35.96
44.12
52.06
60.45
70.08
81.61
95.30
110.84
127.52
144.36
160.58
175.87
190.50
205.20
221.00
239.08
260.50
285.79
314.35
343.98
370.88
390.56
399.27
395.60
381.15
359.93
336.67
314.94
296.09
279.43
263.46
247.22
230.93
215.66
202.51
191.71
182.54
173.68
163.84
152.22
138.50
122.61
104.54
84.33
62.47
40.13
19.29
2.43
-8.13
-10.90
-5.77
5.82
21.28
37.54
51.90
62.75
69.84
74.10
77.10
80.30
84.53
89.77
95.36
100.40
104.24
106.76
108.39
109.90
112.17
115.93
121.55
128.82
136.74
143.47
146.52
143.43
132.51
113.50
87.68
57.45
25.28
-7.22
-39.74
-72.95
-107.46
-142.77
-176.65
-205.59
-226.04
-235.86
-235.21
-226.41
-212.90
-197.83
-183.09
-169.14
-155.70
-142.56
-130.17
-119.50
-111.38
-105.93
-102.35
-99.33
-95.71
-91.05
-85.73
-80.62
-76.45
-73.42
-71.02
-68.33
-64.53
-59.36
-53.25
-47.15
-42.14
-38.93
-37.64
-37.74
-38.33
-38.45
-37.54
-35.77
-34.15
-34.36
-38.33
-47.68
-63.03
-83.75
-107.92
-132.79
-155.52
-173.87
-186.73
-194.19
-197.20
-196.81
-193.58
-186.93
-175.18
-155.93
-127.25
-88.88
-43.24
4.51
47.75
80.33
98.76
103.28
97.69
87.59
78.32
73.34
73.69
78.72
87.02
97.32
108.62
119.94
130.00
137.22
140.22
138.40
132.35
123.72
114.80
107.75
103.93
103.51
105.56
108.45
110.55
110.92
109.63
107.76
106.84
108.18
112.26
118.52
125.60
131.71
135.31
135.59
132.74
127.81
122.21
116.86
111.53
104.59
93.48
75.77
50.22
17.28
-21.10
-62.11
-102.65
-139.43
-168.91
-187.58
-192.94
-184.74
-165.62
-140.49
-114.67
-91.79
-72.73
-56.25
-40.62
-25.40
-12.01
-2.90
0.01
-3.59
-12.11
-22.90
-33.25
-41.07
-45.17
-45.04
-40.77
-32.90
-22.53
-11.13
-0.40
8.05
12.96
13.77
10.83
5.57
0.17
-3.09
-2.76
1.11
6.96
12.35
15.23
14.86
12.12
9.01
7.57
8.87
12.49
16.59
18.55
15.82
6.80
-8.58
-28.62
-50.20
-69.43
-82.75
-87.82
-84.04
-72.52
-55.69
-36.65
-18.52
-3.97
5.22
8.39
6.03
-0.45
-9.26
-18.80
-28.03
-36.41
-43.65
-49.37
-52.93
-53.66
-51.27
-46.11
-39.13
-31.56
-24.38
-17.94
-11.97
-5.92
0.48
6.88
12.25
15.21
14.64
10.13
2.18
-7.85
-18.19
-27.06
-33.08
-35.54
-34.52
-30.83
-25.70
-20.32
-15.48
-11.32
-7.49
-3.62
0.22
3.38
4.79
3.49
-0.87
-7.90
-16.57
-25.72
-34.39
-41.95
-48.01
-52.19
-53.99
-52.86
-48.34
-40.26
-28.79
-14.49
1.70
18.51
34.43
47.81
57.18
61.55
60.74
55.40
46.93
37.14
27.75
20.06
14.72
11.79
10.96
11.84
14.16
17.63
21.74
25.44
27.26
25.74
20.08
10.62
-1.09
-12.83
-22.54
-29.07
-32.36
-33.21
-32.70
-31.59
-30.22
-28.62
-26.82
-25.04
-23.59
-22.69
-22.18
-21.53
-20.04
-17.11
-12.68
-7.28
-1.99
1.92
3.41
2.13
-1.32
-5.50
-8.54
-8.85
-5.71
0.35
7.74
14.45
18.82
20.17
18.94
16.36
13.88
12.57
12.80
14.23
16.17
17.88
18.86
18.93
18.13
16.54
14.25
11.31
7.90
4.35
1.18
-1.06
-2.00
-1.63
-0.30
1.38
2.71
3.03
1.96
-0.40
-3.35
-5.59
-5.59
-2.26
4.54
13.74
23.33
31.07
35.37
35.76
32.98
28.51
24.01
20.78
19.57
20.57
23.48
27.64
32.13
35.93
38.12
38.04
35.54
31.00
25.33
19.72
15.09
11.56
8.13
2.83
-6.44
-20.72
-38.95
-57.76
-72.35
-78.15
-72.54
-55.70
-30.44
-1.02
28.12
53.45
72.65
84.48
88.68
85.80
77.33
65.52
53.12
42.78
36.55
35.44
39.36
47.28
57.47
67.66
75.17
77.05
70.18
51.92
20.91
-21.82
-72.12
-122.92
-165.67
-192.82
-200.21
-188.41
-162.30
-129.04
-95.51
-66.35
-43.46
-26.61
-14.70
-6.64
-1.58
1.22
2.64
3.60
4.53
5.14
4.39
1.00
-5.92
-16.24
-28.72
-41.29
-51.66
-58.06
-59.61
-56.48
-49.59
-40.19
-29.35
-17.82
-6.05
5.55
16.42
25.78
32.85
37.09
38.46
37.35
34.57
30.98
27.40
24.43
22.39
21.36
21.19
21.60
22.22
22.70
22.74
22.06
20.53
18.20
15.32
12.35
9.81
8.11
7.34
7.25
7.35
7.23
6.82
6.49
6.91
8.69
12.11
17.00
22.91
29.27
35.43
40.54
43.35
42.36
36.29
24.87
9.38
-7.44
-22.18
-32.09
-36.03
-34.76
-30.27
-24.66
-19.21
-14.12
-8.89
-3.23
2.41
6.73
8.13
5.47
-1.26
-10.84
-21.23
-30.44
-37.23
-41.51
-44.04
-45.83
-47.38
-48.34
-47.64
-44.06
-36.93
-26.53
-14.00
-0.96
11.06
20.93
28.07
32.25
33.46
31.83
27.72
21.67
14.45
6.89
-0.29
-6.57
-11.64
-15.28
-17.32
-17.60
-16.04
-12.76
-8.03
-2.29
4.00
10.36
16.26
21.07
24.10
24.80
22.95
18.91
13.49
7.68
2.07
-3.33
-9.11
-15.95
-24.11
-33.06
-41.70
-48.81
-53.54
-55.80
-56.08
-55.19
-53.82
-52.29
-50.53
-48.24
-45.21
-41.52
-37.76
-34.90
-34.15
-36.78
-43.91
-56.12
-72.99
-92.54
-111.08
-124.00
-127.22
-119.26
-102.33
-82.17
-65.87
-58.81
-62.19
-72.43
-82.70
-85.95
-77.93
-58.88
-33.29
-8.10
9.89
16.11
9.31
-8.63
-33.83
-61.87
-88.80
-111.69
-128.55
-138.13
-139.80
-133.68
-120.66
-102.22
-80.02
-55.37
-29.12
-1.82
25.99
53.43
79.65
104.07
126.74
148.38
170.28
194.17
221.92
254.87
292.64
332.05
366.79
388.74
390.74
369.77
328.76
275.92
221.58
174.15
137.36
110.01
88.19
68.31
49.23
32.27
19.60
12.32
9.54
8.92
8.14
6.26
4.11
3.45
5.60
10.32
15.76
19.24
18.74
13.94
6.43
-1.05
-5.92
-6.98
-4.82
-1.41
0.89
0.33
-3.71
-10.75
-19.66
-29.19
-38.37
-46.61
-53.64
-59.43
-63.96
-67.12
-68.56
-67.69
-63.82
-56.43
-45.44
-31.26
-14.76
2.89
20.19
35.27
45.93
49.93
45.70
33.17
14.38
-6.68
-25.02
-36.07
-37.13
-28.09
-11.24
9.67
30.64
48.45
61.07
67.61
68.07
63.06
53.73
41.75
29.16
18.03
9.95
5.66
4.84
6.37
8.78
10.82
11.78
11.57
10.55
9.21
7.96
6.94
6.09
5.21
4.15
2.88
1.56
0.42
-0.33
-0.60
-0.51
-0.32
-0.33
-0.77
-1.68
-3.00
-4.52
-6.01
-7.24
-8.05
-8.33
-8.08
-7.44
-6.66
-6.00
-5.65
-5.62
-5.78
-6.01
-6.34
-7.10
-8.80
-11.95
-16.68
-22.56
-28.62
-33.60
-36.49
-36.90
-35.31
-32.88
-31.03
-30.83
-32.71
-36.36
-41.01
-45.70
-49.63
-52.23
-53.11
-52.07
-49.06
-44.23
-38.00
-31.03
-24.10
-17.98
-13.30
-10.41
-9.37
-9.89
-11.40
-13.17
-14.49
-14.89
-14.20
-12.63
-10.58
-8.45
-6.54
-4.91
-3.46
-2.03
-0.53
1.05
2.67
4.26
5.81
7.41
9.20
11.33
13.91
16.92
20.25
23.68
26.94
29.79
32.14
34.12
36.01
38.16
40.80
43.98
47.61
51.54
55.73
60.28
65.31
70.85
76.71
82.64
88.39
93.92
99.49
105.49
112.31
120.04
128.40
136.75
144.18
149.76
152.68
152.43
148.75
141.48
130.52
115.77
97.32
75.27
49.64
20.02
-14.17
-52.91
-94.38
-134.43
-166.78
-184.73
-183.30
-161.56
-123.44
-77.00
-32.60
-0.39
11.45
-1.70
-39.54
-96.32
-161.34
-220.60
-259.86
-268.21
-240.99
-181.83
-101.76
-16.47
57.73
107.78
127.26
117.48
86.17
44.58
3.21
-30.83
-53.47
-63.20
-60.69
-48.02
-28.09
-6.60
12.92
27.42
34.00
30.29
15.66
-9.71
-44.86
-88.80
-140.77
-199.24
-261.18
-320.75
-369.11
-396.65
-396.23
-365.85
-309.70
-236.38
-155.23
-73.38
5.99
82.51
155.84
223.24
279.62
319.93
341.97
348.03
343.44
333.62
321.40
305.88
283.88
252.82
212.78
166.61
118.22
70.02
21.70
-29.12
-84.34
-142.93
-199.68
-246.28
-273.77
-276.25
-253.26
-210.16
-156.23
-100.80
-49.60
-2.95
43.00
92.44
145.58
196.59
235.00
250.12
235.97
194.37
134.02
66.61
1.82
-56.23
-109.43
-163.27
-223.04
-290.16
-360.81
-426.88
-478.49
-507.68
-510.82
-489.21
-447.76
-392.95
-331.15
-268.22
-209.68
-160.67
-125.24
-105.15
-99.11
-103.00
-111.29
-118.83
-121.70
-117.44
-104.76
-83.55
-55.67
-25.04
2.90
22.85
31.33
27.66
13.57
-7.91
-33.47
-59.65
-82.99
-100.44
-109.99
-111.45
-106.54
-98.29
-89.83
-83.31
-79.56
-78.52
-79.81
-83.09
-87.85
-93.19
-97.79
-100.14
-98.88
-93.48
-84.21
-72.05
-58.23
-43.79
-29.31
-14.92
-0.37
14.58
29.93
45.25
59.67
72.11
81.56
87.45
89.87
89.69
88.32
87.37
88.23
91.69
97.81
106.15
116.04
127.02
139.06
152.56
168.18
186.62
208.51
234.22
263.52
295.10
326.24
352.95
370.92
376.87
369.83
351.59
326.05
297.73
270.22
245.28
223.01
202.64
183.53
165.76
149.98
136.93
126.90
119.56
114.15
109.84
106.10
102.88
100.43
98.99
98.46
98.25
97.40
94.86
90.00
82.79
74.03
64.99
57.06
51.23
47.78
46.29
45.91
45.85
45.61
45.08
44.14
42.45
39.23
33.64
25.13
13.93
1.08
-11.92
-23.55
-32.82
-39.47
-43.83
-46.59
-48.45
-49.93
-51.24
-52.37
-53.14
-53.34
-52.77
-51.33
-49.01
-45.88
-42.11
-37.97
-33.81
-29.97
-26.72
-24.14
-22.09
-20.33
-18.70
-17.14
-15.72
-14.55
-13.60
-12.73
-11.70
-10.22
-8.07
-5.10
-1.26
3.30
8.26
13.08
17.24
20.41
22.62
24.30
26.06
28.42
31.59
35.35
39.14
42.38
44.68
46.00
46.69
47.38
48.65
50.90
54.11
57.92
61.75
65.06
67.51
69.06
69.89
70.37
70.98
72.14
74.12
76.82
79.68
81.87
82.55
81.29
78.41
74.94
72.32
71.82
73.91
77.94
82.15
84.29
82.35
75.43
64.00
49.58
33.79
17.53
0.40
-18.65
-40.28
-63.71
-86.46
-105.18
-117.08
-121.15
-118.30
-110.70
-100.66
-90.05
-80.38
-73.17
-70.08
-72.46
-80.43
-92.35
-105.03
-114.82
-119.15
-117.55
-111.68
-104.48
-98.88
-96.73
-98.38
-102.89
-108.59
-113.79
-117.15
-117.95
-116.22
-112.39
-107.15
-101.20
-95.17
-89.56
-84.68
-80.62
-77.29
-74.39
-71.46
-68.06
-63.82
-58.59
-52.53
-46.08
-39.95
-34.83
-31.16
-28.86
-27.40
-25.91
-23.59
-20.09
-15.64
-11.00
-7.11
-4.75
-4.16
-5.01
-6.53
-7.78
-8.03
-6.91
-4.46
-1.12
2.51
5.78
8.11
9.12
8.63
6.72
3.71
0.14
-3.39
-6.37
-8.47
-9.63
-10.00
-9.87
-9.49
-9.02
-8.51
-7.91
-7.07
-5.91
-4.44
-2.89
-1.67
-1.20
-1.77
-3.33
-5.48
-7.57
-8.86
-8.83
-7.28
-4.37
-0.61
3.35
6.90
9.61
11.30
12.02
11.94
11.28
10.21
8.93
7.69
6.79
6.49
6.98
8.23
10.10
12.35
14.85
17.57
20.61
24.00
27.60
30.95
33.40
34.33
33.40
30.69
26.77
22.45
18.46
15.19
12.62
10.38
8.08
5.54
2.91
0.55
-1.17
-2.11
-2.44
-2.61
-3.07
-4.14
-5.84
-7.86
-9.75
-10.99
-11.17
-10.07
-7.71
-4.31
-0.27
3.92
7.78
10.96
13.24
14.59
15.08
14.85
14.05
12.87
11.55
10.38
9.67
9.62
10.24
11.32
12.47
13.30
13.56
13.22
12.43
11.41
10.29
9.14
7.93
6.73
5.64
4.80
4.20
3.68
2.89
1.46
-0.84
-4.06
-8.07
-12.63
-17.43
-22.10
-26.17
-29.11
-30.37
-29.61
-26.80
-22.32
-16.87
-11.25
-6.14
-1.99
1.03
2.94
3.89
4.05
3.65
2.99
2.40
2.14
2.30
2.76
3.20
3.24
2.63
1.39
-0.21
-1.72
-2.73
-3.01
-2.55
-1.65
-0.78
-0.37
-0.69
-1.64
-2.77
-3.48
-3.25
-1.89
0.33
2.83
4.96
6.23
6.53
5.99
4.97
3.79
2.71
1.93
1.61
1.92
3.01
4.85
7.21
9.70
11.81
13.16
13.62
13.32
12.58
11.75
11.07
10.63
10.42
10.41
10.57
10.90
11.28
11.47
11.11
9.90
7.76
4.97
2.10
-0.24
-1.64
-2.10
-2.03
-1.99
-2.46
-3.59
-5.19
-6.83
-8.11
-8.81
-8.92
-8.65
-8.24
-7.92
-7.84
-8.10
-8.74
-9.71
-10.87
-11.97
-12.68
-12.71
-11.91
-10.44
-8.73
-7.33
-6.64
-6.78
-7.46
-8.22
-8.62
-8.48
-7.91
-7.24
-6.77
-6.62
-6.68
-6.66
-6.26
-5.31
-3.80
-1.93
0.05
1.90
3.52
4.97
6.44
8.09
9.80
11.12
11.37
9.89
6.40
1.22
-4.74
-10.34
-14.57
-16.90
-17.44
-16.70
-15.41
-14.19
-13.49
-13.51
-14.25
-15.46
-16.56
-16.72
-15.03
-10.91
-4.40
3.77
12.40
20.31
26.75
31.56
34.94
37.16
38.27
38.12
36.63
34.00
30.78
27.70
25.27
23.60
22.41
21.20
19.60
17.53
15.17
12.83
10.80
9.24
8.17
7.55
7.27
7.22
7.26
7.23
7.04
6.63
5.96
5.06
3.97
2.76
1.51
0.35
-0.61
-1.25
-1.55
-1.54
-1.32
-1.01
-0.67
-0.32
0.06
0.47
0.88
1.16
1.21
1.03
0.79
0.87
1.68
3.47
6.17
9.36
12.40
14.71
16.06
16.59
16.77
17.12
17.96
19.26
20.65
21.68
22.00
21.62
20.86
20.30
20.48
21.82
24.44
28.07
32.03
35.17
36.06
33.29
25.96
14.08
-1.25
-18.04
-33.96
-47.08
-56.29
-61.40
-62.99
-61.87
-58.89
-54.78
-50.18
-45.70
-41.86
-38.96
-36.97
-35.56
-34.19
-32.33
-29.65
-26.08
-21.76
-17.00
-12.15
-7.62
-3.76
-0.78
1.30
2.65
3.56
4.27
4.85
5.19
5.15
4.68
3.95
3.28
2.99
3.26
4.01
4.97
5.85
6.40
6.53
6.26
5.71
4.99
4.24
3.56
3.05
2.73
2.53
2.30
1.82
0.94
-0.37
-2.00
-3.79
-5.54
-7.13
-8.52
-9.67
-10.50
-10.96
-10.95
-10.47
-9.50
-8.08
-6.23
-3.97
-1.44
1.15
3.46
5.11
5.82
5.50
4.30
2.57
0.71
-0.89
-2.04
-2.75
-3.22
-3.81
-4.82
-6.43
-8.59
-11.06
-13.52
-15.74
-17.67
-19.48
-21.41
-23.59
-25.89
-27.92
-29.20
-29.41
-28.52
-26.88
-24.97
-23.30
-22.25
-21.98
-22.48
-23.57
-24.85
-25.73
-25.54
-23.74
-20.16
-15.09
-9.08
-2.73
3.66
10.11
16.70
23.28
29.21
33.50
35.13
33.56
29.00
22.38
15.04
8.28
2.94
-0.68
-2.73
-3.56
-3.40
-2.18
0.46
4.93
11.38
19.33
27.59
34.50
38.46
38.52
34.73
28.12
20.19
12.31
5.23
-0.98
-6.65
-12.11
-17.36
-22.21
-26.48
-30.36
-34.34
-38.86
-43.88
-48.51
-51.25
-50.59
-45.67
-36.52
-23.91
-8.74
8.43
27.33
47.65
68.57
88.57
105.98
119.61
129.27
135.72
139.95
142.53
143.21
141.27
136.17
128.07
117.88
106.84
95.95
85.66
75.77
65.83
55.40
44.32
32.76
21.09
9.73
-1.04
-11.13
-20.66
-29.83
-38.71
-47.01
-54.06
-59.04
-61.37
-61.04
-58.71
-55.43
-52.17
-49.44
-47.17
-44.90
-42.14
-38.66
-34.62
-30.39
-26.43
-23.03
-20.24
-17.96
-16.06
-14.52
-13.47
-13.15
-13.83
-15.60
-18.31
-21.53
-24.63
-26.93
-27.93
-27.50
-25.86
-23.48
-20.88
-18.40
-16.16
-14.11
-12.20
-10.49
-9.08
-8.04
-7.31
-6.62
-5.66
-4.20
-2.26
-0.06
2.07
3.81
4.96
5.44
5.24
4.39
3.05
1.42
-0.19
-1.53
-2.49
-3.14
-3.67
-4.27
-4.99
-5.76
-6.42
-6.89
-7.17
-7.41
-7.74
-8.25
-8.91
-9.61
-10.26
-10.77
-11.10
-11.20
-11.06
-10.69
-10.09
-9.31
-8.33
-7.18
-5.91
-4.72
-3.93
-3.93
-4.98
-7.06
-9.83
-12.77
-15.38
-17.33
-18.42
-18.48
-17.26
-14.49
-10.12
-4.54
1.40
6.64
10.39
12.38
13.10
13.41
14.20
15.95
18.56
21.45
23.66
24.15
21.96
16.49
7.76
-3.43
-15.56
-26.65
-34.85
-38.92
-38.57
-34.40
-27.65
-19.69
-11.69
-4.37
1.92
7.08
11.06
13.78
15.19
15.42
14.76
13.74
12.88
12.48
12.48
12.47
11.95
10.63
8.66
6.60
5.18
4.96
6.01
7.97
10.15
11.94
13.03
13.52
13.74
13.98
14.35
14.67
14.65
14.02
12.75
11.01
9.10
7.25
5.60
4.17
2.91
1.80
0.83
-0.02
-0.80
-1.62
-2.52
-3.50
-4.43
-5.19
-5.77
-6.29
-6.99
-8.08
-9.57
-11.16
-12.41
-12.84
-12.26
-10.79
-8.81
-6.75
-4.90
-3.31
-1.88
-0.50
0.81
1.78
2.12
1.66
0.54
-0.81
-1.81
-1.98
-1.12
0.70
3.15
5.82
8.36
10.48
12.02
12.87
13.02
12.50
11.42
9.96
8.25
6.47
4.74
3.15
1.70
0.28
-1.29
-3.24
-5.66
-8.44
-11.26
-13.69
-15.32
-16.00
-15.85
-15.20
-14.43
-13.76
-13.17
-12.49
-11.43
-9.79
-7.52
-4.72
-1.67
1.32
3.97
6.13
7.79
9.03
9.94
10.54
10.76
10.49
9.67
8.34
6.64
4.71
2.66
0.57
-1.51
-3.45
-5.08
-6.25
-6.90
-7.06
-6.70
-5.68
-3.74
-0.70
3.25
7.50
11.09
13.13
13.20
11.53
8.92
6.24
4.00
2.11
0.01
-2.82
-6.49
-10.51
-13.93
-15.82
-15.71
-13.77
-10.72
-7.41
-4.40
-1.77
0.91
4.16
8.34
13.31
18.52
23.20
26.65
28.41
28.34
26.56
23.32
19.07
14.36
9.88
6.22
3.75
2.45
1.91
1.55
0.85
-0.46
-2.41
-4.93
-7.91
-11.24
-14.74
-18.09
-20.85
-22.64
-23.21
-22.58
-21.04
-18.96
-16.75
-14.75
-13.19
-12.25
-12.01
-12.40
-13.21
-14.16
-14.97
-15.48
-15.66
-15.55
-15.19
-14.50
-13.27
-11.21
-8.07
-3.83
1.23
6.44
10.94
13.87
14.77
13.75
11.46
8.81
6.62
5.22
4.46
3.84
2.85
1.31
-0.57
-2.36
-3.62
-4.16
-4.14
-3.91
-3.83
-4.08
-4.59
-5.06
-5.23
-5.00
-4.54
-4.15
-4.17
-4.75
-5.77
-6.95
-8.00
-8.74
-9.22
-9.55
-9.83
-10.06
-10.11
-9.83
-9.19
-8.29
-7.31
-6.49
-5.93
-5.61
-5.42
-5.24
-4.97
-4.57
-4.01
-3.23
-2.16
-0.84
0.58
1.85
2.68
2.96
2.79
2.47
2.30
2.43
2.77
3.03
2.99
2.64
2.26
2.24
2.85
3.95
5.11
5.71
5.34
3.98
2.05
0.14
-1.15
-1.44
-0.57
1.44
4.40
7.97
11.60
14.64
16.50
16.88
15.86
13.88
11.48
9.05
6.77
4.65
2.69
1.00
-0.28
-1.08
-1.49
-1.78
-2.28
-3.17
-4.43
-5.81
-7.01
-7.70
-7.67
-6.79
-5.04
-2.61
0.18
2.93
5.29
7.01
7.95
8.03
7.12
5.17
2.34
-0.78
-3.36
-4.56
-4.07
-2.38
-0.65
-0.24
-1.95
-5.61
-10.13
-13.98
-15.99
-15.82
-14.03
-11.60
-9.48
-8.14
-7.61
-7.66
-8.13
-8.99
-10.24
-11.72
-13.01
-13.67
-13.45
-12.54
-11.52
-11.06
-11.51
-12.70
-14.04
-14.86
-14.72
-13.64
-11.94
-10.07
-8.32
-6.73
-5.13
-3.37
-1.44
0.46
1.98
2.80
2.85
2.35
1.78
1.65
2.25
3.55
5.21
6.80
7.98
8.69
9.07
9.33
9.67
10.18
10.87
11.71
12.63
13.49
14.12
14.34
14.10
13.59
13.23
13.50
14.71
16.78
19.20
21.21
22.03
21.24
19.02
16.04
13.27
11.54
11.16
11.83
12.83
13.41
13.17
12.14
10.64
8.95
7.12
5.05
2.68
0.22
-1.86
-3.11
-3.37
-2.98
-2.60
-2.83
-3.85
-5.37
-6.81
-7.65
-7.76
-7.33
-6.70
-6.15
-5.67
-5.14
-4.39
-3.42
-2.37
-1.45
-0.83
-0.60
-0.76
-1.32
-2.30
-3.71
-5.39
-7.00
-8.08
-8.11
-6.80
-4.19
-0.72
2.84
5.67
7.14
7.09
5.80
3.92
2.15
0.96
0.53
0.67
1.05
1.38
1.49
1.38
1.05
0.46
-0.48
-1.82
-3.49
-5.27
-6.88
-8.17
-9.16
-10.00
-10.90
-11.89
-12.76
-13.14
-12.65
-11.13
-8.72
-5.87
-3.15
-1.08
0.13
0.59
0.68
0.81
1.24
1.92
2.62
3.10
3.27
3.23
3.20
3.31
3.47
3.43
2.97
2.11
1.16
0.61
0.80
1.69
2.85
3.69
3.76
3.04
1.91
0.96
0.64
1.04
1.83
2.45
2.43
1.59
0.14
-1.48
-2.82
-3.62
-3.90
-3.90
-4.00
-4.48
-5.47
-6.93
-8.66
-10.41
-11.96
-13.09
-13.62
-13.42
-12.42
-10.73
-8.55
-6.23
-4.13
-2.50
-1.47
-0.96
-0.80
-0.76
-0.61
-0.15
0.71
1.98
3.54
5.19
6.69
7.85
8.58
8.85
8.66
8.00
6.80
5.08
3.03
1.01
-0.50
-1.14
-0.84
0.11
1.17
1.85
1.94
1.56
1.05
0.74
0.79
1.08
1.31
1.17
0.48
-0.85
-2.83
-5.41
-8.50
-11.91
-15.34
-18.37
-20.60
-21.76
-21.77
-20.75
-18.94
-16.54
-13.66
-10.32
-6.53
-2.45
1.59
5.12
7.71
9.08
9.25
8.49
7.24
5.94
4.98
4.64
5.05
6.23
8.01
10.03
11.81
12.90
13.03
12.25
10.87
9.28
7.85
6.75
6.06
5.80
6.03
6.83
8.24
10.18
12.39
14.50
16.14
17.03
16.98
15.91
13.87
10.98
7.55
4.00
0.81
-1.57
-2.88
-3.05
-2.23
-0.76
0.92
2.40
3.34
3.54
3.04
1.98
0.60
-0.91
-2.46
-4.04
-5.65
-7.22
-8.56
-9.41
-9.57
-9.05
-8.06
-6.95
-6.09
-5.64
-5.54
-5.55
-5.36
-4.75
-3.66
-2.16
-0.44
1.26
2.68
3.57
3.76
3.16
1.85
0.07
-1.83
-3.44
-4.40
-4.48
-3.64
-2.10
-0.30
1.20
1.96
1.78
0.79
-0.63
-2.08
-3.31
-4.38
-5.51
-6.89
-8.51
-10.16
-11.49
-12.28
-12.53
-12.41
-12.09
-11.60
-10.78
-9.44
-7.51
-5.21
-2.93
-1.05
0.24
1.02
1.58
2.19
2.97
3.86
4.71
5.43
6.02
6.59
7.22
7.83
8.24
8.25
7.82
7.19
6.77
7.02
8.08
9.73
11.35
12.26
11.94
10.33
7.79
4.91
2.25
0.11
-1.51
-2.87
-4.25
-5.86
-7.76
-9.86
-11.98
-13.95
-15.64
-16.95
-17.82
-18.14
-17.80
-16.72
-14.91
-12.56
-9.99
-7.55
-5.45
-3.74
-2.28
-0.94
0.35
1.47
2.25
2.57
2.51
2.33
2.42
3.05
4.31
6.07
8.08
10.05
11.79
13.16
14.06
14.38
14.06
13.14
11.75
10.16
8.60
7.29
6.31
5.67
5.29
5.07
4.89
4.61
4.07
3.16
1.84
0.14
-1.89
-4.28
-7.13
-10.58
-14.69
-19.28
-23.89
-27.77
-30.14
-30.41
-28.41
-24.42
-19.11
-13.32
-7.78
-3.06
0.53
2.91
4.13
4.43
4.15
3.74
3.63
4.15
5.45
7.50
10.05
12.74
15.14
16.80
17.37
16.65
14.70
11.83
8.55
5.38
2.81
1.14
0.45
0.63
1.37
2.31
3.12
3.61
3.78
3.79
3.87
4.13
4.48
4.69
4.48
3.66
2.22
0.33
-1.80
-3.98
-6.05
-7.90
-9.41
-10.53
-11.32
-11.97
-12.71
-13.72
-14.99
-16.28
-17.19
-17.33
-16.45
-14.58
-11.92
-8.80
-5.55
-2.42
0.40
2.78
4.65
5.98
6.81
7.23
7.37
7.30
7.07
6.68
6.14
5.54
5.00
4.67
4.66
5.01
5.68
6.67
7.94
9.41
10.90
12.12
12.72
12.46
11.35
9.61
7.63
5.74
4.09
2.62
1.18
-0.36
-1.95
-3.42
-4.57
-5.23
-5.42
-5.29
-5.15
-5.29
-5.90
-7.04
-8.57
-10.24
-11.75
-12.87
-13.51
-13.74
-13.70
-13.53
-13.25
-12.71
-11.74
-10.15
-7.94
-5.28
-2.45
0.28
2.70
4.76
6.44
7.73
8.56
8.90
8.79
8.47
8.34
8.74
9.79
11.24
12.50
12.96
12.20
10.31
7.79
5.36
3.63
2.89
3.10
4.03
5.46
7.25
9.30
11.37
12.96
13.41
12.10
8.74
3.55
-2.73
-9.01
-14.19
-17.46
-18.48
-17.45
-14.96
-11.82
-8.75
-6.27
-4.59
-3.72
-3.57
-4.01
-4.91
-6.06
-7.18
-7.98
-8.29
-8.11
-7.64
-7.05
-6.39
-5.41
-3.75
-1.08
2.63
7.04
11.58
15.64
18.78
20.84
21.84
21.88
20.98
19.10
16.20
12.37
7.92
3.41
-0.51
-3.27
-4.52
-4.32
-3.01
-1.07
1.08
3.19
5.18
7.02
8.60
9.68
10.01
9.43
8.01
6.07
4.05
2.39
1.41
1.22
1.75
2.81
4.12
5.31
6.01
5.86
4.60
2.21
-1.12
-4.93
-8.64
-11.72
-13.81
-14.79
-14.76
-13.91
-12.47
-10.63
-8.55
-6.39
-4.32
-2.45
-0.85
0.55
1.83
3.04
4.19
5.22
6.05
6.66
7.11
7.41
7.58
7.57
7.36
7.04
6.75
6.68
6.92
7.43
8.01
8.43
8.51
8.20
7.51
6.52
5.27
3.73
1.90
-0.21
-2.53
-4.96
-7.31
-9.37
-10.90
-11.67
-11.54
-10.57
-9.03
-7.39
-6.17
-5.79
-6.44
-8.01
-10.14
-12.32
-14.03
-14.88
-14.68
-13.41
-11.22
-8.27
-4.73
-0.75
3.45
7.55
11.16
13.89
15.49
15.83
14.94
12.88
9.72
5.62
0.84
-4.10
-8.57
-11.98
-13.96
-14.45
-13.69
-12.05
-9.91
-7.54
-5.16
-2.97
-1.15
0.16
0.91
1.19
1.13
0.88
0.51
0.02
-0.63
-1.45
-2.41
-3.42
-4.37
-5.21
-6.02
-7.01
-8.46
-10.56
-13.29
-16.29
-18.98
-20.71
-21.04
-19.82
-17.23
-13.69
-9.68
-5.62
-1.89
1.27
3.71
5.48
6.79
7.92
9.12
10.46
11.79
12.78
13.14
12.76
11.81
10.68
9.81
9.48
9.72
10.34
11.12
11.85
12.53
13.22
14.02
14.90
15.73
16.29
16.41
16.09
15.45
14.70
13.97
13.31
12.63
11.78
10.67
9.29
7.79
6.37
5.20
4.33
3.68
3.06
2.37
1.63
1.00
0.64
0.55
0.53
0.18
-0.88
-2.91
-5.95
-9.84
-14.35
-19.26
-24.39
-29.52
-34.26
-38.09
-40.37
-40.59
-38.56
-34.50
-28.98
-22.62
-15.84
-8.55
-0.20
9.97
22.44
37.03
52.77
68.07
81.22
90.73
95.62
95.50
90.47
81.11
68.42
53.66
38.14
22.92
8.63
-4.56
-16.67
-27.64
-37.16
-44.76
-50.13
-53.39
-55.14
-56.21
-57.26
-58.50
-59.68
-60.40
-60.45
-59.93
-59.20
-58.57
-58.04
-57.28
-55.81
-53.29
-49.73
-45.43
-40.71
-35.77
-30.56
-24.98
-19.08
-13.17
-7.71
-3.09
0.60
3.59
6.24
8.88
11.59
14.31
16.90
19.33
21.68
23.97
26.08
27.64
28.20
27.45
25.40
22.45
19.19
16.15
13.61
11.54
9.77
8.25
7.08
6.57
6.98
8.42
10.65
13.18
15.40
16.75
16.89
15.68
13.24
9.83
5.78
1.45
-2.85
-6.88
-10.42
-13.27
-15.26
-16.27
-16.23
-15.14
-13.05
-10.03
-6.16
-1.64
3.28
8.21
12.69
16.28
18.66
19.69
19.45
18.20
16.38
14.46
12.83
11.72
11.15
10.95
10.91
10.88
10.82
10.79
10.84
10.94
10.98
10.84
10.41
9.67
8.66
7.38
5.82
3.96
1.83
-0.41
-2.51
-4.27
-5.55
-6.42
-7.14
-8.01
-9.24
-10.83
-12.51
-13.78
-14.11
-13.10
-10.60
-6.85
-2.37
2.12
5.96
8.70
10.28
10.94
11.10
11.12
11.14
11.04
10.54
9.41
7.61
5.32
2.86
0.53
-1.51
-3.27
-4.85
-6.31
-7.57
-8.45
-8.73
-8.28
-7.15
-5.60
-4.01
-2.76
-2.08
-1.97
-2.22
-2.53
-2.70
-2.74
-2.83
-3.23
-4.06
-5.25
-6.52
-7.50
-7.93
-7.73
-7.04
-6.03
-4.94
-3.88
-2.92
-2.16
-1.73
-1.79
-2.47
-3.83
-5.77
-8.05
-10.32
-12.21
-13.43
-13.84
-13.45
-12.40
-10.82
-8.80
-6.35
-3.43
-0.13
3.36
6.71
9.60
11.78
13.13
13.65
13.41
12.53
11.20
9.76
8.64
8.30
9.02
10.76
13.15
15.53
17.22
17.73
16.91
14.97
12.37
9.65
7.26
5.48
4.36
3.80
3.64
3.75
4.04
4.48
5.03
5.58
5.92
5.82
5.13
3.85
2.12
0.22
-1.63
-3.34
-4.94
-6.50
-8.04
-9.40
-10.32
-10.51
-9.81
-8.29
-6.24
-4.05
-2.17
-0.88
-0.34
-0.50
-1.25
-2.37
-3.59
-4.65
-5.35
-5.65
-5.64
-5.49
-5.34
-5.23
-5.01
-4.48
-3.52
-2.13
-0.46
1.25
2.79
3.94
4.47
4.15
2.84
0.59
-2.25
-5.07
-7.24
-8.29
-8.09
-6.78
-4.71
-2.23
0.34
2.72
4.62
5.73
5.82
4.88
3.15
1.09
-0.79
-2.09
-2.69
-2.70
-2.32
-1.77
-1.18
-0.55
0.17
1.03
2.02
3.04
3.89
4.28
4.00
2.98
1.45
-0.11
-1.13
-1.21
-0.32
1.21
2.84
4.08
4.73
4.91
4.90
4.96
5.19
5.53
5.82
5.90
5.68
5.14
4.35
3.45
2.61
1.93
1.44
1.01
0.46
-0.36
-1.47
-2.85
-4.44
-6.21
-8.15
-10.11
-11.79
-12.79
-12.80
-11.92
-10.71
-10.08
-10.95
-13.81
-18.49
-24.08
-29.16
-32.33
-32.63
-30.05
-25.51
-20.64
-17.04
-15.58
-15.95
-16.76
-16.25
-13.16
-7.39
0.05
7.49
13.41
16.89
17.57
15.24
9.62
0.57
-11.46
-25.06
-38.26
-49.35
-57.90
-64.83
-71.61
-78.58
-83.88
-83.70
-74.09
-53.50
-24.33
7.46
34.80
52.62
59.90
59.47
55.91
52.95
51.96
52.00
51.19
48.12
42.51
34.89
25.84
15.63
4.49
-6.86
-16.83
-23.29
-24.36
-19.28
-8.81
5.05
19.70
32.74
42.43
47.93
49.32
47.41
43.54
39.22
35.75
33.89
33.69
34.52
35.25
34.65
31.68
25.78
17.03
6.15
-5.61
-16.75
-25.88
-32.06
-34.99
-35.00
-32.81
-29.25
-25.04
-20.69
-16.63
-13.26
-10.88
-9.63
-9.29
-9.32
-9.03
-7.80
-5.44
-2.16
1.45
4.73
7.23
8.90
10.05
11.23
12.95
15.44
18.58
21.91
24.84
26.86
27.77
27.64
26.84
25.84
25.04
24.62
24.53
24.51
24.25
23.57
22.42
20.94
19.27
17.50
15.62
13.59
11.41
9.23
7.27
5.75
4.75
4.14
3.64
2.98
2.06
1.01
0.14
-0.21
0.16
1.19
2.56
3.80
4.54
4.60
4.03
3.06
1.91
0.70
-0.59
-2.06
-3.70
-5.34
-6.63
-7.17
-6.65
-4.98
-2.27
1.19
5.02
8.84
12.26
14.96
16.69
17.33
16.84
15.22
12.56
8.99
4.77
0.40
-3.51
-6.28
-7.46
-7.03
-5.44
-3.46
-1.91
-1.35
-1.94
-3.49
-5.63
-7.97
-10.23
-12.27
-13.97
-15.26
-16.10
-16.52
-16.65
-16.65
-16.62
-16.51
-16.09
-15.08
-13.25
-10.57
-7.28
-3.83
-0.78
1.46
2.68
2.97
2.60
1.88
0.93
-0.30
-2.00
-4.21
-6.68
-8.86
-10.16
-10.30
-9.42
-8.05
-6.78
-5.90
-5.29
-4.50
-3.15
-1.09
1.44
4.04
6.34
8.02
8.83
8.43
6.44
2.56
-3.13
-10.14
-17.64
-24.77
-30.94
-35.92
-39.79
-42.66
-44.57
-45.45
-45.29
-44.30
-42.90
-41.56
-40.59
-39.94
-39.26
-38.06
-36.00
-33.01
-29.32
-25.31
-21.36
-17.66
-14.33
-11.42
-8.96
-6.89
-4.86
-2.23
1.86
8.06
16.42
26.13
35.68
43.35
47.83
48.70
46.49
42.34
37.51
32.94
29.05
25.81
23.01
20.41
17.91
15.51
13.22
11.00
8.76
6.38
3.87
1.37
-0.88
-2.69
-4.03
-5.09
-6.14
-7.32
-8.54
-9.50
-9.88
-9.64
-9.06
-8.74
-9.25
-10.82
-13.22
-15.86
-18.07
-19.39
-19.77
-19.49
-18.96
-18.58
-18.64
-19.25
-20.31
-21.27
-21.13
-18.57
-12.51
-2.70
9.83
22.83
33.59
39.90
40.85
37.11
30.50
23.13
16.72
12.06
9.14
7.49
6.64
6.32
6.54
7.36
8.70
10.27
11.70
12.84
13.97
15.68
18.53
22.50
26.78
29.97
30.68
28.32
23.41
17.39
11.93
8.12
6.13
5.26
4.47
2.94
0.38
-2.94
-6.49
-9.83
-12.74
-15.30
-17.72
-20.18
-22.67
-25.05
-27.05
-28.43
-28.98
-28.63
-27.46
-25.58
-23.23
-20.70
-18.31
-16.42
-15.25
-14.80
-14.83
-14.89
-14.48
-13.30
-11.34
-8.93
-6.54
-4.58
-3.24
-2.40
-1.78
-1.05
-0.03
1.28
2.70
4.03
5.09
5.85
6.37
6.74
7.01
7.11
6.96
6.44
5.56
4.46
3.39
2.56
2.15
2.17
2.57
3.28
4.28
5.54
6.91
8.11
8.74
8.50
7.35
5.55
3.61
2.10
1.38
1.58
2.62
4.32
6.50
8.99
11.64
14.23
16.51
18.28
19.48
20.17
20.51
20.57
20.36
19.82
18.90
17.69
16.40
15.33
14.73
14.64
14.86
15.01
14.70
13.65
11.87
9.60
7.26
5.20
3.65
2.58
1.83
1.17
0.39
-0.55
-1.63
-2.77
-3.95
-5.14
-6.31
-7.39
-8.28
-8.91
-9.26
-9.37
-9.37
-9.41
-9.62
-10.10
-10.90
-11.94
-13.01
-13.76
-13.87
-13.08
-11.39
-9.05
-6.51
-4.32
-2.94
-2.65
-3.40
-4.89
-6.59
-7.93
-8.54
-8.28
-7.37
-6.14
-4.92
-3.87
-2.96
-2.07
-1.12
-0.14
0.72
1.35
1.70
1.85
1.93
2.03
2.20
2.36
2.41
2.28
1.95
1.50
1.04
0.73
0.69
1.01
1.72
2.83
4.38
6.44
9.06
12.24
15.91
19.90
24.09
28.55
33.53
39.41
46.43
54.42
62.60
69.71
74.35
75.44
72.64
66.37
57.59
47.40
36.62
25.64
14.54
3.28
-8.04
-19.11
-29.49
-38.68
-46.26
-52.00
-55.81
-57.80
-58.20
-57.42
-55.99
-54.47
-53.29
-52.65
-52.45
-52.32
-51.73
-50.19
-47.45
-43.64
-39.29
-35.20
-32.16
-30.70
-30.83
-32.09
-33.72
-34.90
-35.09
-34.08
-31.97
-28.93
-25.07
-20.44
-15.17
-9.57
-4.24
0.22
3.43
5.42
6.61
7.57
8.71
10.13
11.64
13.00
14.06
14.89
15.67
16.53
17.55
18.68
19.90
21.18
22.55
24.00
25.49
26.91
28.08
28.69
28.26
26.18
21.95
15.39
6.93
-2.45
-11.48
-19.05
-24.58
-28.12
-30.19
-31.36
-31.95
-31.98
-31.29
-29.88
-28.03
-26.32
-25.36
-25.59
-26.96
-29.06
-31.23
-32.81
-33.40
-32.92
-31.51
-29.48
-27.11
-24.56
-21.88
-19.07
-16.16
-13.19
-10.22
-7.28
-4.36
-1.46
1.44
4.22
6.76
8.89
10.53
11.72
12.54
13.10
13.45
13.61
13.60
13.49
13.39
13.38
13.41
13.31
12.85
11.89
10.47
8.81
7.26
6.03
5.18
4.54
3.90
3.09
2.14
1.29
0.87
1.17
2.32
4.23
6.55
8.85
10.68
11.77
12.05
11.70
11.03
10.33
9.77
9.40
9.11
8.78
8.31
7.77
7.29
7.09
7.34
8.05
9.11
10.26
11.24
11.92
12.29
12.41
12.32
11.93
11.08
9.60
7.54
5.16
2.88
1.03
-0.28
-1.25
-2.23
-3.57
-5.38
-7.55
-9.85
-11.99
-13.82
-15.22
-16.04
-16.06
-15.00
-12.74
-9.42
-5.47
-1.55
1.70
3.92
5.11
5.65
6.00
6.53
7.35
8.28
9.01
9.25
8.82
7.66
5.79
3.31
0.36
-2.85
-6.16
-9.64
-13.66
-18.73
-25.09
-32.31
-38.96
-42.97
-42.32
-35.84
-23.76
-7.61
10.11
26.64
39.35
46.10
45.62
37.92
24.72
9.39
-3.88
-11.50
-11.76
-5.44
4.81
15.79
25.13
32.03
37.01
41.12
45.00
48.40
50.37
49.70
45.44
37.26
25.50
11.02
-4.75
-20.05
-32.87
-41.38
-44.32
-41.41
-33.53
-22.57
-10.99
-1.07
5.68
8.86
9.11
7.71
6.05
5.27
5.95
8.05
11.10
14.31
16.95
18.51
18.81
17.93
16.13
13.61
10.50
6.82
2.61
-2.07
-6.98
-11.75
-15.86
-18.67
-19.56
-18.11
-14.33
-8.73
-2.25
4.06
9.35
13.25
15.85
17.51
18.54
19.07
18.98
18.04
16.10
13.20
9.65
5.87
2.30
-0.69
-2.84
-4.07
-4.35
-3.77
-2.45
-0.57
1.65
3.94
6.02
7.59
8.42
8.42
7.64
6.27
4.67
3.20
2.20
1.80
1.93
2.28
2.41
1.94
0.70
-1.13
-3.05
-4.33
-4.27
-2.42
1.20
6.17
11.82
17.46
22.69
27.45
32.02
36.78
42.01
47.77
53.81
59.65
64.66
68.19
69.79
69.36
67.33
64.56
62.18
61.02
61.36
62.72
64.19
64.87
64.27
62.39
59.44
55.44
49.91
42.03
31.12
17.17
1.08
-15.49
-30.74
-43.39
-53.11
-60.46
-66.46
-72.04
-77.55
-82.79
-87.12
-89.89
-90.72
-89.62
-86.87
-82.95
-78.45
-73.98
-70.11
-67.24
-65.41
-64.23
-62.95
-60.79
-57.22
-52.21
-46.24
-40.06
-34.34
-29.48
-25.45
-21.98
-18.72
-15.43
-12.09
-8.92
-6.29
-4.69
-4.51
-5.93
-8.84
-12.81
-17.18
-21.32
-24.70
-27.07
-28.39
-28.77
-28.41
-27.50
-26.29
-25.00
-23.86
-23.02
-22.47
-22.03
-21.41
-20.27
-18.40
-15.74
-12.35
-8.48
-4.41
-0.45
3.19
6.40
9.23
11.81
14.22
16.48
18.52
20.16
21.24
21.68
21.56
21.08
20.59
20.43
20.89
22.03
23.65
25.27
26.35
26.39
25.19
22.90
19.94
16.87
14.14
11.98
10.35
9.00
7.60
5.98
4.15
2.36
1.00
0.39
0.70
1.80
3.23
4.33
4.40
2.89
-0.33
-4.91
-10.01
-14.60
-17.77
-19.01
-18.39
-16.44
-13.84
-11.19
-8.80
-6.80
-5.18
-3.96
-3.21
-2.87
-2.80
-2.67
-2.18
-1.14
0.37
2.07
3.58
4.62
5.15
5.33
5.39
5.48
5.55
5.40
4.85
3.92
2.90
2.24
2.32
3.21
4.60
5.89
6.52
6.19
4.95
3.07
0.87
-1.50
-4.02
-6.75
-9.62
-12.46
-14.97
-16.93
-18.20
-18.82
-18.91
-18.59
-17.96
-17.11
-16.14
-15.18
-14.35
-13.73
-13.34
-13.15
-13.01
-12.70
-11.98
-10.62
-8.49
-5.62
-2.18
1.55
5.36
9.13
12.87
16.58
20.18
23.37
25.77
26.99
26.90
25.71
23.82
21.70
19.62
17.62
15.59
13.46
11.37
9.63
8.53
8.19
8.38
8.69
8.68
8.11
7.01
5.59
4.06
2.44
0.54
-1.83
-4.69
-7.75
-10.48
-12.23
-12.56
-11.37
-8.91
-5.76
-2.57
-0.00
1.45
1.53
0.33
-1.75
-4.03
-5.77
-6.44
-5.84
-4.26
-2.26
-0.42
0.89
1.64
2.04
2.27
2.39
2.24
1.68
0.75
-0.22
-0.76
-0.45
0.75
2.43
3.91
4.54
3.99
2.39
0.19
-2.04
-3.86
-5.09
-5.72
-5.89
-5.79
-5.59
-5.47
-5.54
-5.84
-6.27
-6.66
-6.74
-6.30
-5.25
-3.68
-1.81
0.10
1.84
3.28
4.43
5.33
6.05
6.60
6.96
7.10
7.05
6.87
6.66
6.52
6.53
6.71
7.03
7.41
7.76
7.99
8.05
7.91
7.57
7.05
6.34
5.46
4.40
3.20
1.90
0.60
-0.69
-2.01
-3.50
-5.30
-7.49
-10.00
-12.62
-15.06
-17.04
-18.43
-19.35
-20.04
-20.76
-21.62
-22.54
-23.20
-23.24
-22.41
-20.63
-18.08
-15.03
-11.76
-8.47
-5.20
-1.94
1.28
4.34
7.04
9.14
10.47
10.99
10.75
9.88
8.56
7.02
5.49
4.19
3.24
2.56
1.86
0.82
-0.78
-2.88
-5.15
-7.19
-8.78
-9.99
-11.14
-12.57
-14.47
-16.70
-18.93
-20.79
-22.07
-22.78
-23.08
-23.21
-23.32
-23.47
-23.60
-23.49
-22.80
-21.02
-17.54
-11.73
-3.21
7.98
21.32
35.82
50.33
63.76
75.39
84.85
92.14
97.35
100.53
101.55
100.15
96.18
89.85
81.88
73.40
65.63
59.43
54.94
51.54
48.22
44.02
38.53
32.03
25.28
19.16
14.32
10.96
8.92
7.79
7.10
6.39
5.34
3.75
1.59
-1.00
-3.85
-6.82
-9.90
-13.18
-16.70
-20.35
-23.77
-26.49
-28.08
-28.40
-27.62
-26.22
-24.68
-23.31
-22.10
-20.84
-19.27
-17.23
-14.66
-11.52
-7.73
-3.20
1.94
7.25
12.00
15.40
17.04
16.99
15.83
14.27
12.79
11.45
9.95
7.92
5.19
1.91
-1.57
-4.90
-7.90
-10.58
-12.93
-14.83
-15.95
-15.94
-14.56
-11.89
-8.39
-4.76
-1.74
0.15
0.71
0.09
-1.36
-3.27
-5.35
-7.48
-9.56
-11.50
-13.06
-13.94
-13.86
-12.78
-10.94
-8.75
-6.67
-4.93
-3.53
-2.26
-0.84
0.86
2.85
5.03
7.29
9.55
11.69
13.54
14.78
15.10
14.23
12.13
9.04
5.36
1.63
-1.71
-4.41
-6.40
-7.76
-8.63
-9.10
-9.24
-9.12
-8.86
-8.60
-8.50
-8.63
-8.98
-9.37
-9.65
-9.64
-9.33
-8.84
-8.45
-8.53
-9.36
-10.99
-13.22
-15.55
-17.42
-18.39
-18.38
-17.60
-16.52
-15.55
-14.94
-14.72
-14.76
-14.88
-14.87
-14.54
-13.70
-12.15
-9.87
-7.04
-4.07
-1.44
0.46
1.46
1.66
1.30
0.69
0.09
-0.28
-0.22
0.40
1.59
3.22
5.00
6.59
7.70
8.26
8.33
8.10
7.73
7.35
6.98
6.56
6.02
5.30
4.39
3.30
2.11
0.85
-0.45
-1.71
-2.81
-3.55
-3.70
-3.19
-2.15
-0.92
0.05
0.40
0.04
-0.86
-1.91
-2.76
-3.23
-3.35
-3.30
-3.29
-3.49
-3.97
-4.74
-5.80
-7.07
-8.40
-9.51
-10.10
-9.89
-8.81
-7.01
-4.93
-3.08
-1.85
-1.33
-1.19
-0.87
0.18
2.18
4.80
7.31
8.86
9.00
8.02
6.96
7.23
10.02
15.74
23.77
32.64
40.63
46.48
49.89
51.55
52.78
54.84
58.44
63.43
68.86
73.14
74.20
69.98
59.14
42.42
23.46
8.44
4.31
15.87
43.34
81.78
122.79
157.93
181.92
194.01
197.02
194.77
189.62
181.45
168.51
149.12
123.18
92.46
59.65
26.95
-4.87
-36.60
-69.91
-106.25
-146.21
-189.59
-236.02
-285.12
-336.02
-386.12
-430.43
-461.92
-473.48
-460.65
-423.43
-366.50
-297.42
-224.07
-152.59
-86.80
-28.97
19.10
55.60
79.21
90.14
90.87
85.74
79.60
76.24
77.37
82.46
89.19
94.36
94.58
87.04
70.23
44.85
14.22
-16.06
-39.80
-52.36
-52.51
-42.91
-28.72
-15.24
-5.66
-0.35
2.36
4.43
6.72
8.71
9.27
7.79
4.81
1.77
0.19
0.81
3.20
6.17
8.43
9.31
9.10
8.83
9.69
12.37
16.64
21.45
25.35
27.24
26.84
24.90
22.87
22.20
23.70
27.14
31.38
34.87
36.33
35.16
31.50
25.96
19.28
11.96
4.26
-3.65
-11.50
-18.74
-24.68
-28.59
-30.02
-28.88
-25.40
-20.08
-13.48
-6.17
1.30
8.45
14.86
20.17
24.23
27.00
28.63
29.36
29.46
29.17
28.67
28.05
27.25
26.19
24.70
22.66
20.12
17.25
14.35
11.72
9.58
7.90
6.57
5.36
4.13
2.81
1.42
-0.02
-1.54
-3.18
-4.94
-6.70
-8.21
-9.20
-9.53
-9.28
-8.75
-8.31
-8.26
-8.67
-9.40
-10.10
-10.48
-10.31
-9.61
-8.56
-7.39
-6.24
-5.14
-3.94
-2.45
-0.55
1.74
4.24
6.68
8.87
10.73
12.29
13.68
14.95
16.10
17.06
17.72
18.05
18.06
17.80
17.35
16.78
16.16
15.56
15.02
14.55
14.11
13.64
13.03
12.27
11.42
10.63
10.05
9.76
9.66
9.53
9.10
8.12
6.54
4.43
2.00
-0.56
-3.11
-5.59
-7.97
-10.14
-11.90
-13.06
-13.56
-13.58
-13.44
-13.48
-13.82
-14.24
-14.28
-13.45
-11.43
-8.32
-4.50
-0.53
3.13
6.21
8.63
10.46
11.75
12.55
12.93
13.02
12.99
13.03
13.22
13.57
13.93
14.15
14.06
13.60
12.79
11.74
10.60
9.51
8.55
7.76
7.06
6.37
5.59
4.65
3.50
2.14
0.57
-1.15
-2.89
-4.49
-5.80
-6.74
-7.32
-7.66
-7.94
-8.27
-8.72
-9.30
-9.98
-10.73
-11.52
-12.26
-12.81
-13.00
-12.68
-11.77
-10.34
-8.57
-6.71
-4.96
-3.42
-2.07
-0.82
0.47
1.88
3.39
4.91
6.30
7.44
8.27
8.81
9.15
9.40
9.65
9.93
10.25
10.54
10.69
10.54
9.91
8.64
6.67
4.14
1.33
-1.39
-3.68
-5.32
-6.31
-6.78
-6.92
-6.94
-6.98
-7.10
-7.31
-7.56
-7.71
-7.59
-7.07
-6.10
-4.79
-3.32
-1.94
-0.84
-0.11
0.27
0.36
0.25
0.06
-0.12
-0.12
0.17
0.87
1.94
3.23
4.42
5.19
5.27
4.60
3.29
1.55
-0.36
-2.29
-4.16
-5.92
-7.48
-8.66
-9.33
-9.37
-8.85
-7.96
-6.94
-6.03
-5.37
-5.05
-5.11
-5.59
-6.54
-7.93
-9.57
-11.12
-12.14
-12.24
-11.20
-9.05
-6.08
-2.73
0.53
3.29
5.31
6.49
6.89
6.64
5.91
4.91
3.79
2.68
1.67
0.77
0.00
-0.64
-1.17
-1.60
-1.90
-2.00
-1.78
-1.12
0.05
1.67
3.52
5.28
6.62
7.32
7.34
6.82
5.97
4.95
3.87
2.75
1.59
0.43
-0.64
-1.51
-2.09
-2.37
-2.42
-2.39
-2.43
-2.72
-3.37
-4.43
-5.84
-7.47
-9.08
-10.39
-11.12
-11.05
-10.07
-8.28
-5.92
-3.42
-1.25
0.11
0.41
-0.39
-2.03
-4.08
-6.08
-7.72
-8.87
-9.65
-10.28
-10.99
-11.93
-13.10
-14.40
-15.68
-16.83
-17.84
-18.93
-20.57
-23.35
-27.78
-33.99
-41.49
-49.06
-54.94
-57.28
-54.62
-46.38
-33.05
-16.20
1.97
19.12
33.27
43.18
48.56
49.98
48.65
46.03
43.50
41.98
41.93
43.25
45.53
48.10
50.24
51.31
50.87
48.77
45.31
41.12
37.03
33.75
31.55
30.16
28.90
27.07
24.20
20.33
15.86
11.37
7.41
4.33
2.34
1.51
1.81
3.12
5.17
7.49
9.52
10.69
10.68
9.47
7.40
4.97
2.68
0.76
-0.90
-2.67
-5.02
-8.24
-12.31
-16.90
-21.46
-25.44
-28.47
-30.40
-31.21
-30.96
-29.72
-27.57
-24.67
-21.28
-17.71
-14.27
-11.16
-8.39
-5.84
-3.36
-0.87
1.59
3.84
5.69
6.99
7.70
7.86
7.59
7.03
6.30
5.54
4.89
4.52
4.53
4.91
5.46
5.88
5.86
5.27
4.17
2.83
1.54
0.53
-0.18
-0.68
-1.16
-1.72
-2.44
-3.28
-4.21
-5.16
-6.05
-6.79
-7.31
-7.64
-7.91
-8.36
-9.13
-10.27
-11.61
-12.86
-13.68
-13.82
-13.21
-11.96
-10.23
-8.26
-6.23
-4.35
-2.79
-1.68
-1.08
-0.94
-1.10
-1.34
-1.47
-1.36
-1.05
-0.68
-0.46
-0.61
-1.29
-2.57
-4.44
-6.76
-9.21
-11.31
-12.46
-12.11
-10.00
-6.36
-1.94
2.28
5.46
7.43
8.75
10.51
13.71
18.72
25.00
31.27
36.07
38.41
38.07
35.50
31.43
26.50
21.01
15.14
9.16
3.66
-0.60
-2.88
-2.94
-1.13
1.64
4.29
5.98
6.39
5.79
4.75
3.80
3.18
2.74
2.09
0.89
-0.89
-2.97
-4.85
-6.01
-6.22
-5.59
-4.49
-3.47
-2.96
-3.14
-3.97
-5.18
-6.44
-7.53
-8.38
-9.05
-9.68
-10.35
-11.08
-11.78
-12.36
-12.78
-13.07
-13.29
-13.48
-13.59
-13.56
-13.31
-12.84
-12.21
-11.51
-10.87
-10.33
-9.96
-9.77
-9.75
-9.85
-9.98
-10.01
-9.80
-9.28
-8.48
-7.50
-6.42
-5.26
-3.96
-2.46
-0.76
0.95
2.38
3.21
3.33
2.87
2.16
1.54
1.18
1.00
0.74
0.17
-0.76
-1.88
-2.95
-3.77
-4.26
-4.42
-4.23
-3.58
-2.40
-0.80
0.84
1.94
2.00
0.77
-1.51
-4.28
-6.87
-8.76
-9.69
-9.67
-8.86
-7.42
-5.53
-3.38
-1.17
0.87
2.59
3.95
4.97
5.74
6.35
6.86
7.29
7.66
7.93
8.05
7.96
7.55
6.76
5.61
4.23
2.86
1.77
1.19
1.17
1.59
2.23
2.80
3.11
3.12
2.89
2.55
2.21
1.94
1.79
1.84
2.15
2.72
3.43
4.03
4.29
4.07
3.39
2.40
1.25
0.00
-1.37
-2.92
-4.58
-6.18
-7.48
-8.30
-8.56
-8.33
-7.71
-6.79
-5.61
-4.24
-2.77
-1.40
-0.31
0.38
0.69
0.77
0.87
1.21
1.94
3.07
4.43
5.80
6.94
7.72
8.14
8.33
8.47
8.69
9.05
9.48
9.89
10.23
10.47
10.63
10.70
10.67
10.52
10.31
10.15
10.26
10.79
11.83
13.30
15.03
16.77
18.31
19.55
20.44
20.96
21.05
20.59
19.45
17.55
14.98
11.98
8.99
6.47
4.86
4.38
5.08
6.84
9.41
12.54
15.94
19.23
21.92
23.47
23.41
21.62
18.49
14.89
11.88
10.31
10.36
11.51
12.75
13.16
12.38
10.85
9.48
9.13
10.13
12.24
14.93
17.70
20.14
21.58
20.88
16.53
7.44
-6.10
-21.86
-36.12
-45.16
-46.95
-42.17
-33.80
-25.62
-20.43
-18.97
-20.18
-22.12
-23.29
-23.17
-22.14
-20.93
-20.06
-19.71
-19.82
-20.34
-21.34
-22.80
-24.49
-25.85
-26.16
-24.81
-21.58
-16.79
-11.25
-6.03
-2.11
-0.06
0.14
-0.92
-2.38
-3.43
-3.62
-2.87
-1.39
0.61
2.96
5.54
8.14
10.37
11.79
12.13
11.41
10.02
8.49
7.18
6.12
4.99
3.46
1.42
-0.81
-2.63
-3.47
-3.04
-1.50
0.65
2.88
4.82
6.34
7.47
8.15
8.19
7.31
5.31
2.33
-1.20
-4.65
-7.48
-9.55
-11.07
-12.52
-14.31
-16.59
-19.16
-21.66
-23.77
-25.40
-26.69
-27.90
-29.18
-30.48
-31.55
-32.05
-31.72
-30.33
-27.63
-23.26
-16.83
-8.11
2.66
14.60
26.31
36.27
43.30
46.97
47.58
45.99
43.20
40.03
36.96
34.12
31.39
28.51
25.25
21.45
17.18
12.68
8.30
4.41
1.21
-1.24
-3.06
-4.48
-5.75
-7.13
-8.76
-10.66
-12.70
-14.60
-16.11
-17.16
-17.90
-18.58
-19.40
-20.32
-21.08
-21.41
-21.24
-20.77
-20.34
-20.16
-20.08
-19.61
-18.25
-15.86
-12.81
-9.79
-7.49
-6.17
-5.56
-5.10
-4.30
-3.00
-1.42
-0.01
0.94
1.36
1.43
1.35
1.21
0.99
0.65
0.31
0.20
0.62
1.75
3.52
5.67
7.83
9.78
11.41
12.82
14.18
15.64
17.31
19.18
21.15
22.97
24.22
24.40
23.00
19.76
14.79
8.70
2.41
-3.08
-7.06
-9.31
-10.09
-10.10
-10.10
-10.79
-12.70
-16.29
-21.86
-29.48
-38.74
-48.68
-57.94
-65.16
-69.49
-70.88
-69.94
-67.63
-64.87
-62.28
-60.20
-58.82
-58.17
-58.09
-58.10
-57.33
-54.72
-49.37
-40.90
-29.71
-16.91
-3.95
7.92
18.20
27.34
36.41
46.55
58.28
71.14
83.76
94.52
102.21
106.63
108.77
110.60
114.54
122.80
136.57
155.43
177.23
198.52
215.48
225.23
226.55
219.98
207.27
190.42
171.02
149.94
127.29
102.24
73.14
37.97
-4.35
-52.40
-101.21
-142.93
-169.48
-175.97
-163.17
-137.57
-108.80
-85.65
-72.93
-70.58
-75.23
-82.88
-91.17
-99.82
-109.60
-120.73
-131.70
-139.49
-140.73
-133.31
-117.51
-96.45
-75.24
-59.24
-52.33
-55.45
-66.28
-80.04
-91.10
-94.56
-87.57
-69.86
-43.85
-14.30
12.40
29.62
32.40
19.30
-6.47
-37.59
-64.79
-79.94
-78.69
-61.65
-33.55
-1.12
29.22
52.91
67.83
73.88
72.40
65.37
55.09
43.69
32.80
23.34
15.50
8.87
2.74
-3.57
-10.41
-17.63
-24.60
-30.26
-33.34
-32.80
-28.16
-19.89
-9.32
1.66
11.23
18.24
22.42
24.39
25.21
25.86
26.84
28.13
29.34
30.06
30.16
29.83
29.51
29.57
30.11
30.91
31.52
31.52
30.71
29.25
27.51
25.91
24.67
23.70
22.77
21.61
20.15
18.47
16.83
15.37
14.14
13.06
12.06
11.16
10.46
10.10
10.05
10.17
10.15
9.72
8.76
7.35
5.69
3.93
2.13
0.16
-2.17
-4.93
-7.91
-10.64
-12.47
-12.83
-11.48
-8.65
-5.01
-1.41
1.41
3.11
3.81
4.02
4.41
5.50
7.45
9.94
12.38
14.20
15.16
15.55
16.09
17.42
19.82
23.20
27.40
32.73
39.99
49.94
62.25
75.22
86.39
94.18
99.16
104.04
111.83
123.52
136.72
146.71
149.01
142.01
127.86
111.14
96.36
85.92
79.75
76.43
74.67
74.07
74.73
76.42
77.91
77.35
73.13
64.63
52.53
38.48
24.22
10.84
-1.57
-13.75
-26.78
-41.34
-57.43
-74.61
-92.61
-111.82
-133.12
-156.88
-181.79
-204.31
-219.20
-221.13
-206.47
-174.44
-127.27
-69.50
-6.87
54.45
108.37
149.27
172.64
175.90
159.37
126.71
84.63
41.51
5.34
-18.34
-27.54
-23.61
-9.76
10.75
35.85
64.84
97.62
133.57
170.91
206.60
236.88
258.06
267.24
262.77
244.70
214.80
176.37
133.50
90.07
48.62
9.98
-26.42
-61.64
-96.34
-130.31
-162.86
-193.18
-220.99
-246.71
-271.18
-295.60
-321.63
-351.49
-387.75
-432.15
-483.85
-538.20
-586.91
-620.28
-630.60
-615.21
-577.46
-525.10
-466.99
-409.82
-356.63
-307.29
-260.23
-214.05
-167.95
