1527124069.00
64.000000
-0.00
-0.00
-0.00
-0.00
-0.00
-0.00
-0.00
-0.00
-0.00
-0.00
0.00
0.01
0.01
-0.00
-0.03
-0.05
-0.05
0.00
0.13
0.36
0.66
1.01
1.37
1.72
2.06
2.40
2.79
3.24
3.80
4.42
5.06
5.66
6.20
6.68
7.15
7.68
8.31
9.15
10.09
11.05
11.88
12.56
13.13
13.75
14.66
16.00
17.98
20.38
22.92
25.28
27.30
29.09
31.00
33.49
36.90
41.59
47.17
53.08
58.70
63.68
68.11
72.51
77.62
83.98
92.07
101.33
110.86
119.73
127.37
133.89
140.04
147.25
154.25
163.21
174.53
188.09
202.56
215.05
221.43
217.37
199.78
167.86
123.81
71.08
13.53
-45.88
-105.58
-164.88
-223.33
-280.08
-334.10
-384.21
-430.16
-472.00
-509.64
-542.15
-567.54
-583.20
-586.58
-576.28
-552.31
-516.52
-471.83
-421.63
-369.26
-317.35
-267.37
-219.09
-170.76
-119.62
-63.53
-2.23
61.92
124.36
179.94
224.76
257.33
278.56
290.68
295.83
295.34
289.79
279.70
266.14
250.77
235.32
220.93
207.80
195.31
182.53
168.82
154.18
139.19
124.75
111.66
100.30
90.51
81.70
73.21
64.56
55.72
47.02
38.98
32.03
26.33
21.81
18.03
14.57
11.19
7.85
4.63
1.68
-0.90
-3.05
-4.76
-6.10
-7.14
-7.94
-8.56
-9.00
-9.24
-9.26
-9.11
-8.85
-8.60
-8.44
-8.34
-8.25
-8.08
-7.77
-7.35
-6.90
-6.51
-6.24
-6.06
-5.87
-5.55
-5.00
-4.24
-3.39
-2.63
-2.13
-1.94
-1.97
-2.04
-2.00
-1.81
-1.51
-1.26
-1.22
-1.43
-1.83
-2.25
-2.54
-2.59
-2.40
-2.04
-1.63
-1.27
-1.03
-0.95
-1.05
-1.30
-1.60
-1.81
-1.80
-1.52
-1.03
-0.51
-0.17
-0.13
-0.35
-0.64
-0.81
-0.72
-0.41
-0.00
0.35
0.57
0.71
0.84
1.06
1.38
1.73
2.03
2.28
2.52
2.89
3.45
4.16
4.90
5.51
5.87
5.92
5.68
5.17
4.38
3.36
2.11
0.72
-0.66
-1.92
-3.00
-3.90
-4.67
-5.31
-5.82
-6.16
-6.33
-6.38
-6.34
-6.23
-6.04
-5.73
-5.32
-4.85
-4.39
-3.97
-3.63
-3.33
-3.08
-2.90
-2.81
-2.83
-2.92
-3.00
-2.94
-2.71
-2.31
-1.82
-1.36
-1.03
-0.86
-0.84
-0.91
-0.99
-1.02
-1.00
-0.94
-0.86
-0.77
-0.66
-0.51
-0.34
-0.15
0.06
0.30
0.59
0.94
1.28
1.53
1.64
1.60
1.45
1.26
1.09
0.94
0.78
0.61
0.47
0.40
0.47
0.65
0.90
1.10
1.20
1.24
1.28
1.40
1.58
1.73
1.69
1.36
0.74
-0.04
-0.76
-1.23
-1.33
-1.11
-0.70
-0.28
-0.01
0.08
0.04
-0.03
-0.08
-0.11
-0.21
-0.47
-0.94
-1.60
-2.31
-2.92
-3.30
-3.38
-3.23
-2.93
-2.58
-2.19
-1.72
-1.11
-0.39
0.34
0.90
1.13
0.98
0.58
0.12
-0.17
-0.20
0.07
0.55
1.12
1.68
2.12
2.39
2.47
2.38
2.20
2.03
1.91
1.87
1.86
1.86
1.80
1.66
1.44
1.14
0.82
0.53
0.31
0.20
0.17
0.20
0.25
0.32
0.40
0.48
0.55
0.56
0.48
0.33
0.17
0.04
-0.06
-0.16
-0.34
-0.61
-0.94
-1.26
-1.53
-1.73
-1.93
-2.14
-2.35
-2.46
-2.35
-1.94
-1.27
-0.50
0.17
0.59
0.72
0.62
0.45
0.37
0.46
0.70
0.97
1.12
1.06
0.79
0.41
0.07
-0.10
-0.08
0.07
0.22
0.24
0.14
-0.01
-0.11
-0.06
0.12
0.33
0.45
0.43
0.27
0.05
-0.14
-0.23
-0.22
-0.19
-0.21
-0.37
-0.69
-1.15
-1.63
-2.03
-2.27
-2.34
-2.30
-2.19
-2.06
-1.87
-1.63
-1.35
-1.08
-0.94
-0.93
-1.04
-1.13
-1.09
-0.87
-0.52
-0.14
0.17
0.41
0.63
0.92
1.29
1.65
1.88
1.88
1.63
1.22
0.80
0.50
0.40
0.45
0.54
0.55
0.43
0.20
-0.06
-0.26
-0.34
-0.33
-0.28
-0.26
-0.30
-0.37
-0.43
-0.42
-0.33
-0.21
-0.12
-0.16
-0.35
-0.68
-1.12
-1.58
-2.01
-2.36
-2.59
-2.66
-2.55
-2.25
-1.82
-1.36
-0.97
-0.71
-0.56
-0.42
-0.21
0.10
0.45
0.73
0.86
0.83
0.73
0.70
0.84
1.15
1.54
1.87
2.03
2.01
1.89
1.76
1.68
1.65
1.61
1.51
1.36
1.22
1.18
1.30
1.56
1.85
2.05
2.05
1.80
1.37
0.84
0.30
-0.17
-0.55
-0.82
-0.97
-1.02
-0.98
-0.91
-0.91
-1.01
-1.21
-1.46
-1.66
-1.71
-1.58
-1.29
-0.89
-0.44
-0.00
0.37
0.64
0.80
0.85
0.85
0.86
0.91
1.00
1.08
1.05
0.86
0.54
0.15
-0.19
-0.36
-0.33
-0.13
0.16
0.45
0.67
0.78
0.80
0.72
0.54
0.22
-0.23
-0.77
-1.27
-1.61
-1.71
-1.57
-1.32
-1.11
-1.08
-1.28
-1.70
-2.23
-2.76
-3.16
-3.35
-3.26
-2.90
-2.32
-1.59
-0.81
-0.09
0.49
0.88
1.08
1.08
0.94
0.72
0.52
0.41
0.45
0.64
0.91
1.13
1.21
1.11
0.87
0.60
0.42
0.38
0.47
0.61
0.70
0.69
0.60
0.47
0.34
0.22
0.08
-0.10
-0.31
-0.52
-0.71
-0.86
-0.97
-1.05
-1.11
-1.15
-1.15
-1.11
-1.05
-0.95
-0.76
-0.41
0.15
0.93
1.84
2.74
3.50
4.05
4.37
4.50
4.52
4.48
4.45
4.46
4.54
4.69
4.91
5.21
5.62
6.19
6.94
7.88
8.96
10.08
11.16
12.19
13.20
14.31
15.61
17.16
18.92
20.86
22.90
25.03
27.27
29.68
32.30
35.13
38.11
41.17
44.29
47.52
50.99
54.76
58.88
63.27
67.88
72.76
78.08
83.97
90.24
96.14
100.31
101.13
97.27
88.22
74.48
57.32
38.18
18.06
-2.76
-24.55
-47.69
-72.20
-97.56
-122.91
-147.45
-170.68
-192.25
-211.47
-227.13
-237.70
-242.08
-240.48
-234.73
-227.60
-221.43
-216.61
-211.16
-201.49
-184.29
-158.36
-125.40
-89.33
-54.66
-24.73
-0.87
17.39
31.32
42.05
50.22
56.03
59.78
62.16
64.12
66.50
69.56
72.89
75.54
76.53
75.27
71.83
66.93
61.62
56.89
53.34
50.97
49.30
47.64
45.43
42.44
38.83
35.03
31.55
28.69
26.55
24.94
23.54
22.02
20.12
17.80
15.15
12.43
9.89
7.73
6.05
4.84
4.05
3.64
3.69
4.34
5.71
7.84
10.59
13.65
16.60
19.06
20.78
21.72
21.97
21.74
21.23
20.62
20.04
19.55
19.18
18.88
18.58
18.14
17.46
16.47
15.20
13.77
12.34
11.06
9.97
8.99
7.95
6.66
4.97
2.84
0.41
-2.10
-4.42
-6.32
-7.65
-8.39
-8.55
-8.13
-7.14
-5.56
-3.45
-1.00
1.51
3.77
5.52
6.62
7.10
7.06
6.67
6.10
5.59
5.33
5.44
5.86
6.36
6.57
6.19
5.09
3.48
1.74
0.31
-0.55
-0.79
-0.64
-0.41
-0.38
-0.63
-1.13
-1.71
-2.27
-2.77
-3.30
-3.97
-4.84
-5.84
-6.82
-7.57
-7.97
-8.04
-7.94
-7.88
-7.99
-8.32
-8.82
-9.46
-10.23
-11.19
-12.28
-13.28
-13.75
-13.20
-11.31
-8.13
-4.16
-0.16
3.07
5.01
5.54
4.85
3.32
1.34
-0.71
-2.50
-3.72
-4.16
-3.73
-2.56
-1.02
0.43
1.37
1.55
0.96
-0.23
-1.72
-3.20
-4.39
-5.09
-5.21
-4.70
-3.62
-2.03
-0.02
2.37
5.04
7.90
10.76
13.38
15.51
16.96
17.63
17.56
16.87
15.70
14.17
12.37
10.37
8.28
6.22
4.32
2.70
1.47
0.70
0.40
0.56
1.12
1.98
2.97
3.93
4.69
5.15
5.32
5.29
5.22
5.27
5.52
5.95
6.46
6.89
7.14
7.15
6.91
6.49
5.91
5.22
4.45
3.65
2.90
2.26
1.71
1.15
0.48
-0.34
-1.24
-2.06
-2.61
-2.80
-2.63
-2.26
-1.85
-1.55
-1.45
-1.55
-1.80
-2.13
-2.43
-2.67
-2.82
-2.92
-3.02
-3.14
-3.30
-3.47
-3.63
-3.81
-4.05
-4.37
-4.77
-5.17
-5.52
-5.76
-5.91
-5.96
-5.94
-5.83
-5.59
-5.23
-4.78
-4.35
-4.04
-3.97
-4.15
-4.54
-5.04
-5.52
-5.86
-6.02
-5.99
-5.80
-5.48
-5.04
-4.50
-3.85
-3.12
-2.29
-1.36
-0.35
0.68
1.61
2.33
2.73
2.85
2.80
2.75
2.81
3.00
3.28
3.56
3.83
4.09
4.33
4.49
4.44
4.06
3.32
2.34
1.37
0.64
0.31
0.38
0.72
1.16
1.57
1.86
2.03
2.08
2.03
1.92
1.83
1.82
1.90
2.04
2.16
2.14
1.93
1.59
1.26
1.07
1.12
1.42
1.88
2.43
2.99
3.54
4.01
4.34
4.40
4.14
3.53
2.71
1.90
1.35
1.24
1.59
2.24
2.92
3.41
3.57
3.46
3.25
3.11
3.12
3.21
3.25
3.11
2.78
2.35
1.94
1.62
1.38
1.14
0.85
0.55
0.33
0.26
0.32
0.38
0.30
-0.05
-0.62
-1.27
-1.80
-2.06
-2.07
-1.94
-1.84
-1.83
-1.86
-1.80
-1.53
-1.01
-0.39
0.16
0.51
0.65
0.68
0.72
0.84
1.01
1.13
1.15
1.10
1.07
1.17
1.42
1.72
1.93
1.93
1.73
1.43
1.19
1.09
1.09
1.07
0.91
0.55
0.07
-0.41
-0.74
-0.84
-0.75
-0.53
-0.30
-0.13
-0.07
-0.13
-0.28
-0.47
-0.65
-0.78
-0.87
-0.95
-1.08
-1.26
-1.49
-1.74
-1.94
-2.05
-2.05
-1.93
-1.68
-1.33
-0.92
-0.51
-0.13
0.19
0.46
0.70
0.94
1.19
1.43
1.66
1.88
2.09
2.29
2.49
2.68
2.88
3.09
3.37
3.73
4.20
4.75
5.33
5.86
6.27
6.53
6.65
6.73
6.90
7.29
7.98
8.96
10.14
11.37
12.51
13.51
14.38
15.20
16.04
16.94
17.88
18.82
19.78
20.84
22.14
23.72
25.51
27.23
28.56
29.18
28.94
27.91
26.29
24.33
22.22
20.08
18.00
16.04
14.35
13.08
12.37
12.29
12.82
13.83
15.20
16.89
18.93
21.46
24.58
28.24
32.14
35.85
38.87
40.82
41.47
40.60
38.00
33.45
26.92
18.71
9.63
0.76
-6.82
-12.40
-15.83
-17.48
-17.96
-17.92
-17.79
-17.89
-18.38
-19.33
-20.70
-22.33
-23.95
-25.27
-26.01
-26.12
-25.82
-25.50
-25.46
-25.81
-26.44
-27.10
-27.64
-28.05
-28.51
-29.40
-30.89
-32.74
-34.42
-35.23
-34.67
-32.46
-28.61
-23.37
-17.64
-12.26
-7.74
-4.21
-1.65
-0.11
0.21
-0.97
-3.95
-9.85
-19.17
-31.26
-44.43
-56.67
-66.30
-72.29
-74.35
-72.84
-70.12
-68.29
-68.30
-69.97
-72.85
-76.87
-82.24
-89.03
-96.82
-106.49
-117.88
-129.42
-138.87
-144.92
-147.95
-149.60
-151.70
-143.10
-118.19
-78.92
-33.24
11.27
50.53
82.97
107.93
125.14
135.01
137.35
133.06
124.18
113.64
103.87
96.04
90.24
86.10
83.27
80.15
75.64
69.97
64.30
59.65
56.26
53.74
51.51
49.10
45.26
39.16
30.80
21.00
11.01
2.28
-3.71
-5.73
-3.41
1.95
7.99
12.34
13.51
11.37
6.97
1.90
-2.47
-5.64
-8.04
-10.35
-12.78
-14.91
-16.00
-15.54
-13.66
-11.00
-8.44
-6.56
-5.52
-4.99
-4.50
-3.68
-2.46
-1.02
0.33
1.33
1.90
2.13
2.25
2.53
3.13
4.05
5.11
6.02
6.48
6.36
5.68
4.66
3.60
2.77
2.35
2.38
2.82
3.54
4.42
5.32
6.12
6.73
7.12
7.30
7.34
7.30
7.24
7.18
7.09
6.94
6.71
6.40
6.08
5.84
5.78
5.93
6.15
6.25
5.95
5.08
3.65
1.84
-0.09
-1.89
-3.39
-4.52
-5.28
-5.69
-5.81
-5.71
-5.54
-5.45
-5.55
-5.82
-6.20
-6.59
-6.95
-7.26
-7.55
-7.77
-7.90
-7.86
-7.65
-7.30
-6.89
-6.48
-6.11
-5.72
-5.32
-4.88
-4.45
-4.12
-3.98
-4.04
-4.20
-4.30
-4.15
-3.66
-2.86
-1.94
-1.17
-0.74
-0.72
-0.95
-1.16
-1.14
-0.81
-0.28
0.21
0.44
0.30
-0.13
-0.64
-1.00
-1.07
-0.88
-0.59
-0.41
-0.43
-0.62
-0.85
-0.95
-0.88
-0.73
-0.68
-0.85
-1.24
-1.73
-2.10
-2.24
-2.15
-1.96
-1.87
-1.98
-2.27
-2.62
-2.86
-2.93
-2.86
-2.76
-2.72
-2.78
-2.86
-2.88
-2.73
-2.38
-1.86
-1.21
-0.48
0.29
1.05
1.75
2.29
2.59
2.61
2.35
1.89
1.39
1.01
0.89
1.09
1.61
2.29
2.99
3.54
3.89
4.09
4.25
4.48
4.79
5.15
5.46
5.65
5.71
5.72
5.76
5.92
6.19
6.52
6.83
7.07
7.19
7.23
7.20
7.13
7.05
6.96
6.84
6.67
6.40
5.94
5.24
4.28
3.13
1.96
0.99
0.37
0.17
0.29
0.54
0.70
0.65
0.37
-0.08
-0.61
-1.18
-1.76
-2.35
-2.91
-3.33
-3.51
-3.39
-2.96
-2.30
-1.56
-0.83
-0.16
0.43
0.99
1.52
2.01
2.42
2.69
2.80
2.76
2.63
2.48
2.40
2.47
2.71
3.11
3.60
4.11
4.54
4.82
4.92
4.84
4.61
4.28
3.93
3.59
3.31
3.07
2.79
2.41
1.88
1.24
0.60
0.09
-0.20
-0.25
-0.19
-0.17
-0.32
-0.72
-1.30
-1.94
-2.50
-2.90
-3.11
-3.12
-3.01
-2.80
-2.59
-2.47
-2.53
-2.81
-3.31
-3.91
-4.49
-4.94
-5.22
-5.37
-5.44
-5.51
-5.56
-5.52
-5.32
-4.90
-4.24
-3.40
-2.47
-1.54
-0.70
-0.02
0.48
0.81
0.98
1.07
1.11
1.15
1.19
1.20
1.14
0.99
0.77
0.57
0.50
0.64
0.99
1.48
1.99
2.42
2.70
2.84
2.84
2.70
2.43
2.03
1.55
1.07
0.67
0.39
0.22
0.13
0.08
0.03
-0.03
-0.09
-0.16
-0.23
-0.32
-0.45
-0.65
-0.93
-1.27
-1.63
-1.94
-2.17
-2.31
-2.39
-2.42
-2.38
-2.27
-2.11
-1.96
-1.93
-2.06
-2.30
-2.46
-2.38
-1.99
-1.37
-0.71
-0.16
0.21
0.47
0.70
0.91
1.03
1.00
0.80
0.53
0.34
0.32
0.40
0.45
0.37
0.12
-0.19
-0.41
-0.47
-0.35
-0.13
0.14
0.41
0.67
0.88
0.99
0.92
0.68
0.32
0.01
-0.14
-0.08
0.13
0.32
0.37
0.20
-0.13
-0.50
-0.79
-0.97
-1.04
-1.04
-1.02
-0.99
-0.93
-0.84
-0.79
-0.85
-1.11
-1.59
-2.22
-2.88
-3.42
-3.72
-3.77
-3.59
-3.26
-2.85
-2.38
-1.88
-1.37
-0.91
-0.60
-0.47
-0.54
-0.69
-0.80
-0.75
-0.50
-0.11
0.32
0.69
0.93
1.00
0.94
0.78
0.58
0.41
0.34
0.40
0.58
0.84
1.09
1.25
1.32
1.31
1.31
1.39
1.61
1.92
2.24
2.45
2.47
2.29
1.97
1.61
1.33
1.13
0.97
0.75
0.43
-0.00
-0.46
-0.85
-1.09
-1.20
-1.22
-1.26
-1.39
-1.62
-1.89
-2.10
-2.18
-2.13
-2.02
-1.93
-1.93
-1.96
-1.92
-1.71
-1.29
-0.76
-0.28
-0.01
-0.00
-0.14
-0.26
-0.22
0.02
0.33
0.56
0.57
0.32
-0.13
-0.63
-1.05
-1.28
-1.27
-0.99
-0.47
0.21
0.95
1.58
1.97
2.03
1.76
1.23
0.58
-0.05
-0.56
-0.87
-0.95
-0.84
-0.62
-0.40
-0.31
-0.43
-0.78
-1.24
-1.66
-1.89
-1.87
-1.68
-1.50
-1.48
-1.68
-2.04
-2.40
-2.61
-2.62
-2.46
-2.21
-1.92
-1.60
-1.22
-0.76
-0.25
0.22
0.56
0.68
0.59
0.34
0.05
-0.18
-0.25
-0.13
0.15
0.51
0.85
1.08
1.17
1.15
1.11
1.13
1.27
1.50
1.76
1.95
2.02
1.95
1.74
1.44
1.08
0.66
0.24
-0.13
-0.36
-0.40
-0.22
0.10
0.46
0.73
0.81
0.66
0.29
-0.20
-0.70
-1.10
-1.36
-1.47
-1.54
-1.68
-1.96
-2.36
-2.77
-3.02
-3.00
-2.72
-2.29
-1.88
-1.61
-1.50
-1.50
-1.46
-1.30
-0.97
-0.58
-0.25
-0.10
-0.15
-0.28
-0.35
-0.22
0.10
0.49
0.76
0.81
0.67
0.49
0.43
0.54
0.77
0.93
0.94
0.78
0.56
0.41
0.38
0.46
0.54
0.57
0.52
0.45
0.38
0.36
0.37
0.40
0.42
0.43
0.43
0.38
0.30
0.19
0.09
0.01
-0.05
-0.13
-0.29
-0.54
-0.88
-1.25
-1.62
-1.96
-2.25
-2.45
-2.53
-2.45
-2.22
-1.87
-1.49
-1.17
-0.92
-0.71
-0.45
-0.12
0.27
0.67
1.01
1.27
1.47
1.66
1.87
2.10
2.28
2.35
2.23
1.92
1.48
1.05
0.74
0.66
0.82
1.12
1.46
1.70
1.82
1.83
1.77
1.66
1.49
1.26
1.00
0.78
0.66
0.65
0.69
0.65
0.48
0.20
-0.07
-0.23
-0.25
-0.22
-0.28
-0.54
-1.00
-1.57
-2.13
-2.58
-2.90
-3.09
-3.15
-3.05
-2.77
-2.31
-1.74
-1.17
-0.75
-0.52
-0.45
-0.42
-0.29
0.00
0.42
0.88
1.22
1.36
1.26
0.98
0.65
0.43
0.43
0.73
1.28
1.94
2.50
2.79
2.75
2.45
2.04
1.65
1.37
1.16
0.95
0.72
0.47
0.32
0.33
0.50
0.74
0.87
0.80
0.53
0.15
-0.15
-0.28
-0.21
-0.02
0.15
0.21
0.11
-0.12
-0.43
-0.80
-1.23
-1.73
-2.24
-2.68
-2.93
-2.95
-2.77
-2.52
-2.30
-2.15
-2.04
-1.92
-1.73
-1.49
-1.22
-0.91
-0.54
-0.09
0.42
0.91
1.25
1.37
1.32
1.21
1.16
1.21
1.30
1.31
1.20
1.00
0.87
0.91
1.15
1.50
1.81
1.95
1.94
1.93
2.11
2.58
3.29
4.04
4.61
4.82
4.71
4.40
4.06
3.79
3.56
3.29
2.94
2.55
2.20
1.95
1.81
1.67
1.42
1.02
0.54
0.09
-0.25
-0.46
-0.64
-0.88
-1.25
-1.76
-2.35
-2.92
-3.40
-3.71
-3.81
-3.71
-3.44
-3.05
-2.61
-2.21
-1.88
-1.65
-1.47
-1.31
-1.10
-0.80
-0.40
0.09
0.63
1.16
1.63
2.02
2.31
2.52
2.66
2.72
2.67
2.48
2.16
1.73
1.30
0.93
0.68
0.57
0.55
0.57
0.63
0.76
1.00
1.35
1.75
2.05
2.12
1.89
1.41
0.80
0.17
-0.40
-0.93
-1.41
-1.84
-2.17
-2.37
-2.41
-2.35
-2.27
-2.25
-2.28
-2.34
-2.36
-2.32
-2.20
-2.04
-1.83
-1.56
-1.23
-0.86
-0.49
-0.22
-0.06
-0.02
-0.03
0.00
0.12
0.29
0.44
0.49
0.42
0.27
0.11
-0.00
-0.05
-0.06
-0.08
-0.12
-0.15
-0.14
-0.10
-0.07
-0.10
-0.25
-0.48
-0.71
-0.82
-0.75
-0.51
-0.18
0.13
0.34
0.39
0.28
0.04
-0.24
-0.51
-0.71
-0.77
-0.69
-0.48
-0.17
0.19
0.56
0.90
1.20
1.47
1.77
2.13
2.61
3.23
3.94
4.68
5.38
5.99
6.45
6.75
6.86
6.74
6.39
5.83
5.14
4.40
3.70
3.12
2.66
2.31
2.07
1.96
2.00
2.17
2.44
2.70
2.91
3.02
3.05
3.00
2.82
2.44
1.80
0.94
0.04
-0.67
-0.99
-0.86
-0.40
0.16
0.63
0.88
0.95
0.93
0.92
0.95
1.00
1.02
0.95
0.78
0.52
0.18
-0.19
-0.58
-0.95
-1.30
-1.65
-2.00
-2.38
-2.74
-3.04
-3.26
-3.42
-3.59
-3.85
-4.22
-4.65
-5.03
-5.24
-5.21
-4.96
-4.53
-4.03
-3.52
-3.03
-2.56
-2.12
-1.70
-1.33
-0.99
-0.69
-0.40
-0.08
0.27
0.62
0.93
1.15
1.25
1.26
1.26
1.36
1.61
2.02
2.50
2.93
3.20
3.24
3.07
2.77
2.43
2.13
1.93
1.80
1.75
1.75
1.78
1.81
1.76
1.61
1.38
1.14
1.00
1.03
1.20
1.37
1.38
1.15
0.65
0.02
-0.62
-1.13
-1.47
-1.68
-1.80
-1.88
-2.00
-2.17
-2.43
-2.78
-3.16
-3.51
-3.73
-3.81
-3.78
-3.71
-3.65
-3.63
-3.60
-3.53
-3.39
-3.18
-2.92
-2.59
-2.18
-1.68
-1.10
-0.50
0.04
0.46
0.78
1.04
1.30
1.58
1.83
2.01
2.07
2.01
1.86
1.70
1.57
1.50
1.50
1.57
1.69
1.83
1.97
2.06
2.09
2.10
2.08
2.06
2.06
2.06
2.03
1.94
1.76
1.50
1.19
0.85
0.55
0.31
0.17
0.14
0.22
0.39
0.60
0.76
0.79
0.61
0.25
-0.21
-0.62
-0.87
-0.93
-0.87
-0.81
-0.79
-0.86
-0.97
-1.15
-1.37
-1.66
-1.95
-2.13
-2.08
-1.75
-1.18
-0.56
-0.05
0.22
0.29
0.23
0.14
0.06
-0.06
-0.28
-0.61
-0.97
-1.23
-1.29
-1.12
-0.79
-0.47
-0.30
-0.32
-0.51
-0.71
-0.80
-0.73
-0.54
-0.38
-0.39
-0.63
-1.07
-1.62
-2.18
-2.72
-3.24
-3.79
-4.38
-4.99
-5.55
-6.00
-6.28
-6.36
-6.25
-6.01
-5.69
-5.35
-5.00
-4.60
-4.09
-3.39
-2.48
-1.47
-0.53
0.17
0.53
0.62
0.60
0.66
0.93
1.42
2.00
2.52
2.90
3.13
3.27
3.43
3.67
4.02
4.45
4.93
5.38
5.72
5.90
5.85
5.60
5.22
4.81
4.49
4.29
4.21
4.20
4.22
4.25
4.31
4.42
4.58
4.74
4.80
4.65
4.20
3.46
2.53
1.58
0.77
0.19
-0.18
-0.46
-0.77
-1.19
-1.68
-2.13
-2.45
-2.56
-2.46
-2.19
-1.80
-1.34
-0.88
-0.49
-0.27
-0.24
-0.37
-0.55
-0.64
-0.57
-0.33
0.03
0.45
0.88
1.29
1.64
1.88
1.93
1.76
1.43
1.07
0.82
0.79
1.02
1.41
1.87
2.25
2.50
2.57
2.48
2.28
2.01
1.72
1.40
1.05
0.69
0.35
0.09
-0.01
0.15
0.54
1.10
1.64
1.99
2.04
1.77
1.27
0.67
0.11
-0.35
-0.69
-0.95
-1.14
-1.31
-1.50
-1.74
-2.07
-2.52
-3.04
-3.57
-4.02
-4.32
-4.49
-4.61
-4.77
-5.02
-5.28
-5.43
-5.31
-4.85
-4.10
-3.23
-2.45
-1.88
-1.51
-1.24
-0.92
-0.52
-0.09
0.23
0.35
0.28
0.11
0.00
0.08
0.36
0.79
1.30
1.80
2.28
2.69
3.02
3.19
3.15
2.87
2.38
1.74
1.04
0.39
-0.11
-0.39
-0.43
-0.26
-0.01
0.22
0.32
0.27
0.14
0.03
-0.01
0.00
-0.03
-0.24
-0.69
-1.34
-2.08
-2.76
-3.28
-3.60
-3.75
-3.80
-3.79
-3.74
-3.67
-3.54
-3.35
-3.09
-2.80
-2.56
-2.41
-2.37
-2.38
-2.35
-2.20
-1.94
-1.64
-1.43
-1.38
-1.48
-1.63
-1.71
-1.60
-1.32
-0.94
-0.54
-0.21
0.00
0.09
0.06
-0.10
-0.35
-0.64
-0.88
-1.00
-1.01
-0.99
-1.06
-1.32
-1.75
-2.26
-2.66
-2.84
-2.73
-2.39
-1.90
-1.34
-0.73
-0.14
0.37
0.66
0.65
0.34
-0.14
-0.57
-0.78
-0.73
-0.50
-0.24
-0.03
0.14
0.36
0.67
1.02
1.29
1.34
1.13
0.73
0.26
-0.15
-0.45
-0.66
-0.78
-0.78
-0.61
-0.21
0.41
1.14
1.84
2.35
2.60
2.61
2.44
2.18
1.90
1.63
1.41
1.26
1.22
1.28
1.41
1.54
1.62
1.65
1.68
1.80
2.06
2.47
2.94
3.38
3.68
3.85
3.91
3.92
3.89
3.78
3.52
3.10
2.57
2.06
1.72
1.63
1.74
1.89
1.94
1.81
1.55
1.32
1.26
1.43
1.82
2.30
2.78
3.17
3.43
3.51
3.39
3.06
2.58
2.09
1.70
1.49
1.44
1.46
1.45
1.39
1.35
1.42
1.63
1.91
2.13
2.15
1.93
1.55
1.11
0.71
0.38
0.08
-0.22
-0.52
-0.79
-1.01
-1.19
-1.35
-1.51
-1.70
-1.88
-2.02
-2.08
-2.04
-1.92
-1.73
-1.48
-1.23
-1.01
-0.86
-0.79
-0.80
-0.90
-1.11
-1.45
-1.92
-2.47
-3.03
-3.50
-3.87
-4.15
-4.40
-4.63
-4.82
-4.90
-4.79
-4.52
-4.14
-3.77
-3.46
-3.24
-3.04
-2.81
-2.52
-2.20
-1.90
-1.64
-1.42
-1.22
-1.01
-0.83
-0.71
-0.69
-0.73
-0.77
-0.73
-0.58
-0.38
-0.24
-0.24
-0.41
-0.65
-0.82
-0.81
-0.62
-0.35
-0.18
-0.22
-0.47
-0.83
-1.11
-1.19
-1.05
-0.74
-0.34
0.11
0.59
1.10
1.56
1.81
1.69
1.12
0.18
-0.92
-1.90
-2.54
-2.78
-2.70
-2.46
-2.26
-2.21
-2.33
-2.60
-2.96
-3.39
-3.87
-4.37
-4.86
-5.29
-5.56
-5.60
-5.35
-4.83
-4.09
-3.19
-2.22
-1.25
-0.32
0.51
1.19
1.68
1.96
2.03
1.90
1.61
1.25
0.88
0.59
0.44
0.42
0.47
0.52
0.45
0.23
-0.12
-0.49
-0.76
-0.86
-0.82
-0.76
-0.78
-0.97
-1.30
-1.65
-1.89
-1.95
-1.83
-1.63
-1.43
-1.29
-1.19
-1.11
-1.00
-0.87
-0.75
-0.68
-0.67
-0.70
-0.78
-0.88
-1.05
-1.29
-1.60
-1.93
-2.20
-2.32
-2.24
-1.98
-1.56
-1.05
-0.51
0.01
0.46
0.79
1.00
1.12
1.21
1.34
1.56
1.87
2.23
2.58
2.86
3.09
3.29
3.49
3.69
3.87
3.96
3.91
3.71
3.39
3.04
2.73
2.53
2.46
2.48
2.49
2.45
2.37
2.33
2.39
2.61
2.97
3.34
3.60
3.61
3.35
2.87
2.28
1.74
1.30
0.97
0.62
0.17
-0.43
-1.06
-1.54
-1.64
-1.29
-0.55
0.33
1.09
1.57
1.74
1.74
1.72
1.76
1.83
1.85
1.75
1.59
1.56
1.81
2.44
3.31
4.18
4.77
4.92
4.66
4.21
3.78
3.51
3.40
3.34
3.24
3.07
2.86
2.67
2.51
2.34
2.09
1.76
1.41
1.19
1.19
1.45
1.87
2.27
2.50
2.49
2.28
1.94
1.58
1.25
0.96
0.70
0.44
0.20
0.01
-0.09
-0.10
-0.01
0.17
0.37
0.54
0.58
0.43
0.04
-0.59
-1.39
-2.28
-3.15
-3.91
-4.47
-4.78
-4.84
-4.69
-4.40
-4.09
-3.81
-3.57
-3.32
-3.02
-2.65
-2.26
-1.94
-1.74
-1.67
-1.67
-1.65
-1.56
-1.38
-1.17
-0.97
-0.81
-0.66
-0.50
-0.28
0.02
0.38
0.74
1.02
1.11
0.97
0.64
0.25
-0.04
-0.10
0.11
0.49
0.89
1.16
1.25
1.19
1.05
0.89
0.71
0.44
0.01
-0.63
-1.41
-2.22
-2.89
-3.32
-3.50
-3.48
-3.41
-3.39
-3.50
-3.73
-4.04
-4.37
-4.68
-4.94
-5.09
-5.12
-5.00
-4.75
-4.45
-4.15
-3.90
-3.64
-3.32
-2.86
-2.24
-1.46
-0.59
0.33
1.22
2.04
2.71
3.16
3.37
3.37
3.28
3.22
3.28
3.42
3.54
3.51
3.27
2.89
2.49
2.22
2.15
2.27
2.46
2.59
2.53
2.22
1.71
1.07
0.43
-0.11
-0.50
-0.73
-0.84
-0.91
-1.00
-1.16
-1.44
-1.84
-2.34
-2.89
-3.38
-3.74
-3.95
-4.07
-4.21
-4.45
-4.81
-5.24
-5.59
-5.75
-5.64
-5.27
-4.71
-4.03
-3.32
-2.66
-2.11
-1.72
-1.44
-1.19
-0.86
-0.37
0.27
0.98
1.66
2.24
2.70
3.08
3.41
3.68
3.86
3.91
3.83
3.70
3.60
3.63
3.79
4.04
4.28
4.42
4.44
4.37
4.31
4.32
4.44
4.63
4.80
4.85
4.72
4.43
4.03
3.59
3.16
2.72
2.25
1.72
1.13
0.55
0.01
-0.45
-0.84
-1.17
-1.49
-1.78
-2.01
-2.14
-2.13
-2.01
-1.85
-1.71
-1.63
-1.57
-1.44
-1.20
-0.85
-0.52
-0.36
-0.50
-0.90
-1.38
-1.69
-1.63
-1.17
-0.42
0.43
1.24
1.95
2.61
3.21
3.71
4.00
3.99
3.68
3.18
2.67
2.29
2.11
2.08
2.11
2.11
2.06
1.97
1.91
1.93
2.05
2.23
2.38
2.41
2.25
1.90
1.44
1.01
0.69
0.52
0.45
0.41
0.30
0.12
-0.13
-0.40
-0.68
-0.97
-1.28
-1.63
-1.99
-2.32
-2.60
-2.83
-3.03
-3.21
-3.37
-3.46
-3.43
-3.24
-2.90
-2.45
-1.94
-1.44
-0.97
-0.57
-0.26
-0.05
0.07
0.13
0.15
0.19
0.25
0.35
0.51
0.81
1.28
1.93
2.64
3.20
3.42
3.24
2.74
2.12
1.60
1.28
1.12
0.98
0.78
0.50
0.24
0.10
0.11
0.19
0.20
0.05
-0.28
-0.66
-0.96
-1.08
-1.08
-1.07
-1.20
-1.51
-1.97
-2.46
-2.87
-3.15
-3.30
-3.38
-3.47
-3.58
-3.72
-3.86
-3.98
-4.06
-4.08
-4.05
-3.97
-3.85
-3.67
-3.43
-3.10
-2.69
-2.23
-1.77
-1.39
-1.13
-1.01
-1.00
-1.08
-1.24
-1.46
-1.70
-1.93
-2.09
-2.20
-2.27
-2.34
-2.40
-2.40
-2.22
-1.81
-1.22
-0.62
-0.23
-0.23
-0.70
-1.51
-2.45
-3.28
-3.81
-3.94
-3.71
-3.20
-2.54
-1.87
-1.31
-0.94
-0.79
-0.85
-1.04
-1.24
-1.36
-1.31
-1.11
-0.83
-0.58
-0.46
-0.53
-0.75
-1.02
-1.25
-1.38
-1.38
-1.27
-1.10
-0.86
-0.55
-0.13
0.42
1.09
1.86
2.66
3.39
3.98
4.33
4.43
4.29
4.00
3.65
3.31
3.06
2.90
2.84
2.83
2.86
2.92
2.99
3.06
3.12
3.17
3.22
3.30
3.43
3.60
3.80
3.97
4.07
4.06
3.91
3.60
3.13
2.53
1.84
1.19
0.69
0.44
0.42
0.56
0.74
0.87
0.93
0.95
0.93
0.84
0.62
0.24
-0.21
-0.57
-0.68
-0.44
0.13
0.89
1.66
2.32
2.80
3.10
3.28
3.37
3.44
3.52
3.64
3.81
3.96
4.01
3.87
3.54
3.12
2.77
2.66
2.86
3.31
3.82
4.17
4.23
3.97
3.54
3.11
2.80
2.61
2.44
2.16
1.72
1.19
0.68
0.30
0.09
-0.04
-0.16
-0.31
-0.45
-0.50
-0.44
-0.33
-0.28
-0.40
-0.74
-1.25
-1.83
-2.39
-2.84
-3.14
-3.27
-3.24
-3.10
-2.90
-2.76
-2.75
-2.86
-3.03
-3.17
-3.19
-3.10
-2.95
-2.82
-2.75
-2.69
-2.54
-2.21
-1.67
-0.98
-0.28
0.27
0.59
0.68
0.63
0.54
0.48
0.44
0.38
0.26
0.08
-0.10
-0.21
-0.18
0.04
0.44
0.99
1.62
2.20
2.62
2.77
2.63
2.22
1.66
1.08
0.55
0.11
-0.24
-0.52
-0.75
-0.92
-1.03
-1.10
-1.16
-1.23
-1.34
-1.47
-1.63
-1.82
-2.06
-2.36
-2.72
-3.11
-3.52
-3.91
-4.31
-4.72
-5.11
-5.44
-5.65
-5.68
-5.47
-5.04
-4.45
-3.80
-3.19
-2.67
-2.25
-1.92
-1.61
-1.28
-0.94
-0.62
-0.38
-0.23
-0.18
-0.18
-0.15
-0.09
-0.01
0.03
-0.03
-0.19
-0.39
-0.55
-0.62
-0.58
-0.51
-0.47
-0.50
-0.60
-0.73
-0.91
-1.20
-1.64
-2.27
-2.99
-3.66
-4.11
-4.25
-4.11
-3.78
-3.41
-3.12
-2.93
-2.83
-2.78
-2.71
-2.62
-2.48
-2.31
-2.09
-1.81
-1.47
-1.11
-0.74
-0.40
-0.08
0.22
0.57
0.99
1.52
2.15
2.87
3.62
4.36
5.01
5.53
5.85
5.97
5.92
5.76
5.57
5.43
5.37
5.39
5.47
5.55
5.53
5.36
5.03
4.58
4.17
3.90
3.85
4.00
4.25
4.46
4.53
4.40
4.07
3.59
3.05
2.53
2.11
1.83
1.70
1.66
1.59
1.39
0.98
0.40
-0.26
-0.90
-1.43
-1.82
-2.09
-2.25
-2.33
-2.30
-2.18
-1.97
-1.75
-1.56
-1.42
-1.30
-1.11
-0.79
-0.35
0.13
0.50
0.67
0.60
0.38
0.14
-0.02
-0.04
0.06
0.21
0.35
0.49
0.62
0.75
0.88
0.99
1.06
1.09
1.11
1.13
1.15
1.15
1.11
1.00
0.86
0.71
0.62
0.63
0.73
0.87
0.97
0.97
0.85
0.60
0.27
-0.11
-0.49
-0.86
-1.15
-1.33
-1.35
-1.25
-1.08
-0.94
-0.91
-1.03
-1.28
-1.63
-2.02
-2.43
-2.85
-3.24
-3.54
-3.64
-3.47
-3.02
-2.33
-1.55
-0.85
-0.35
-0.09
-0.01
0.02
0.10
0.31
0.61
0.92
1.18
1.36
1.47
1.56
1.62
1.61
1.47
1.21
0.88
0.62
0.53
0.62
0.82
0.98
0.98
0.80
0.49
0.15
-0.13
-0.32
-0.44
-0.52
-0.56
-0.57
-0.53
-0.49
-0.46
-0.49
-0.59
-0.74
-0.89
-1.00
-1.05
-1.05
-0.98
-0.86
-0.69
-0.50
-0.36
-0.38
-0.64
-1.20
-2.00
-2.91
-3.76
-4.40
-4.76
-4.84
-4.73
-4.50
-4.20
-3.83
-3.38
-2.81
-2.16
-1.47
-0.81
-0.27
0.14
0.43
0.65
0.89
1.17
1.49
1.82
2.09
2.28
2.39
2.44
2.47
2.50
2.50
2.43
2.26
1.99
1.63
1.23
0.83
0.45
0.11
-0.23
-0.61
-1.06
-1.60
-2.18
-2.72
-3.14
-3.39
-3.47
-3.43
-3.35
-3.24
-3.15
-3.06
-3.01
-3.05
-3.23
-3.56
-4.01
-4.48
-4.88
-5.14
-5.27
-5.33
-5.39
-5.49
-5.60
-5.64
-5.52
-5.17
-4.60
-3.86
-3.04
-2.19
-1.36
-0.57
0.08
0.51
0.66
0.60
0.45
0.42
0.62
1.07
1.62
2.11
2.43
2.58
2.67
2.83
3.10
3.44
3.77
4.00
4.14
4.22
4.28
4.28
4.18
3.90
3.44
2.89
2.35
1.97
1.83
1.95
2.26
2.69
3.10
3.37
3.42
3.26
2.94
2.59
2.33
2.25
2.36
2.63
3.01
3.42
3.85
4.22
4.47
4.51
4.27
3.77
3.11
2.48
2.06
1.96
2.18
2.60
3.06
3.41
3.55
3.51
3.34
3.16
3.04
2.98
2.97
2.94
2.86
2.72
2.53
2.31
2.12
1.96
1.84
1.75
1.64
1.47
1.20
0.82
0.33
-0.24
-0.91
-1.65
-2.47
-3.34
-4.19
-4.94
-5.53
-5.93
-6.19
-6.42
-6.70
-7.06
-7.40
-7.57
-7.40
-6.79
-5.83
-4.70
-3.66
-2.85
-2.29
-1.89
-1.53
-1.14
-0.75
-0.40
-0.10
0.17
0.50
0.96
1.52
2.14
2.73
3.21
3.57
3.85
4.09
4.32
4.54
4.67
4.63
4.34
3.82
3.17
2.55
2.08
1.81
1.69
1.62
1.51
1.32
1.06
0.74
0.38
-0.04
-0.53
-1.06
-1.59
-2.06
-2.44
-2.75
-3.01
-3.24
-3.45
-3.66
-3.87
-4.11
-4.39
-4.67
-4.91
-5.05
-5.00
-4.75
-4.25
-3.52
-2.55
-1.43
-0.28
0.73
1.43
1.75
1.70
1.39
0.96
0.55
0.23
0.06
0.05
0.21
0.50
0.88
1.26
1.55
1.69
1.64
1.42
1.05
0.60
0.13
-0.29
-0.61
-0.84
-1.01
-1.13
-1.21
-1.20
-1.05
-0.76
-0.39
-0.08
0.04
-0.13
-0.58
-1.22
-1.95
-2.66
-3.30
-3.81
-4.19
-4.43
-4.51
-4.45
-4.26
-3.99
-3.70
-3.44
-3.22
-3.04
-2.86
-2.66
-2.44
-2.22
-2.06
-1.99
-2.00
-2.01
-1.93
-1.70
-1.33
-0.91
-0.53
-0.29
-0.18
-0.15
-0.09
0.04
0.25
0.50
0.77
1.04
1.36
1.75
2.23
2.71
3.10
3.30
3.27
3.07
2.82
2.64
2.65
2.84
3.13
3.38
3.46
3.26
2.75
2.01
1.17
0.39
-0.18
-0.46
-0.45
-0.21
0.18
0.66
1.19
1.75
2.29
2.74
3.02
3.09
2.95
2.69
2.44
2.29
2.31
2.50
2.81
3.14
3.44
3.63
3.69
3.63
3.50
3.34
3.23
3.13
3.01
2.81
2.51
2.15
1.82
1.62
1.61
1.76
1.94
2.03
1.94
1.63
1.18
0.70
0.29
-0.02
-0.28
-0.57
-0.96
-1.40
-1.78
-1.94
-1.79
-1.37
-0.85
-0.39
-0.07
0.13
0.29
0.49
0.72
0.91
1.00
1.02
1.05
1.24
1.65
2.25
2.93
3.55
4.01
4.29
4.42
4.47
4.48
4.45
4.34
4.12
3.79
3.39
3.00
2.70
2.48
2.27
1.90
1.28
0.39
-0.72
-1.87
-2.90
-3.67
-4.11
-4.18
-3.93
-3.43
-2.80
-2.24
-1.91
-1.93
-2.32
-2.99
-3.79
-4.56
-5.20
-5.64
-5.88
-5.90
-5.69
-5.25
-4.57
-3.69
-2.67
-1.58
-0.51
0.45
1.27
1.89
2.30
2.52
2.54
2.38
2.04
1.62
1.23
1.00
1.02
1.28
1.66
2.02
2.22
2.22
2.10
1.95
1.87
1.91
2.00
2.06
1.97
1.65
1.11
0.43
-0.25
-0.80
-1.14
-1.26
-1.19
-0.97
-0.61
-0.17
0.29
0.67
0.83
0.69
0.23
-0.48
-1.35
-2.24
-3.07
-3.77
-4.28
-4.53
-4.48
-4.14
-3.62
-3.08
-2.66
-2.44
-2.40
-2.46
-2.54
-2.52
-2.36
-2.00
-1.43
-0.71
0.05
0.67
1.02
1.04
0.82
0.56
0.42
0.50
0.75
1.06
1.32
1.50
1.62
1.73
1.82
1.86
1.79
1.57
1.23
0.82
0.43
0.10
-0.14
-0.33
-0.50
-0.70
-0.92
-1.13
-1.26
-1.31
-1.29
-1.31
-1.47
-1.87
-2.49
-3.21
-3.84
-4.23
-4.31
-4.12
-3.78
-3.41
-3.08
-2.75
-2.36
-1.84
-1.21
-0.56
-0.02
0.34
0.53
0.62
0.70
0.82
0.97
1.08
1.11
1.04
0.91
0.80
0.75
0.78
0.83
0.83
0.69
0.39
-0.06
-0.56
-1.00
-1.25
-1.29
-1.16
-0.98
-0.84
-0.78
-0.75
-0.68
-0.55
-0.41
-0.34
-0.44
-0.69
-0.99
-1.19
-1.18
-0.91
-0.46
0.06
0.55
0.95
1.26
1.53
1.82
2.19
2.71
3.36
4.08
4.74
5.23
5.49
5.54
5.48
5.36
5.18
4.91
4.46
3.84
3.12
2.41
1.79
1.27
0.77
0.24
-0.34
-0.94
-1.46
-1.87
-2.16
-2.38
-2.56
-2.72
-2.86
-3.03
-3.27
-3.65
-4.12
-4.60
-4.95
-5.08
-5.00
-4.81
-4.60
-4.42
-4.22
-3.95
-3.56
-3.07
-2.53
-1.98
-1.41
-0.75
0.07
1.06
2.17
3.23
4.10
4.66
4.93
5.02
5.06
5.15
5.28
5.35
5.24
4.85
4.23
3.52
2.93
2.60
2.60
2.83
3.15
3.41
3.55
3.57
3.50
3.38
3.16
2.81
2.29
1.60
0.84
0.13
-0.42
-0.78
-0.98
-1.10
-1.23
-1.42
-1.70
-2.05
-2.46
-2.90
-3.34
-3.75
-4.08
-4.30
-4.38
-4.32
-4.13
-3.84
-3.50
-3.15
-2.82
-2.49
-2.12
-1.67
-1.16
-0.64
-0.20
0.09
0.21
0.22
0.18
0.13
0.07
-0.00
-0.09
-0.13
-0.05
0.25
0.79
1.55
2.41
3.21
3.83
4.16
4.21
4.03
3.75
3.48
3.31
3.24
3.26
3.31
3.32
3.24
2.98
2.48
1.71
0.75
-0.25
-1.10
-1.67
-1.95
-2.04
-2.08
-2.15
-2.23
-2.20
-1.96
-1.52
-0.99
-0.53
-0.25
-0.15
-0.13
-0.07
0.13
0.47
0.91
1.44
2.03
2.67
3.32
3.88
4.23
4.28
3.97
3.34
2.47
1.44
0.33
-0.75
-1.72
-2.48
-3.00
-3.30
-3.51
-3.73
-4.02
-4.40
-4.81
-5.15
-5.38
-5.47
-5.40
-5.17
-4.79
-4.29
-3.74
-3.24
-2.89
-2.76
-2.84
-3.06
-3.37
-3.73
-4.12
-4.50
-4.84
-5.05
-5.05
-4.78
-4.23
-3.42
-2.44
-1.39
-0.37
0.53
1.28
1.88
2.38
2.82
3.21
3.56
3.79
3.87
3.80
3.65
3.55
3.60
3.87
4.35
4.92
5.45
5.83
5.99
5.89
5.54
4.98
4.24
3.36
2.39
1.38
0.40
-0.46
-1.12
-1.54
-1.72
-1.67
-1.44
-1.05
-0.56
-0.04
0.38
0.58
0.45
-0.04
-0.83
-1.73
-2.56
-3.14
-3.35
-3.20
-2.78
-2.19
-1.52
-0.81
-0.04
0.79
1.66
2.49
3.13
3.47
3.45
3.14
2.69
2.23
1.84
1.53
1.26
1.02
0.82
0.71
0.68
0.65
0.50
0.10
-0.58
-1.42
-2.26
-2.90
-3.24
-3.30
-3.13
-2.82
-2.37
-1.76
-0.93
0.12
1.27
2.38
3.23
3.69
3.68
3.24
2.46
1.49
0.48
-0.46
-1.25
-1.88
-2.40
-2.89
-3.38
-3.89
-4.36
-4.71
-4.86
-4.79
-4.51
-4.08
-3.56
-3.01
-2.43
-1.84
-1.22
-0.59
0.03
0.58
1.06
1.48
1.88
2.26
2.59
2.83
2.93
2.91
2.85
2.88
3.11
3.59
4.27
5.01
5.69
6.18
6.41
6.36
6.07
5.59
5.02
4.44
3.89
3.37
2.87
2.31
1.68
0.96
0.20
-0.50
-1.07
-1.49
-1.76
-1.95
-2.16
-2.48
-2.98
-3.66
-4.43
-5.15
-5.65
-5.81
-5.59
-5.07
-4.35
-3.57
-2.80
-2.07
-1.41
-0.84
-0.41
-0.12
0.07
0.22
0.40
0.62
0.85
1.00
1.03
0.92
0.75
0.58
0.49
0.48
0.52
0.52
0.44
0.27
0.05
-0.17
-0.34
-0.46
-0.54
-0.64
-0.77
-0.92
-1.08
-1.22
-1.37
-1.55
-1.79
-2.11
-2.49
-2.87
-3.22
-3.49
-3.71
-3.91
-4.13
-4.38
-4.65
-4.88
-5.00
-4.95
-4.70
-4.26
-3.69
-3.05
-2.42
-1.84
-1.33
-0.87
-0.44
-0.01
0.43
0.84
1.19
1.42
1.56
1.62
1.69
1.79
1.94
2.08
2.16
2.16
2.12
2.10
2.16
2.31
2.51
2.66
2.71
2.62
2.38
2.03
1.59
1.07
0.51
-0.04
-0.53
-0.89
-1.10
-1.21
-1.31
-1.48
-1.75
-2.05
-2.25
-2.29
-2.16
-1.99
-1.88
-1.89
-1.95
-1.91
-1.67
-1.19
-0.60
-0.04
0.39
0.67
0.90
1.17
1.53
1.95
2.39
2.81
3.19
3.51
3.71
3.77
3.67
3.49
3.32
3.25
3.29
3.39
3.46
3.47
3.45
3.45
3.52
3.62
3.69
3.65
3.47
3.14
2.69
2.18
1.62
1.06
0.53
0.10
-0.20
-0.36
-0.40
-0.36
-0.32
-0.34
-0.47
-0.75
-1.17
-1.72
-2.33
-2.97
-3.57
-4.02
-4.23
-4.10
-3.61
-2.86
-2.05
-1.39
-1.01
-0.90
-0.90
-0.84
-0.60
-0.18
0.34
0.84
1.25
1.58
1.84
2.06
2.24
2.39
2.47
2.53
2.58
2.65
2.72
2.77
2.74
2.59
2.32
1.94
1.48
0.97
0.40
-0.20
-0.81
-1.38
-1.86
-2.20
-2.36
-2.32
-2.08
-1.66
-1.14
-0.64
-0.29
-0.22
-0.45
-0.92
-1.46
-1.94
-2.24
-2.34
-2.29
-2.10
-1.79
-1.31
-0.66
0.14
1.02
1.89
2.65
3.24
3.65
3.88
3.97
3.98
3.93
3.85
3.77
3.70
3.65
3.63
3.60
3.51
3.27
2.83
2.16
1.32
0.44
-0.37
-1.01
-1.48
-1.79
-2.01
-2.13
-2.19
-2.21
-2.25
-2.41
-2.76
-3.26
-3.81
-4.28
-4.55
-4.66
-4.72
-4.90
-5.34
-6.05
-6.96
-7.90
-8.75
-9.43
-9.89
-10.13
-10.12
-9.85
-9.34
-8.67
-7.95
-7.26
-6.63
-6.03
-5.39
-4.70
-3.99
-3.32
-2.75
-2.29
-1.87
-1.41
-0.89
-0.28
0.38
1.09
1.87
2.75
3.72
4.73
5.70
6.52
7.13
7.51
7.64
7.54
7.19
6.64
5.96
5.27
4.67
4.19
3.79
3.34
2.75
1.97
1.02
-0.04
-1.16
-2.28
-3.36
-4.29
-4.90
-5.03
-4.59
-3.61
-2.29
-0.89
0.36
1.31
1.99
2.50
2.93
3.34
3.70
3.96
4.07
4.03
3.93
3.85
3.83
3.87
3.88
3.77
3.50
3.07
2.54
1.99
1.46
0.99
0.56
0.16
-0.19
-0.46
-0.63
-0.68
-0.66
-0.66
-0.77
-1.04
-1.48
-2.05
-2.66
-3.24
-3.77
-4.20
-4.53
-4.71
-4.75
-4.67
-4.56
-4.49
-4.44
-4.32
-3.98
-3.30
-2.29
-1.11
0.05
1.02
1.76
2.33
2.83
3.29
3.67
3.93
4.06
4.12
4.22
4.39
4.56
4.61
4.42
3.96
3.36
2.80
2.41
2.24
2.21
2.24
2.24
2.20
2.16
2.15
2.14
2.09
1.93
1.60
1.13
0.57
0.02
-0.43
-0.73
-0.90
-1.00
-1.08
-1.22
-1.41
-1.68
-2.02
-2.44
-2.90
-3.38
-3.79
-4.06
-4.11
-3.93
-3.56
-3.05
-2.42
-1.72
-0.95
-0.15
0.66
1.43
2.15
2.78
3.30
3.65
3.76
3.63
3.29
2.86
2.50
2.32
2.36
2.57
2.84
3.04
3.13
3.11
3.01
2.82
2.49
1.97
1.24
0.37
-0.51
-1.26
-1.81
-2.21
-2.55
-2.90
-3.24
-3.50
-3.60
-3.54
-3.43
-3.43
-3.65
-4.11
-4.72
-5.29
-5.69
-5.82
-5.67
-5.29
-4.75
-4.11
-3.44
-2.74
-2.02
-1.33
-0.73
-0.35
-0.27
-0.49
-0.93
-1.39
-1.68
-1.66
-1.34
-0.79
-0.16
0.41
0.87
1.20
1.41
1.54
1.58
1.50
1.28
0.94
0.56
0.25
0.09
0.13
0.33
0.65
1.01
1.38
1.78
2.19
2.59
2.93
3.16
3.21
3.06
2.77
2.41
2.11
2.00
2.16
2.59
3.18
3.80
4.25
4.41
4.21
3.69
2.94
2.15
1.47
1.05
0.94
1.09
1.37
1.60
1.64
1.43
1.01
0.52
0.12
-0.10
-0.13
-0.08
-0.06
-0.15
-0.32
-0.49
-0.58
-0.55
-0.45
-0.37
-0.37
-0.47
-0.63
-0.73
-0.67
-0.36
0.21
0.98
1.79
2.40
2.62
2.40
1.86
1.22
0.72
0.46
0.38
0.32
0.17
-0.09
-0.35
-0.50
-0.52
-0.50
-0.54
-0.72
-0.98
-1.21
-1.29
-1.19
-0.97
-0.72
-0.53
-0.42
-0.39
-0.42
-0.48
-0.55
-0.59
-0.56
-0.43
-0.23
-0.01
0.09
-0.01
-0.35
-0.83
-1.30
-1.53
-1.39
-0.89
-0.16
0.56
1.04
1.12
0.80
0.20
-0.51
-1.17
-1.69
-2.03
-2.22
-2.25
-2.12
-1.80
-1.34
-0.81
-0.35
-0.07
0.03
0.01
0.01
0.16
0.49
0.92
1.33
1.61
1.72
1.72
1.68
1.67
1.71
1.71
1.63
1.43
1.19
1.06
1.17
1.54
2.10
2.68
3.10
3.29
3.29
3.22
3.17
3.18
3.17
3.03
2.68
2.12
1.46
0.84
0.39
0.16
0.10
0.08
-0.04
-0.38
-0.90
-1.49
-1.97
-2.23
-2.25
-2.17
-2.10
-2.13
-2.20
-2.15
-1.86
-1.34
-0.74
-0.32
-0.27
-0.67
-1.37
-2.14
-2.75
-3.05
-3.03
-2.78
-2.39
-1.95
-1.47
-0.96
-0.42
0.08
0.46
0.70
0.79
0.78
0.71
0.60
0.40
0.03
-0.56
-1.33
-2.20
-3.07
-3.84
-4.48
-4.98
-5.35
-5.59
-5.73
-5.78
-5.73
-5.58
-5.33
-4.97
-4.51
-3.99
-3.41
-2.76
-2.06
-1.30
-0.54
0.14
0.72
1.19
1.62
2.07
2.56
3.03
3.40
3.60
3.63
3.55
3.43
3.26
3.00
2.58
1.98
1.24
0.48
-0.15
-0.53
-0.62
-0.40
0.09
0.80
1.63
2.47
3.13
3.46
3.34
2.74
1.74
0.53
-0.67
-1.65
-2.27
-2.50
-2.40
-2.06
-1.62
-1.17
-0.77
-0.46
-0.24
-0.12
-0.13
-0.25
-0.42
-0.56
-0.54
-0.26
0.32
1.12
2.00
2.78
3.34
3.63
3.65
3.47
3.11
2.63
2.08
1.54
1.11
0.85
0.78
0.86
1.01
1.13
1.15
1.07
0.91
0.72
0.54
0.38
0.23
0.06
-0.13
-0.34
-0.56
-0.75
-0.91
-1.04
-1.15
-1.24
-1.31
-1.36
-1.39
-1.48
-1.69
-2.13
-2.78
-3.55
-4.27
-4.74
-4.81
-4.47
-3.84
-3.06
-2.29
-1.57
-0.92
-0.27
0.38
1.00
1.52
1.91
2.13
2.22
2.19
2.05
1.83
1.57
1.33
1.20
1.22
1.41
1.72
2.11
2.51
2.88
3.20
3.43
3.56
3.61
3.59
3.48
3.30
3.01
2.60
2.11
1.65
1.33
1.28
1.51
1.88
2.17
2.16
1.73
0.93
-0.11
-1.20
-2.23
-3.16
-4.04
-4.90
-5.73
-6.47
-7.00
-7.23
-7.12
-6.76
-6.32
-5.98
-5.86
-5.97
-6.20
-6.38
-6.39
-6.23
-5.98
-5.79
-5.73
-5.75
-5.73
-5.51
-5.06
-4.44
-3.76
-3.14
-2.62
-2.17
-1.75
-1.29
-0.74
-0.07
0.76
1.72
2.72
3.61
4.21
4.43
4.25
3.79
3.21
2.63
2.12
1.65
1.19
0.77
0.45
0.34
0.48
0.79
1.12
1.29
1.22
0.96
0.66
0.51
0.61
0.96
1.43
1.88
2.21
2.45
2.65
2.88
3.17
3.48
3.75
3.96
4.17
4.44
4.84
5.32
5.81
6.15
6.27
6.13
5.81
5.45
5.18
5.06
5.06
5.09
5.04
4.87
4.56
4.17
3.76
3.38
3.05
2.80
2.67
2.67
2.76
2.84
2.76
2.39
1.70
0.79
-0.19
-1.05
-1.72
-2.20
-2.56
-2.86
-3.08
-3.15
-2.98
-2.53
-1.79
-0.83
0.28
1.42
2.51
3.46
4.19
4.65
4.87
4.89
4.83
4.80
4.84
4.98
5.21
5.51
5.84
6.16
6.39
6.48
6.36
6.01
5.44
4.64
3.60
2.28
0.70
-1.11
-3.00
-4.81
-6.38
-7.60
-8.47
-9.04
-9.41
-9.65
-9.82
-9.96
-10.07
-10.14
-10.16
-10.11
-9.97
-9.75
-9.46
-9.17
-8.91
-8.70
-8.49
-8.19
-7.72
-7.05
-6.20
-5.22
-4.16
-3.04
-1.84
-0.53
0.84
2.18
3.37
4.36
5.15
5.82
6.44
7.01
7.49
7.81
7.93
7.85
7.59
7.14
6.50
5.69
4.81
4.00
3.45
3.26
3.39
3.70
3.99
4.16
4.14
4.01
3.81
3.55
3.20
2.73
2.16
1.60
1.14
0.82
0.60
0.36
-0.01
-0.57
-1.26
-1.98
-2.60
-3.08
-3.39
-3.55
-3.60
-3.57
-3.52
-3.53
-3.68
-4.01
-4.48
-4.98
-5.38
-5.56
-5.46
-5.09
-4.51
-3.85
-3.23
-2.77
-2.50
-2.39
-2.38
-2.38
-2.37
-2.38
-2.44
-2.59
-2.81
-3.02
-3.10
-2.99
-2.68
-2.22
-1.72
-1.28
-0.98
-0.83
-0.79
-0.81
-0.85
-0.92
-1.05
-1.29
-1.66
-2.14
-2.64
-3.05
-3.26
-3.23
-2.97
-2.54
-2.00
-1.45
-0.94
-0.52
-0.23
-0.07
-0.01
0.04
0.20
0.63
1.38
2.42
3.61
4.75
5.64
6.15
6.23
5.96
5.46
4.94
4.59
4.52
4.79
5.32
6.00
6.67
7.19
7.48
7.51
7.29
6.83
6.14
5.27
4.27
3.25
2.33
1.58
1.07
0.78
0.63
0.52
0.40
0.23
0.04
-0.15
-0.29
-0.36
-0.38
-0.33
-0.24
-0.13
-0.01
0.09
0.18
0.26
0.31
0.26
0.02
-0.54
-1.47
-2.72
-4.15
-5.53
-6.65
-7.38
-7.69
-7.60
-7.16
-6.42
-5.43
-4.33
-3.27
-2.48
-2.11
-2.23
-2.73
-3.43
-4.10
-4.59
-4.83
-4.85
-4.74
-4.59
-4.47
-4.40
-4.39
-4.44
-4.56
-4.75
-4.95
-5.06
-4.93
-4.48
-3.67
-2.59
-1.37
-0.15
0.98
1.94
2.72
3.30
3.65
3.77
3.72
3.55
3.35
3.12
2.86
2.55
2.16
1.71
1.24
0.75
0.25
-0.24
-0.67
-0.91
-0.86
-0.47
0.16
0.85
1.36
1.58
1.49
1.24
0.99
0.86
0.84
0.84
0.77
0.59
0.31
-0.01
-0.31
-0.57
-0.74
-0.79
-0.68
-0.40
-0.00
0.37
0.57
0.51
0.21
-0.24
-0.70
-1.12
-1.49
-1.87
-2.30
-2.77
-3.23
-3.60
-3.86
-4.02
-4.13
-4.24
-4.38
-4.56
-4.78
-5.01
-5.24
-5.41
-5.45
-5.28
-4.83
-4.08
-3.08
-1.93
-0.77
0.26
1.10
1.72
2.16
2.44
2.58
2.59
2.48
2.32
2.22
2.26
2.47
2.83
3.25
3.67
4.07
4.42
4.75
5.02
5.22
5.30
5.30
5.29
5.35
5.51
5.76
5.99
6.08
5.90
5.41
4.63
3.59
2.35
0.95
-0.58
-2.22
-3.89
-5.47
-6.82
-7.82
-8.38
-8.51
-8.30
-7.82
-7.17
-6.39
-5.44
-4.32
-3.05
-1.69
-0.35
0.84
1.76
2.37
2.69
2.79
2.78
2.77
2.83
2.98
3.21
3.48
3.74
3.94
4.05
4.03
3.90
3.69
3.47
3.32
3.28
3.33
3.36
3.27
2.94
2.37
1.64
0.87
0.18
-0.32
-0.61
-0.68
-0.58
-0.37
-0.17
-0.07
-0.12
-0.31
-0.55
-0.74
-0.81
-0.78
-0.76
-0.86
-1.14
-1.62
-2.20
-2.80
-3.33
-3.73
-3.95
-3.97
-3.77
-3.35
-2.75
-2.07
-1.42
-0.88
-0.49
-0.19
0.14
0.58
1.19
1.95
2.75
3.42
3.86
4.00
3.92
3.75
3.69
3.86
4.30
4.91
5.53
5.96
6.05
5.79
5.24
4.55
3.90
3.43
3.17
3.05
2.93
2.66
2.17
1.51
0.84
0.31
0.01
-0.10
-0.19
-0.45
-0.98
-1.76
-2.61
-3.31
-3.70
-3.74
-3.48
-3.03
-2.47
-1.86
-1.20
-0.50
0.20
0.84
1.39
1.79
2.05
2.17
2.17
2.08
1.91
1.69
1.43
1.15
0.88
0.66
0.53
0.53
0.63
0.77
0.86
0.83
0.66
0.40
0.15
-0.01
-0.04
0.05
0.16
0.25
0.24
0.15
0.04
0.00
0.11
0.36
0.65
0.82
0.70
0.22
-0.56
-1.45
-2.24
-2.73
-2.79
-2.40
-1.63
-0.58
0.57
1.68
2.65
3.45
4.10
4.71
5.32
5.94
6.53
6.99
7.29
7.41
7.36
7.11
6.62
5.81
4.62
3.06
1.27
-0.55
-2.17
-3.38
-4.05
-4.16
-3.77
-2.98
-1.90
-0.66
0.60
1.67
2.38
2.60
2.32
1.66
0.83
-0.01
-0.77
-1.52
-2.36
-3.36
-4.51
-5.65
-6.59
-7.17
-7.30
-6.99
-6.35
-5.48
-4.49
-3.47
-2.52
-1.71
-1.15
-0.88
-0.88
-1.07
-1.33
-1.55
-1.70
-1.77
-1.82
-1.88
-1.96
-2.04
-2.09
-2.11
-2.10
-2.12
-2.22
-2.43
-2.74
-3.07
-3.36
-3.54
-3.60
-3.57
-3.51
-3.51
-3.58
-3.71
-3.84
-3.91
-3.87
-3.69
-3.37
-2.91
-2.31
-1.66
-1.03
-0.55
-0.35
-0.47
-0.90
-1.52
-2.17
-2.66
-2.89
-2.77
-2.35
-1.69
-0.93
-0.21
0.38
0.79
1.06
1.28
1.57
2.01
2.59
3.23
3.79
4.15
4.25
4.09
3.74
3.27
2.74
2.20
1.74
1.40
1.22
1.21
1.30
1.44
1.58
1.72
1.91
2.23
2.71
3.31
3.91
4.41
4.71
4.77
4.62
4.35
4.05
3.82
3.72
3.78
4.02
4.41
4.84
5.16
5.15
4.64
3.56
2.03
0.28
-1.32
-2.49
-3.04
-3.01
-2.56
-1.92
-1.30
-0.88
-0.74
-0.91
-1.40
-2.16
-3.15
-4.28
-5.47
-6.60
-7.58
-8.30
-8.70
-8.75
-8.48
-7.98
-7.34
-6.64
-5.89
-5.07
-4.15
-3.16
-2.20
-1.41
-0.94
-0.85
-1.13
-1.71
-2.49
-3.38
-4.33
-5.23
-5.97
-6.48
-6.70
-6.68
-6.53
-6.43
-6.50
-6.86
-7.56
-8.59
-9.86
-11.20
-12.39
-13.19
-13.45
-13.16
-12.48
-11.67
-10.97
-10.53
-10.42
-10.57
-10.87
-11.18
-11.28
-10.93
-9.88
-7.91
-4.97
-1.19
3.09
7.40
11.28
14.38
16.51
17.69
18.09
17.94
17.43
16.70
15.82
14.78
13.55
12.13
10.54
8.84
7.16
5.62
4.34
3.39
2.75
2.33
2.02
1.70
1.35
1.04
0.96
1.32
2.28
3.90
6.13
8.83
11.81
14.85
17.71
20.10
21.74
22.41
22.04
20.77
18.90
16.83
14.86
13.19
11.79
10.54
9.30
7.98
6.57
5.16
3.81
2.55
1.36
0.16
-1.08
-2.34
-3.58
-4.77
-5.90
-7.03
-8.20
-9.39
-10.54
-11.54
-12.31
-12.84
-13.19
-13.41
-13.53
-13.53
-13.36
-13.02
-12.56
-12.08
-11.64
-11.28
-10.96
-10.65
-10.30
-9.94
-9.57
-9.18
-8.69
-7.93
-6.73
-5.00
-2.84
-0.47
1.77
3.60
4.91
5.78
6.41
6.98
7.57
8.14
8.61
8.86
8.90
8.76
8.48
8.07
7.52
6.78
5.89
4.91
3.96
3.13
2.44
1.89
1.39
0.93
0.50
0.17
0.00
0.01
0.15
0.33
0.44
0.43
0.26
-0.10
-0.64
-1.35
-2.21
-3.10
-3.92
-4.54
-4.90
-5.01
-4.95
-4.78
-4.53
-4.16
-3.64
-2.95
-2.13
-1.25
-0.39
0.40
1.12
1.75
2.28
2.66
2.83
2.78
2.50
2.04
1.48
0.89
0.39
0.04
-0.11
-0.05
0.16
0.47
0.82
1.19
1.55
1.89
2.15
2.26
2.18
1.91
1.51
1.08
0.72
0.52
0.49
0.60
0.79
1.01
1.18
1.29
1.37
1.46
1.59
1.75
1.86
1.82
1.54
1.00
0.33
-0.27
-0.53
-0.32
0.33
1.27
2.24
3.05
3.61
3.93
4.07
4.06
3.86
3.42
2.72
1.87
1.03
0.40
0.08
0.08
0.30
0.64
0.99
1.29
1.48
1.55
1.54
1.48
1.44
1.46
1.53
1.62
1.67
1.64
1.54
1.38
1.18
0.96
0.70
0.42
0.17
0.03
0.03
0.14
0.25
0.27
0.12
-0.19
-0.57
-0.89
-1.08
-1.13
-1.07
-0.97
-0.83
-0.62
-0.27
0.28
1.02
1.84
2.58
3.05
3.18
3.01
2.67
2.34
2.11
2.00
1.95
1.87
1.73
1.53
1.32
1.13
0.96
0.84
0.75
0.73
0.82
1.02
1.27
1.47
1.54
1.42
1.15
0.82
0.56
0.46
0.55
0.78
1.07
1.28
1.32
1.15
0.75
0.18
-0.49
-1.20
-1.91
-2.57
-3.15
-3.65
-4.06
-4.40
-4.67
-4.89
-5.04
-5.09
-5.01
-4.75
-4.28
-3.63
-2.86
-2.09
-1.44
-1.00
-0.81
-0.78
-0.78
-0.67
-0.40
0.01
0.47
0.83
1.02
1.02
0.87
0.65
0.42
0.22
0.09
0.08
0.23
0.52
0.87
1.13
1.18
0.94
0.45
-0.15
-0.68
-0.98
-1.02
-0.84
-0.57
-0.38
-0.35
-0.52
-0.86
-1.30
-1.75
-2.20
-2.63
-3.04
-3.41
-3.68
-3.77
-3.59
-3.15
-2.51
-1.80
-1.16
-0.67
-0.33
-0.10
0.08
0.22
0.31
0.31
0.24
0.14
0.05
0.04
0.10
0.21
0.37
0.55
0.73
0.92
1.10
1.23
1.31
1.31
1.20
0.99
0.67
0.29
-0.08
-0.36
-0.47
-0.40
-0.19
0.07
0.26
0.32
0.25
0.07
-0.19
-0.55
-0.98
-1.51
-2.09
-2.67
-3.19
-3.60
-3.89
-4.04
-4.05
-3.87
-3.46
-2.82
-2.03
-1.22
-0.48
0.10
0.54
0.86
1.09
1.19
1.16
1.01
0.82
0.69
0.68
0.78
0.93
1.05
1.15
1.27
1.44
1.64
1.81
1.81
1.62
1.26
0.89
0.64
0.58
0.71
0.91
1.08
1.15
1.10
0.93
0.64
0.24
-0.25
-0.79
-1.30
-1.69
-1.93
-2.05
-2.09
-2.10
-2.09
-2.03
-1.88
-1.63
-1.31
-0.96
-0.64
-0.39
-0.20
-0.06
0.04
0.13
0.21
0.25
0.25
0.20
0.09
-0.03
-0.13
-0.13
0.01
0.32
0.75
1.19
1.50
1.55
1.27
0.72
0.04
-0.58
-0.97
-1.10
-1.03
-0.92
-0.91
-1.08
-1.43
-1.86
-2.29
-2.66
-2.96
-3.16
-3.23
-3.11
-2.74
-2.11
-1.30
-0.46
0.23
0.69
0.90
0.97
1.02
1.16
1.39
1.66
1.90
2.05
2.11
2.09
2.04
2.00
1.98
2.00
2.04
2.11
2.18
2.21
2.13
1.90
1.52
0.99
0.41
-0.14
-0.58
-0.86
-0.98
-1.00
-0.97
-0.95
-0.98
-1.10
-1.29
-1.54
-1.82
-2.11
-2.39
-2.65
-2.86
-2.96
-2.87
-2.59
-2.15
-1.65
-1.19
-0.83
-0.56
-0.33
-0.09
0.18
0.41
0.56
0.57
0.47
0.29
0.11
0.02
0.06
0.27
0.66
1.18
1.74
2.24
2.56
2.66
2.54
2.27
1.94
1.64
1.37
1.12
0.84
0.48
0.05
-0.36
-0.67
-0.84
-0.91
-0.99
-1.20
-1.57
-2.07
-2.59
-3.06
-3.44
-3.76
-4.05
-4.30
-4.45
-4.38
-4.03
-3.39
-2.54
-1.62
-0.78
-0.13
0.27
0.41
0.36
0.23
0.19
0.35
0.75
1.34
1.97
2.46
2.71
2.70
2.52
2.32
2.22
2.24
2.35
2.48
2.56
2.59
2.56
2.48
2.32
2.06
1.71
1.28
0.83
0.42
0.07
-0.21
-0.44
-0.66
-0.85
-0.99
-1.05
-1.05
-1.07
-1.20
-1.53
-2.04
-2.64
-3.17
-3.44
-3.33
-2.85
-2.12
-1.34
-0.69
-0.27
-0.10
-0.10
-0.12
-0.06
0.16
0.54
1.01
1.46
1.76
1.82
1.65
1.31
0.92
0.58
0.37
0.30
0.39
0.61
0.93
1.28
1.54
1.59
1.36
0.85
0.20
-0.41
-0.80
-0.93
-0.85
-0.68
-0.51
-0.38
-0.29
-0.26
-0.36
-0.68
-1.24
-1.97
-2.67
-3.12
-3.22
-3.00
-2.65
-2.35
-2.22
-2.21
-2.20
-2.07
-1.78
-1.39
-0.97
-0.58
-0.19
0.22
0.68
1.15
1.54
1.80
1.92
1.92
1.86
1.77
1.65
1.56
1.55
1.68
1.98
2.39
2.80
3.05
3.05
2.82
2.48
2.19
2.05
2.03
2.00
1.83
1.45
0.94
0.46
0.14
0.04
0.08
0.08
-0.10
-0.54
-1.15
-1.78
-2.28
-2.53
-2.55
-2.43
-2.33
-2.35
-2.52
-2.76
-2.96
-2.98
-2.73
-2.24
-1.57
-0.84
-0.15
0.44
0.91
1.27
1.53
1.72
1.83
1.88
1.88
1.81
1.67
1.45
1.21
0.97
0.79
0.67
0.60
0.52
0.44
0.36
0.31
0.30
0.28
0.18
-0.06
-0.44
-0.87
-1.23
-1.42
-1.39
-1.20
-0.95
-0.74
-0.63
-0.63
-0.76
-1.06
-1.56
-2.28
-3.11
-3.90
-4.45
-4.63
-4.43
-3.96
-3.41
-2.92
-2.53
-2.20
-1.85
-1.42
-0.94
-0.46
-0.06
0.25
0.53
0.85
1.26
1.70
2.07
2.26
2.21
1.94
1.57
1.23
1.05
1.09
1.33
1.68
2.02
2.22
2.26
2.17
2.02
1.88
1.77
1.67
1.50
1.22
0.84
0.39
-0.08
-0.55
-1.01
-1.48
-1.94
-2.35
-2.65
-2.81
-2.81
-2.68
-2.41
-1.99
-1.41
-0.68
0.19
1.12
2.04
2.84
3.44
3.80
3.91
3.82
3.55
3.16
2.68
2.19
1.80
1.63
1.74
2.10
2.55
2.93
3.16
3.25
3.32
3.46
3.63
3.72
3.58
3.13
2.44
1.66
0.95
0.38
-0.04
-0.37
-0.62
-0.76
-0.76
-0.59
-0.29
0.09
0.44
0.65
0.64
0.37
-0.13
-0.69
-1.09
-1.13
-0.72
0.06
0.95
1.69
2.11
2.22
2.17
2.15
2.28
2.55
2.87
3.11
3.20
3.15
2.98
2.71
2.35
1.92
1.49
1.18
1.12
1.39
1.91
2.55
3.11
3.41
3.40
3.12
2.67
2.19
1.77
1.44
1.18
0.96
0.74
0.50
0.23
-0.06
-0.38
-0.74
-1.19
-1.74
-2.38
-3.03
-3.61
-4.08
-4.46
-4.85
-5.31
-5.79
-6.15
-6.15
-5.66
-4.70
-3.51
-2.38
-1.56
-1.12
-0.93
-0.75
-0.39
0.19
0.91
1.57
2.01
2.15
2.02
1.74
1.40
1.08
0.81
0.56
0.36
0.26
0.36
0.74
1.37
2.11
2.72
2.98
2.78
2.13
1.17
0.14
-0.79
-1.48
-1.91
-2.10
-2.09
-1.97
-1.80
-1.61
-1.43
-1.28
-1.21
-1.29
-1.60
-2.16
-2.95
-3.84
-4.69
-5.35
-5.72
-5.76
-5.49
-4.95
-4.23
-3.43
-2.66
-2.01
-1.53
-1.16
-0.85
-0.51
-0.11
0.35
0.86
1.43
2.03
2.65
3.18
3.52
3.59
3.42
3.13
2.87
2.75
2.74
2.72
2.55
2.15
1.56
0.93
0.39
0.03
-0.14
-0.19
-0.20
-0.26
-0.43
-0.73
-1.13
-1.57
-1.96
-2.25
-2.43
-2.57
-2.78
-3.12
-3.62
-4.24
-4.89
-5.48
-5.95
-6.23
-6.25
-5.95
-5.27
-4.26
-3.05
-1.83
-0.75
0.07
0.68
1.18
1.68
2.25
2.86
3.41
3.77
3.89
3.79
3.59
3.43
3.38
3.47
3.64
3.81
3.94
4.01
4.06
4.08
4.08
3.99
3.80
3.53
3.27
3.16
3.26
3.57
4.00
4.38
4.55
4.43
4.01
3.40
2.71
2.05
1.43
0.78
0.04
-0.82
-1.74
-2.59
-3.22
-3.59
-3.70
-3.65
-3.52
-3.33
-3.06
-2.67
-2.18
-1.70
-1.35
-1.20
-1.17
-1.11
-0.85
-0.32
0.39
1.10
1.63
1.91
2.00
2.06
2.19
2.43
2.71
2.92
3.00
2.98
2.92
2.87
2.78
2.55
2.12
1.50
0.84
0.38
0.35
0.85
1.76
2.84
3.77
4.34
4.46
4.23
3.75
3.10
2.28
1.27
0.05
-1.31
-2.71
-4.05
-5.29
-6.48
-7.65
-8.77
-9.72
-10.30
-10.36
-9.84
-8.85
-7.61
-6.39
-5.38
-4.71
-4.37
-4.30
-4.36
-4.42
-4.41
-4.29
-4.09
-3.86
-3.60
-3.29
-2.85
-2.21
-1.34
-0.26
0.94
2.13
3.21
4.12
4.85
5.44
5.91
6.25
6.39
6.21
5.63
4.69
3.53
2.42
1.61
1.24
1.29
1.59
1.88
1.99
1.84
1.48
1.06
0.67
0.38
0.16
-0.07
-0.39
-0.84
-1.40
-1.99
-2.51
-2.87
-3.05
-3.02
-2.79
-2.37
-1.76
-1.00
-0.16
0.66
1.38
1.93
2.27
2.45
2.51
2.53
2.57
2.67
2.83
2.99
3.04
2.87
2.47
1.89
1.28
0.79
0.53
0.49
0.56
0.63
0.59
0.41
0.11
-0.29
-0.75
-1.20
-1.62
-1.93
-2.09
-2.07
-1.87
-1.55
-1.16
-0.80
-0.55
-0.50
-0.71
-1.17
-1.84
-2.58
-3.27
-3.79
-4.11
-4.26
-4.31
-4.35
-4.43
-4.55
-4.64
-4.60
-4.36
-3.91
-3.28
-2.58
-1.90
-1.31
-0.82
-0.43
-0.11
0.12
0.27
0.39
0.58
0.95
1.55
2.31
3.09
3.70
3.99
3.89
3.44
2.74
1.89
1.01
0.26
-0.23
-0.38
-0.17
0.28
0.80
1.23
1.44
1.44
1.28
1.06
0.84
0.64
0.45
0.28
0.16
0.08
0.01
-0.12
-0.42
-0.95
-1.64
-2.33
-2.78
-2.79
-2.32
-1.49
-0.56
0.26
0.85
1.23
1.52
1.78
1.96
1.93
1.61
1.06
0.51
0.28
0.57
1.38
2.46
3.48
4.14
4.32
4.10
3.68
3.26
2.98
2.90
3.04
3.33
3.71
4.07
4.28
4.22
3.83
3.12
2.22
1.30
0.56
0.11
-0.03
0.04
0.13
0.05
-0.27
-0.83
-1.50
-2.10
-2.55
-2.85
-3.11
-3.45
-3.96
-4.60
-5.21
-5.62
-5.67
-5.34
-4.73
-4.01
-3.34
-2.77
-2.25
-1.67
-0.92
0.01
1.04
2.01
2.74
3.12
3.13
2.85
2.38
1.88
1.47
1.21
1.11
1.14
1.26
1.44
1.68
1.97
2.27
2.51
2.58
2.37
1.87
1.13
0.35
-0.31
-0.72
-0.86
-0.83
-0.75
-0.75
-0.84
-1.00
-1.16
-1.29
-1.42
-1.61
-1.93
-2.40
-3.00
-3.65
-4.27
-4.83
-5.31
-5.76
-6.18
-6.58
-6.90
-7.06
-6.98
-6.62
-6.05
-5.39
-4.77
-4.27
-3.88
-3.50
-3.04
-2.43
-1.73
-1.02
-0.39
0.11
0.51
0.86
1.17
1.44
1.66
1.84
2.06
2.38
2.83
3.32
3.72
3.91
3.84
3.56
3.18
2.82
2.50
2.21
1.87
1.47
1.01
0.57
0.20
-0.07
-0.25
-0.38
-0.49
-0.61
-0.76
-0.94
-1.14
-1.38
-1.62
-1.87
-2.12
-2.37
-2.56
-2.67
-2.66
-2.50
-2.19
-1.74
-1.17
-0.50
0.24
0.98
1.64
2.13
2.41
2.55
2.67
2.90
3.29
3.80
4.28
4.63
4.82
4.87
4.87
4.85
4.77
4.58
4.27
3.86
3.47
3.19
3.05
3.00
2.95
2.83
2.61
2.31
1.96
1.56
1.10
0.54
-0.09
-0.72
-1.27
-1.67
-1.92
-2.05
-2.13
-2.22
-2.30
-2.32
-2.28
-2.21
-2.22
-2.40
-2.77
-3.26
-3.67
-3.82
-3.61
-3.02
-2.17
-1.21
-0.27
0.59
1.39
2.15
2.91
3.64
4.30
4.81
5.12
5.18
5.01
4.67
4.23
3.80
3.43
3.14
2.91
2.74
2.63
2.61
2.68
2.83
3.01
3.13
3.12
2.97
2.69
2.36
2.01
1.68
1.39
1.19
1.08
1.07
1.14
1.24
1.31
1.28
1.13
0.84
0.45
0.04
-0.37
-0.76
-1.18
-1.73
-2.48
-3.43
-4.55
-5.71
-6.77
-7.58
-8.03
-8.08
-7.74
-7.06
-6.16
-5.18
-4.26
-3.52
-3.00
-2.69
-2.52
-2.42
-2.33
-2.17
-1.92
-1.57
-1.13
-0.65
-0.18
0.26
0.68
1.13
1.60
2.06
2.43
2.61
2.57
2.36
2.08
1.86
1.75
1.73
1.73
1.68
1.55
1.35
1.15
0.98
0.85
0.77
0.70
0.63
0.54
0.41
0.20
-0.12
-0.57
-1.17
-1.88
-2.68
-3.50
-4.27
-4.88
-5.23
-5.26
-4.99
-4.47
-3.84
-3.23
-2.72
-2.34
-2.04
-1.73
-1.35
-0.89
-0.34
0.24
0.79
1.31
1.77
2.19
2.57
2.91
3.19
3.41
3.60
3.82
4.12
4.50
4.90
5.20
5.29
5.13
4.80
4.39
4.03
3.76
3.57
3.41
3.25
3.14
3.11
3.19
3.33
3.42
3.36
3.10
2.61
1.93
1.10
0.14
-0.89
-1.91
-2.83
-3.58
-4.14
-4.59
-4.94
-5.21
-5.30
-5.11
-4.61
-3.84
-2.99
-2.21
-1.62
-1.18
-0.76
-0.25
0.39
1.05
1.58
1.89
2.00
2.03
2.15
2.46
2.93
3.46
3.93
4.26
4.45
4.51
4.47
4.31
4.00
3.54
2.96
2.37
1.87
1.52
1.31
1.19
1.09
0.94
0.72
0.42
0.06
-0.33
-0.70
-1.05
-1.40
-1.79
-2.27
-2.86
-3.51
-4.14
-4.68
-5.09
-5.34
-5.43
-5.34
-5.05
-4.55
-3.87
-3.10
-2.35
-1.70
-1.19
-0.75
-0.32
0.12
0.57
0.95
1.19
1.26
1.19
1.03
0.85
0.66
0.49
0.33
0.22
0.20
0.30
0.54
0.86
1.20
1.43
1.46
1.20
0.69
0.02
-0.68
-1.24
-1.59
-1.73
-1.75
-1.74
-1.78
-1.83
-1.83
-1.72
-1.48
-1.19
-0.93
-0.77
-0.76
-0.88
-1.14
-1.54
-2.10
-2.77
-3.45
-3.93
-4.05
-3.70
-2.92
-1.89
-0.81
0.11
0.81
1.26
1.52
1.58
1.45
1.13
0.67
0.16
-0.29
-0.55
-0.61
-0.49
-0.26
0.04
0.36
0.68
0.97
1.19
1.28
1.23
1.03
0.75
0.44
0.14
-0.10
-0.28
-0.41
-0.53
-0.67
-0.86
-1.05
-1.18
-1.14
-0.92
-0.53
-0.12
0.13
0.07
-0.40
-1.24
-2.32
-3.47
-4.47
-5.14
-5.35
-5.00
-4.10
-2.78
-1.27
0.16
1.24
1.81
1.89
1.61
1.18
0.79
0.57
0.55
0.73
1.07
1.58
2.24
3.00
3.76
4.39
4.75
4.80
4.58
4.21
3.82
3.53
3.36
3.27
3.23
3.20
3.17
3.14
3.15
3.15
3.14
3.07
2.91
2.72
2.52
2.35
2.19
1.95
1.52
0.85
-0.01
-0.92
-1.69
-2.19
-2.40
-2.39
-2.30
-2.21
-2.16
-2.09
-1.91
-1.58
-1.11
-0.55
0.02
0.54
1.02
1.47
1.93
2.42
2.88
3.25
3.48
3.54
3.47
3.36
3.27
3.25
3.29
3.34
3.35
3.29
3.12
2.85
2.49
2.08
1.63
1.19
0.79
0.47
0.24
0.10
0.03
-0.01
-0.04
-0.09
-0.16
-0.27
-0.45
-0.70
-1.01
-1.36
-1.68
-1.92
-2.07
-2.15
-2.27
-2.54
-3.03
-3.72
-4.47
-5.13
-5.54
-5.64
-5.50
-5.20
-4.91
-4.70
-4.59
-4.52
-4.40
-4.18
-3.84
-3.45
-3.09
-2.85
-2.73
-2.68
-2.60
-2.41
-2.06
-1.56
-0.97
-0.32
0.36
1.04
1.71
2.31
2.79
3.10
3.20
3.09
2.79
2.33
1.80
1.28
0.90
0.74
0.81
0.99
1.10
0.98
0.56
-0.07
-0.76
-1.36
-1.81
-2.18
-2.60
-3.16
-3.87
-4.58
-5.10
-5.29
-5.09
-4.59
-3.93
-3.24
-2.59
-1.98
-1.37
-0.73
-0.08
0.51
0.95
1.17
1.18
1.07
0.99
1.06
1.31
1.70
2.10
2.43
2.66
2.86
3.13
3.51
3.96
4.36
4.58
4.53
4.16
3.52
2.66
1.64
0.58
-0.39
-1.12
-1.47
-1.40
-0.95
-0.29
0.42
1.03
1.46
1.66
1.58
1.18
0.47
-0.47
-1.48
-2.37
-2.95
-3.14
-2.94
-2.42
-1.70
-0.90
-0.15
0.48
0.94
1.27
1.52
1.76
2.01
2.21
2.29
2.19
1.92
1.59
1.32
1.19
1.24
1.45
1.73
2.02
2.23
2.34
2.33
2.26
2.19
2.17
2.23
2.34
2.43
2.47
2.42
2.33
2.23
2.12
1.93
1.58
1.02
0.25
-0.61
-1.40
-2.00
-2.33
-2.45
-2.50
-2.65
-3.03
-3.64
-4.37
-5.03
-5.40
-5.35
-4.88
-4.12
-3.27
-2.50
-1.92
-1.51
-1.19
-0.87
-0.47
0.00
0.47
0.83
1.00
0.97
0.85
0.77
0.86
1.13
1.51
1.85
2.05
2.08
2.00
1.90
1.81
1.71
1.53
1.25
0.88
0.47
0.07
-0.28
-0.54
-0.71
-0.78
-0.76
-0.70
-0.63
-0.60
-0.64
-0.75
-0.94
-1.23
-1.61
-2.10
-2.69
-3.34
-4.03
-4.70
-5.28
-5.65
-5.78
-5.62
-5.26
-4.78
-4.30
-3.85
-3.39
-2.89
-2.30
-1.66
-1.04
-0.52
-0.13
0.15
0.40
0.65
0.91
1.15
1.33
1.43
1.44
1.42
1.40
1.43
1.53
1.67
1.79
1.84
1.76
1.54
1.22
0.85
0.47
0.13
-0.15
-0.37
-0.53
-0.67
-0.82
-1.04
-1.36
-1.78
-2.24
-2.70
-3.14
-3.58
-4.04
-4.51
-4.90
-5.08
-4.93
-4.40
-3.57
-2.57
-1.55
-0.64
0.11
0.67
1.04
1.23
1.28
1.25
1.25
1.40
1.77
2.36
3.07
3.77
4.35
4.74
4.95
5.04
5.09
5.13
5.16
5.11
4.95
4.62
4.15
3.64
3.19
2.89
2.77
2.78
2.79
2.72
2.53
2.24
1.92
1.65
1.47
1.39
1.35
1.33
1.30
1.23
1.12
0.92
0.62
0.19
-0.29
-0.72
-0.95
-0.86
-0.41
0.34
1.23
2.06
2.71
3.10
3.28
3.37
3.43
3.49
3.52
3.45
3.26
2.97
2.65
2.36
2.12
1.90
1.64
1.35
1.05
0.83
0.78
0.91
1.20
1.56
1.86
2.05
2.09
2.02
1.89
1.73
1.55
1.32
1.02
0.66
0.33
0.13
0.13
0.33
0.59
0.76
0.69
0.36
-0.12
-0.63
-1.09
-1.54
-2.05
-2.72
-3.54
-4.45
-5.31
-6.05
-6.61
-6.97
-7.13
-7.02
-6.61
-5.91
-5.01
-4.07
-3.29
-2.79
-2.59
-2.61
-2.70
-2.70
-2.50
-2.07
-1.50
-0.92
-0.45
-0.19
-0.10
-0.09
-0.03
0.20
0.64
1.25
1.93
2.53
2.92
3.03
2.84
2.43
1.92
1.46
1.14
0.99
0.96
0.97
0.96
0.88
0.73
0.52
0.30
0.10
-0.01
-0.04
0.02
0.08
0.09
-0.06
-0.37
-0.85
-1.43
-2.07
-2.74
-3.43
-4.16
-4.90
-5.60
-6.13
-6.39
-6.36
-6.09
-5.72
-5.39
-5.16
-4.96
-4.70
-4.24
-3.58
-2.82
-2.12
-1.60
-1.28
-1.08
-0.91
-0.69
-0.41
-0.11
0.18
0.43
0.64
0.81
0.93
1.04
1.17
1.33
1.50
1.63
1.63
1.47
1.20
0.93
0.76
0.74
0.77
0.72
0.45
-0.04
-0.65
-1.18
-1.49
-1.52
-1.27
-0.83
-0.28
0.32
0.96
1.62
2.25
2.81
3.23
3.45
3.45
3.24
2.91
2.54
2.27
2.17
2.26
2.53
2.90
3.29
3.61
3.83
3.94
3.99
4.03
4.11
4.25
4.45
4.66
4.82
4.89
4.84
4.67
4.44
4.18
3.91
3.65
3.38
3.07
2.68
2.21
1.67
1.10
0.56
0.14
-0.14
-0.26
-0.27
-0.29
-0.47
-0.92
-1.68
-2.68
-3.74
-4.62
-5.11
-5.15
-4.77
-4.11
-3.38
-2.70
-2.19
-1.84
-1.61
-1.45
-1.26
-1.00
-0.63
-0.16
0.35
0.79
1.06
1.10
0.92
0.62
0.33
0.18
0.21
0.39
0.63
0.82
0.89
0.80
0.57
0.26
-0.08
-0.39
-0.60
-0.73
-0.77
-0.74
-0.66
-0.52
-0.30
-0.01
0.32
0.59
0.71
0.55
0.08
-0.67
-1.58
-2.47
-3.20
-3.68
-3.92
-4.02
-4.10
-4.19
-4.30
-4.34
-4.22
-3.93
-3.54
-3.13
-2.84
-2.73
-2.78
-2.91
-3.03
-3.02
-2.84
-2.51
-2.09
-1.61
-1.12
-0.63
-0.13
0.36
0.84
1.25
1.53
1.64
1.59
1.42
1.24
1.15
1.21
1.42
1.67
1.85
1.83
1.61
1.28
1.01
0.91
1.01
1.23
1.38
1.36
1.11
0.71
0.26
-0.18
-0.58
-0.97
-1.39
-1.85
-2.33
-2.83
-3.35
-3.90
-4.47
-4.99
-5.31
-5.31
-4.96
-4.30
-3.52
-2.82
-2.34
-2.16
-2.18
-2.30
-2.38
-2.35
-2.18
-1.87
-1.43
-0.87
-0.21
0.51
1.24
1.90
2.43
2.80
3.04
3.18
3.26
3.33
3.38
3.37
3.27
3.09
2.87
2.71
2.71
2.91
3.22
3.51
3.60
3.41
2.97
2.41
1.91
1.56
1.39
1.32
1.27
1.20
1.12
1.07
1.04
0.94
0.69
0.26
-0.30
-0.80
-1.03
-0.88
-0.35
0.40
1.15
1.77
2.20
2.50
2.79
3.08
3.37
3.58
3.68
3.72
3.76
3.88
4.08
4.31
4.50
4.58
4.54
4.43
4.25
4.04
3.83
3.66
3.54
3.47
3.37
3.11
2.61
1.90
1.10
0.43
0.06
0.01
0.17
0.34
0.34
0.11
-0.31
-0.82
-1.31
-1.78
-2.24
-2.75
-3.33
-3.92
-4.43
-4.75
-4.84
-4.76
-4.63
-4.55
-4.59
-4.71
-4.80
-4.72
-4.40
-3.82
-3.07
-2.24
-1.45
-0.76
-0.19
0.24
0.50
0.57
0.47
0.25
0.04
-0.03
0.13
0.53
1.06
1.60
2.04
2.35
2.55
2.72
2.91
3.07
3.13
2.99
2.63
2.12
1.62
1.30
1.27
1.50
1.88
2.22
2.39
2.34
2.14
1.90
1.67
1.42
1.02
0.40
-0.43
-1.34
-2.14
-2.66
-2.86
-2.85
-2.79
-2.86
-3.12
-3.53
-4.00
-4.41
-4.65
-4.66
-4.43
-3.99
-3.35
-2.61
-1.84
-1.12
-0.49
0.07
0.58
1.07
1.48
1.76
1.88
1.84
1.73
1.64
1.62
1.67
1.74
1.75
1.70
1.62
1.59
1.66
1.82
1.98
2.06
1.99
1.77
1.39
0.87
0.27
-0.33
-0.84
-1.13
-1.16
-0.92
-0.54
-0.17
0.00
-0.10
-0.46
-0.99
-1.54
-1.98
-2.25
-2.37
-2.41
-2.50
-2.71
-3.09
-3.58
-4.05
-4.34
-4.33
-3.95
-3.25
-2.38
-1.52
-0.83
-0.39
-0.20
-0.17
-0.17
-0.08
0.14
0.49
0.93
1.38
1.79
2.12
2.35
2.45
2.42
2.29
2.09
1.89
1.73
1.64
1.61
1.62
1.61
1.53
1.38
1.16
0.91
0.67
0.46
0.27
0.08
-0.13
-0.38
-0.64
-0.89
-1.10
-1.27
-1.41
-1.53
-1.65
-1.81
-2.01
-2.31
-2.71
-3.23
-3.81
-4.36
-4.76
-4.90
-4.73
-4.26
-3.61
-2.91
-2.28
-1.76
-1.36
-1.04
-0.75
-0.47
-0.20
0.03
0.19
0.29
0.34
0.39
0.49
0.63
0.81
0.98
1.07
1.03
0.86
0.57
0.21
-0.17
-0.54
-0.86
-1.14
-1.37
-1.56
-1.72
-1.88
-2.03
-2.17
-2.27
-2.34
-2.40
-2.49
-2.66
-2.95
-3.34
-3.81
-4.32
-4.80
-5.20
-5.41
-5.23
-4.38
-2.52
0.62
5.26
11.49
19.33
28.65
39.08
49.89
59.90
67.55
71.22
69.69
62.52
50.19
33.97
15.61
-3.16
-20.78
-36.02
-47.92
-55.83
-59.47
-59.03
-55.23
-49.06
-41.52
-33.32
-24.82
-16.15
-7.55
0.56
7.51
12.73
15.96
17.42
17.71
17.53
17.46
17.73
18.32
19.07
19.78
20.35
20.71
20.81
20.51
19.67
18.16
15.92
13.10
10.05
7.25
5.18
4.11
3.99
4.47
5.00
5.13
4.66
3.70
2.57
1.61
1.04
0.88
1.00
1.20
1.28
1.10
0.45
-0.89
-3.10
-6.16
-9.71
-13.14
-15.74
-16.94
-16.58
-14.87
-12.30
-9.35
-6.38
-3.53
-0.86
1.56
3.54
4.87
5.44
5.38
5.04
4.90
5.30
6.31
7.67
8.90
9.45
8.97
7.38
4.92
2.02
-0.85
-3.34
-5.28
-6.70
-7.74
-8.57
-9.28
-9.87
-10.26
-10.31
-9.85
-8.66
-6.42
-2.78
2.49
9.34
17.22
25.13
31.73
35.83
36.67
34.25
29.22
22.78
16.25
10.82
7.31
6.06
6.88
9.16
12.06
14.71
16.50
17.22
17.05
16.36
15.52
14.66
13.64
12.15
9.99
7.17
3.99
0.86
-1.88
-4.14
-6.04
-7.83
-9.65
-11.40
-12.82
-13.55
-13.37
-12.28
-10.55
-8.56
-6.57
-4.48
-1.62
3.10
10.85
22.36
37.49
54.97
72.48
86.97
95.14
94.03
81.70
57.78
23.89
-16.61
-59.24
-99.59
-134.37
-162.03
-182.63
-197.12
-206.41
-210.80
-209.97
-203.31
-190.54
-172.12
-149.35
-124.24
-99.03
-75.80
-56.00
-40.24
-28.31
-19.37
-12.32
-6.11
-0.04
6.23
12.75
19.41
25.98
32.15
37.37
40.88
41.83
39.62
34.43
27.45
20.78
16.75
17.13
22.37
31.36
41.87
51.26
57.46
59.51
57.70
53.25
47.63
42.09
37.31
33.43
30.34
27.98
26.48
26.01
26.58
27.76
28.78
28.80
27.26
24.16
19.98
15.44
11.16
7.50
4.56
2.32
0.76
-0.09
-0.31
-0.07
0.28
0.33
-0.26
-1.68
-3.87
-6.54
-9.25
-11.51
-12.85
-12.93
-11.58
-8.84
-4.96
-0.25
4.96
10.41
15.92
21.26
26.10
29.96
32.31
32.75
31.13
27.72
23.01
17.63
12.08
6.64
1.33
-3.98
-9.41
-14.97
-20.59
-26.12
-31.42
-36.37
-40.89
-44.84
-48.10
-50.55
-52.23
-53.36
-54.30
-55.43
-56.95
-58.67
-60.02
-60.29
-58.91
-55.83
-51.54
-46.89
-42.63
-39.09
-35.89
-32.21
-27.07
-19.83
-10.37
0.82
12.87
24.70
35.32
43.93
50.01
53.39
54.19
52.84
49.92
46.08
41.92
37.93
34.43
31.49
29.00
26.69
24.26
21.57
18.70
15.91
13.54
11.86
10.90
10.54
10.52
10.59
10.61
10.52
10.38
10.22
10.09
9.97
9.86
9.74
9.61
9.48
9.35
9.23
9.12
9.03
8.96
8.92
8.88
8.79
8.58
8.17
7.55
6.76
5.92
5.17
4.61
4.26
4.06
3.92
3.74
3.44
3.01
2.44
1.77
1.08
0.48
0.09
-0.03
0.14
0.54
1.09
1.70
2.32
2.92
3.46
3.92
4.31
4.62
4.89
5.12
5.28
5.34
5.27
5.05
4.69
4.22
3.69
3.12
2.56
2.05
1.71
1.63
1.85
2.31
2.83
3.19
3.19
2.76
1.96
1.00
0.06
-0.69
-1.23
-1.60
-1.88
-2.12
-2.26
-2.22
-1.92
-1.32
-0.44
0.59
1.64
2.60
3.41
4.05
4.58
5.05
5.49
5.95
6.43
6.92
7.35
7.63
7.67
7.42
6.91
6.24
5.53
4.90
4.40
4.06
3.84
3.70
3.58
3.42
3.17
2.78
2.28
1.69
1.08
0.51
0.03
-0.35
-0.60
-0.77
-0.90
-1.08
-1.38
-1.82
-2.29
-2.63
-2.66
-2.31
-1.59
-0.66
0.34
1.28
2.10
2.81
3.39
3.79
3.97
3.90
3.59
3.16
2.75
2.48
2.39
2.42
2.47
2.43
2.27
2.02
1.77
1.61
1.62
1.82
2.16
2.56
2.89
3.05
2.97
2.65
2.12
1.50
0.88
0.35
-0.03
-0.27
-0.44
-0.61
-0.82
-1.10
-1.40
-1.61
-1.63
-1.37
-0.82
-0.05
0.81
1.58
2.16
2.45
2.47
2.26
1.91
1.48
1.01
0.55
0.14
-0.14
-0.17
0.11
0.69
1.44
2.14
2.58
2.66
2.42
2.02
1.65
1.40
1.26
1.16
0.96
0.62
0.15
-0.38
-0.87
-1.26
-1.52
-1.66
-1.72
-1.74
-1.72
-1.66
-1.54
-1.33
-1.03
-0.63
-0.20
0.19
0.49
0.60
0.50
0.19
-0.26
-0.79
-1.30
-1.72
-2.03
-2.22
-2.29
-2.27
-2.20
-2.11
-2.08
-2.13
-2.31
-2.58
-2.90
-3.19
-3.39
-3.48
-3.48
-3.41
-3.28
-3.12
-2.94
-2.77
-2.63
-2.54
-2.53
-2.64
-2.92
-3.41
-4.07
-4.79
-5.35
-5.52
-5.16
-4.25
-2.95
-1.47
-0.01
1.33
2.47
3.36
3.94
4.18
4.10
3.85
3.63
3.59
3.78
4.07
4.26
4.24
3.97
3.57
3.19
2.88
2.66
2.48
2.33
2.27
2.39
2.71
3.18
3.68
4.07
4.26
4.26
4.13
3.90
3.58
3.14
2.56
1.88
1.17
0.58
0.19
0.01
-0.02
-0.06
-0.24
-0.64
-1.24
-1.91
-2.47
-2.79
-2.81
-2.55
-2.10
-1.55
-0.98
-0.48
-0.12
-0.01
-0.23
-0.77
-1.51
-2.24
-2.78
-3.02
-2.98
-2.75
-2.44
-2.09
-1.68
-1.19
-0.65
-0.18
0.04
-0.10
-0.62
-1.44
-2.40
-3.36
-4.21
-4.90
-5.39
-5.66
-5.67
-5.41
-4.93
-4.32
-3.71
-3.19
-2.82
-2.59
-2.50
-2.51
-2.57
-2.63
-2.62
-2.46
-2.13
-1.64
-1.06
-0.47
0.04
0.38
0.54
0.57
0.55
0.60
0.83
1.24
1.74
2.16
2.31
2.09
1.57
0.89
0.26
-0.14
-0.28
-0.19
0.01
0.22
0.36
0.38
0.25
-0.02
-0.39
-0.75
-1.02
-1.12
-1.05
-0.89
-0.78
-0.81
-1.03
-1.41
-1.85
-2.23
-2.49
-2.55
-2.42
-2.10
-1.63
-1.08
-0.52
-0.06
0.24
0.35
0.28
0.09
-0.10
-0.21
-0.20
-0.05
0.19
0.49
0.82
1.14
1.46
1.74
1.99
2.18
2.29
2.28
2.14
1.86
1.46
0.96
0.42
-0.10
-0.56
-0.90
-1.14
-1.30
-1.42
-1.54
-1.67
-1.83
-2.01
-2.19
-2.32
-2.36
-2.25
-1.99
-1.61
-1.18
-0.78
-0.47
-0.25
-0.07
0.13
0.36
0.57
0.68
0.60
0.31
-0.12
-0.55
-0.89
-1.10
-1.19
-1.25
-1.33
-1.42
-1.47
-1.38
-1.09
-0.63
-0.06
0.46
0.81
0.94
0.84
0.57
0.22
-0.18
-0.63
-1.12
-1.63
-2.11
-2.48
-2.67
-2.68
-2.55
-2.34
-2.07
-1.74
-1.30
-0.74
-0.13
0.42
0.79
0.91
0.80
0.54
0.26
0.07
-0.01
0.01
0.05
0.07
0.08
0.12
0.24
0.45
0.66
0.78
0.69
0.41
0.03
-0.28
-0.45
-0.48
-0.48
-0.57
-0.81
-1.13
-1.40
-1.52
-1.48
-1.35
-1.26
-1.25
-1.28
-1.25
-1.08
-0.75
-0.33
0.07
0.37
0.55
0.66
0.75
0.88
1.05
1.23
1.38
1.48
1.51
1.46
1.37
1.30
1.29
1.36
1.48
1.55
1.50
1.28
0.92
0.50
0.16
-0.01
0.02
0.22
0.47
0.67
0.72
0.56
0.24
-0.18
-0.59
-0.89
-1.06
-1.12
-1.15
-1.18
-1.18
-1.08
-0.83
-0.40
0.14
0.69
1.16
1.51
1.73
1.86
1.93
1.93
1.85
1.66
1.39
1.08
0.85
0.78
0.90
1.19
1.54
1.83
1.98
1.98
1.87
1.72
1.55
1.32
0.99
0.58
0.16
-0.13
-0.21
-0.11
0.06
0.16
0.12
-0.03
-0.20
-0.26
-0.17
0.01
0.20
0.37
0.53
0.74
1.01
1.33
1.62
1.78
1.77
1.64
1.49
1.40
1.41
1.48
1.56
1.58
1.57
1.58
1.64
1.74
1.82
1.82
1.69
1.44
1.13
0.82
0.54
0.29
0.04
-0.21
-0.44
-0.59
-0.61
-0.51
-0.32
-0.12
0.03
0.06
0.01
-0.05
-0.05
0.12
0.46
0.95
1.49
2.00
2.42
2.71
2.85
2.82
2.60
2.21
1.72
1.23
0.82
0.57
0.47
0.52
0.69
0.98
1.38
1.83
2.21
2.40
2.31
2.00
1.60
1.27
1.10
1.06
1.05
0.91
0.60
0.13
-0.39
-0.84
-1.14
-1.27
-1.23
-1.06
-0.78
-0.43
-0.07
0.26
0.50
0.65
0.75
0.81
0.87
0.92
0.94
0.91
0.84
0.76
0.70
0.68
0.70
0.74
0.77
0.79
0.78
0.73
0.62
0.47
0.32
0.22
0.22
0.29
0.38
0.42
0.35
0.18
-0.07
-0.33
-0.56
-0.74
-0.90
-1.04
-1.17
-1.24
-1.21
-1.01
-0.65
-0.20
0.22
0.48
0.53
0.40
0.20
0.05
0.03
0.11
0.23
0.30
0.30
0.24
0.20
0.22
0.28
0.34
0.33
0.22
0.03
-0.18
-0.31
-0.30
-0.15
0.09
0.30
0.40
0.34
0.12
-0.20
-0.54
-0.82
-0.99
-1.05
-1.02
-0.95
-0.87
-0.81
-0.74
-0.64
-0.48
-0.29
-0.14
-0.06
-0.07
-0.14
-0.21
-0.22
-0.15
-0.03
0.08
0.13
0.09
-0.01
-0.12
-0.19
-0.20
-0.15
-0.09
-0.07
-0.14
-0.28
-0.44
-0.56
-0.60
-0.57
-0.53
-0.58
-0.74
-0.98
-1.22
-1.42
-1.55
-1.68
-1.86
-2.07
-2.23
-2.23
-2.00
-1.52
-0.89
-0.24
0.33
0.75
1.02
1.13
1.09
0.86
0.48
-0.03
-0.58
-1.07
-1.41
-1.52
-1.36
-0.95
-0.38
0.22
0.70
0.91
0.79
0.37
-0.22
-0.76
-1.05
-0.99
-0.61
-0.09
0.30
0.35
-0.02
-0.67
-1.38
-1.88
-2.07
-1.98
-1.73
-1.45
-1.19
-0.94
-0.69
-0.46
-0.34
-0.38
-0.55
-0.73
-0.78
-0.64
-0.35
-0.04
0.18
0.27
0.27
0.28
0.38
0.55
0.77
1.00
1.22
1.49
1.84
2.25
2.66
2.96
3.10
3.05
2.87
2.67
2.51
2.45
2.54
2.84
3.38
4.18
5.12
5.99
6.54
6.51
5.80
4.47
2.74
0.87
-0.89
-2.42
-3.71
-4.83
-5.84
-6.76
-7.55
-8.15
-8.50
-8.59
-8.46
-8.15
-7.74
-7.25
-6.67
-6.00
-5.28
-4.54
-3.85
-3.30
-2.96
-2.83
-2.88
-2.99
-3.04
-2.95
-2.72
-2.45
-2.26
-2.23
-2.35
-2.50
-2.54
-2.35
-1.96
-1.43
-0.89
-0.40
0.01
0.36
0.65
0.85
0.93
0.90
0.78
0.64
0.53
0.48
0.45
0.36
0.17
-0.10
-0.41
-0.67
-0.83
-0.86
-0.77
-0.61
-0.41
-0.20
-0.01
0.12
0.14
-0.01
-0.34
-0.79
-1.27
-1.66
-1.85
-1.83
-1.61
-1.29
-0.98
-0.78
-0.72
-0.80
-0.93
-1.03
-1.03
-0.92
-0.73
-0.55
-0.44
-0.43
-0.52
-0.67
-0.81
-0.91
-0.94
-0.89
-0.76
-0.56
-0.32
-0.10
0.05
0.06
-0.08
-0.36
-0.74
-1.17
-1.62
-2.05
-2.46
-2.83
-3.11
-3.30
-3.38
-3.42
-3.48
-3.67
-4.00
-4.43
-4.82
-4.99
-4.74
-3.97
-2.68
-1.01
0.82
2.53
3.90
4.80
5.23
5.30
5.13
4.83
4.47
4.07
3.69
3.39
3.26
3.32
3.54
3.81
3.98
3.95
3.73
3.41
3.15
3.07
3.16
3.32
3.37
3.20
2.79
2.20
1.58
1.08
0.76
0.59
0.46
0.26
-0.08
-0.59
-1.17
-1.72
-2.10
-2.20
-2.02
-1.61
-1.03
-0.36
0.33
0.97
1.44
1.67
1.64
1.46
1.28
1.29
1.57
2.03
2.52
2.84
2.89
2.68
2.33
1.97
1.67
1.43
1.24
1.08
0.94
0.86
0.86
0.92
1.00
1.07
1.07
1.03
0.95
0.87
0.82
0.76
0.62
0.35
-0.08
-0.58
-1.02
-1.24
-1.16
-0.77
-0.18
0.49
1.12
1.65
2.05
2.33
2.49
2.51
2.40
2.20
1.96
1.77
1.69
1.72
1.84
1.99
2.13
2.22
2.23
2.15
2.00
1.80
1.61
1.48
1.46
1.52
1.61
1.65
1.62
1.49
1.35
1.23
1.19
1.19
1.15
0.98
0.64
0.16
-0.36
-0.81
-1.11
-1.22
-1.16
-0.95
-0.66
-0.36
-0.14
-0.07
-0.16
-0.32
-0.38
-0.19
0.33
1.10
1.89
2.45
2.61
2.36
1.88
1.42
1.18
1.23
1.49
1.79
2.01
2.11
2.12
2.08
2.02
1.94
1.80
1.61
1.39
1.19
1.00
0.79
0.51
0.18
-0.13
-0.28
-0.17
0.15
0.53
0.75
0.63
0.16
-0.55
-1.32
-1.94
-2.31
-2.41
-2.25
-1.89
-1.38
-0.77
-0.14
0.43
0.84
1.05
1.06
0.92
0.69
0.48
0.35
0.35
0.46
0.64
0.81
0.89
0.89
0.84
0.80
0.84
0.96
1.12
1.26
1.32
1.28
1.17
1.01
0.81
0.61
0.43
0.29
0.21
0.21
0.24
0.26
0.19
0.01
-0.26
-0.54
-0.74
-0.84
-0.87
-0.91
-1.07
-1.34
-1.67
-1.90
-1.90
-1.62
-1.11
-0.55
-0.08
0.15
0.12
-0.13
-0.46
-0.77
-0.99
-1.04
-0.93
-0.65
-0.23
0.27
0.77
1.20
1.48
1.56
1.46
1.23
0.92
0.57
0.19
-0.22
-0.61
-0.92
-1.05
-0.94
-0.65
-0.28
0.03
0.19
0.20
0.15
0.09
0.05
0.01
-0.08
-0.24
-0.42
-0.58
-0.68
-0.74
-0.78
-0.79
-0.76
-0.66
-0.54
-0.47
-0.53
-0.73
-1.01
-1.23
-1.29
-1.12
-0.80
-0.42
-0.10
0.12
0.22
0.22
0.13
-0.04
-0.23
-0.39
-0.43
-0.29
-0.00
0.36
0.68
0.86
0.87
0.73
0.50
0.21
-0.08
-0.37
-0.64
-0.85
-0.98
-1.04
-1.07
-1.09
-1.17
-1.28
-1.41
-1.48
-1.44
-1.29
-1.06
-0.82
-0.65
-0.59
-0.64
-0.78
-0.93
-1.07
-1.17
-1.22
-1.23
-1.17
-1.06
-0.90
-0.71
-0.51
-0.33
-0.14
0.07
0.32
0.56
0.76
0.87
0.87
0.79
0.66
0.50
0.32
0.14
-0.01
-0.08
-0.05
0.07
0.18
0.19
0.04
-0.20
-0.41
-0.51
-0.45
-0.31
-0.24
-0.32
-0.56
-0.83
-0.97
-0.91
-0.68
-0.42
-0.33
-0.50
-0.89
-1.34
-1.64
-1.69
-1.46
-1.08
-0.71
-0.48
-0.41
-0.47
-0.55
-0.57
-0.51
-0.39
-0.26
-0.16
-0.09
-0.04
0.03
0.13
0.22
0.25
0.17
-0.03
-0.25
-0.43
-0.49
-0.44
-0.31
-0.18
-0.07
0.01
0.06
0.06
-0.02
-0.21
-0.50
-0.79
-0.99
-1.01
-0.84
-0.55
-0.25
-0.06
-0.07
-0.27
-0.61
-0.97
-1.27
-1.42
-1.45
-1.40
-1.33
-1.29
-1.28
-1.24
-1.12
-0.90
-0.61
-0.29
0.03
0.31
0.57
0.79
0.94
0.97
0.85
0.57
0.20
-0.20
-0.54
-0.78
-0.88
-0.83
-0.63
-0.32
0.00
0.24
0.31
0.19
-0.07
-0.32
-0.45
-0.40
-0.22
-0.06
-0.01
-0.12
-0.32
-0.48
-0.53
-0.46
-0.35
-0.29
-0.34
-0.48
-0.63
-0.73
-0.74
-0.71
-0.69
-0.72
-0.77
-0.78
-0.72
-0.60
-0.48
-0.42
-0.42
-0.43
-0.40
-0.27
-0.07
0.14
0.29
0.36
0.34
0.28
0.19
0.07
-0.08
-0.22
-0.31
-0.28
-0.09
0.24
0.63
0.94
1.05
0.91
0.57
0.12
-0.27
-0.50
-0.55
-0.49
-0.42
-0.42
-0.48
-0.52
-0.50
-0.39
-0.23
-0.09
-0.04
-0.09
-0.20
-0.35
-0.52
-0.71
-0.92
-1.10
-1.20
-1.16
-0.95
-0.63
-0.26
0.10
0.40
0.63
0.78
0.85
0.88
0.88
0.89
0.91
0.92
0.87
0.73
0.49
0.19
-0.10
-0.30
-0.38
-0.31
-0.12
0.14
0.42
0.62
0.64
0.45
0.07
-0.37
-0.70
-0.77
-0.52
-0.05
0.45
0.82
0.96
0.89
0.72
0.57
0.48
0.46
0.42
0.33
0.19
0.05
-0.04
-0.07
-0.05
-0.01
0.05
0.15
0.32
0.59
0.89
1.16
1.30
1.27
1.06
0.72
0.30
-0.13
-0.50
-0.74
-0.78
-0.61
-0.26
0.16
0.53
0.71
0.66
0.41
0.09
-0.16
-0.23
-0.07
0.27
0.71
1.13
1.46
1.63
1.63
1.45
1.12
0.70
0.25
-0.13
-0.41
-0.56
-0.61
-0.63
-0.62
-0.58
-0.46
-0.20
0.17
0.57
0.87
0.97
0.82
0.50
0.13
-0.18
-0.34
-0.36
-0.27
-0.11
0.06
0.24
0.38
0.48
0.48
0.39
0.22
0.00
-0.20
-0.34
-0.40
-0.36
-0.26
-0.14
-0.06
-0.07
-0.17
-0.30
-0.40
-0.37
-0.21
0.04
0.26
0.35
0.23
-0.08
-0.46
-0.79
-0.97
-0.97
-0.85
-0.71
-0.59
-0.50
-0.41
-0.28
-0.14
-0.04
-0.02
-0.10
-0.23
-0.30
-0.24
-0.02
0.31
0.66
0.96
1.15
1.19
1.08
0.87
0.60
0.34
0.15
0.06
0.03
0.01
-0.06
-0.22
-0.44
-0.67
-0.85
-0.95
-0.97
-0.93
-0.82
-0.65
-0.41
-0.11
0.20
0.42
0.48
0.36
0.13
-0.12
-0.25
-0.20
0.02
0.28
0.45
0.46
0.32
0.12
-0.01
0.00
0.15
0.39
0.65
0.88
1.05
1.12
1.07
0.88
0.57
0.22
-0.10
-0.35
-0.57
-0.81
-1.09
-1.39
-1.64
-1.79
-1.85
-1.87
-1.94
-2.03
-2.08
-1.97
-1.65
-1.16
-0.65
-0.26
-0.04
0.03
0.05
0.09
0.18
0.30
0.40
0.46
0.50
0.53
0.59
0.71
0.88
1.05
1.18
1.20
1.11
0.93
0.74
0.61
0.57
0.62
0.69
0.71
0.64
0.49
0.27
0.03
-0.19
-0.37
-0.50
-0.58
-0.61
-0.59
-0.56
-0.56
-0.61
-0.71
-0.81
-0.86
-0.85
-0.76
-0.62
-0.48
-0.35
-0.21
-0.08
0.03
0.08
0.01
-0.14
-0.26
-0.22
0.07
0.56
1.11
1.50
1.59
1.36
0.91
0.42
0.01
-0.24
-0.31
-0.22
0.04
0.47
1.01
1.59
2.05
2.25
2.11
1.62
0.91
0.16
-0.46
-0.83
-0.93
-0.84
-0.66
-0.49
-0.36
-0.28
-0.20
-0.09
0.05
0.22
0.38
0.53
0.64
0.71
0.72
0.67
0.55
0.38
0.21
0.12
0.16
0.32
0.54
0.73
0.80
0.74
0.58
0.41
0.29
0.21
0.15
0.06
-0.05
-0.14
-0.13
0.01
0.26
0.53
0.75
0.86
0.85
0.74
0.55
0.29
-0.01
-0.35
-0.70
-1.00
-1.17
-1.19
-1.04
-0.79
-0.52
-0.29
-0.13
-0.02
0.09
0.24
0.43
0.67
0.91
1.11
1.27
1.37
1.42
1.42
1.37
1.26
1.11
0.95
0.81
0.73
0.72
0.74
0.76
0.71
0.59
0.40
0.18
-0.01
-0.14
-0.16
-0.06
0.15
0.39
0.59
0.66
0.55
0.28
-0.07
-0.42
-0.69
-0.86
-0.93
-0.90
-0.75
-0.45
-0.02
0.47
0.89
1.12
1.11
0.88
0.55
0.26
0.11
0.10
0.19
0.28
0.31
0.24
0.11
-0.01
-0.06
-0.02
0.09
0.21
0.30
0.31
0.26
0.16
0.04
-0.08
-0.20
-0.35
-0.51
-0.67
-0.80
-0.86
-0.89
-0.88
-0.84
-0.76
-0.65
-0.52
-0.43
-0.42
-0.50
-0.61
-0.66
-0.56
-0.34
-0.07
0.15
0.24
0.20
0.14
0.11
0.15
0.23
0.27
0.25
0.16
0.05
-0.03
-0.04
0.02
0.13
0.27
0.43
0.60
0.76
0.88
0.93
0.87
0.73
0.53
0.32
0.12
-0.06
-0.23
-0.40
-0.54
-0.65
-0.69
-0.67
-0.62
-0.60
-0.65
-0.77
-0.96
-1.13
-1.24
-1.23
-1.07
-0.77
-0.36
0.10
0.51
0.74
0.74
0.51
0.14
-0.21
-0.42
-0.43
-0.25
0.03
0.30
0.51
0.63
0.69
0.70
0.63
0.45
0.17
-0.21
-0.58
-0.84
-0.90
-0.74
-0.43
-0.09
0.16
0.28
0.28
0.25
0.28
0.39
0.56
0.75
0.88
0.92
0.83
0.64
0.39
0.14
-0.05
-0.13
-0.10
0.04
0.23
0.45
0.72
1.02
1.37
1.70
1.93
1.95
1.73
1.31
0.83
0.42
0.20
0.16
0.21
0.20
-0.02
-0.53
-1.27
-2.09
-2.75
-3.08
-3.00
-2.60
-2.08
-1.65
-1.44
-1.48
-1.65
-1.79
-1.80
-1.63
-1.36
-1.10
-0.92
-0.83
-0.79
-0.76
-0.73
-0.74
-0.82
-0.98
-1.17
-1.31
-1.35
-1.30
-1.18
-1.03
-0.85
-0.60
-0.21
0.32
0.97
1.66
2.30
2.81
3.15
3.29
3.26
3.07
2.82
2.57
2.38
2.25
2.12
1.88
1.48
0.89
0.21
-0.45
-0.96
-1.26
-1.35
-1.26
-1.08
-0.88
-0.76
-0.82
-1.12
-1.67
-2.41
-3.25
-4.06
-4.72
-5.15
-5.30
-5.11
-4.55
-3.66
-2.57
-1.49
-0.63
-0.14
-0.03
-0.17
-0.43
-0.70
-0.95
-1.18
-1.38
-1.45
-1.30
-0.90
-0.29
0.42
1.08
1.65
2.12
2.53
2.89
3.16
3.25
3.10
2.77
2.36
2.06
1.99
2.16
2.46
2.71
2.71
2.38
1.75
0.95
0.17
-0.43
-0.75
-0.79
-0.61
-0.30
0.08
0.44
0.74
0.90
0.88
0.67
0.32
-0.12
-0.57
-0.97
-1.35
-1.75
-2.23
-2.82
-3.48
-4.11
-4.59
-4.82
-4.75
-4.37
-3.74
-2.93
-2.03
-1.17
-0.42
0.15
0.49
0.62
0.58
0.43
0.21
-0.03
-0.26
-0.43
-0.53
-0.51
-0.38
-0.13
0.21
0.60
1.00
1.36
1.67
1.92
2.14
2.32
2.44
2.47
2.39
2.19
1.92
1.60
1.29
1.01
0.81
0.74
0.84
1.10
1.47
1.81
2.02
2.04
1.88
1.63
1.37
1.14
0.93
0.72
0.48
0.22
-0.09
-0.47
-0.91
-1.36
-1.73
-1.96
-2.00
-1.93
-1.86
-1.87
-1.97
-2.06
-2.08
-1.99
-1.82
-1.64
-1.47
-1.27
-0.98
-0.56
-0.07
0.36
0.61
0.62
0.45
0.27
0.22
0.38
0.68
1.01
1.24
1.30
1.22
1.08
0.93
0.80
0.68
0.56
0.44
0.34
0.27
0.21
0.15
0.10
0.08
0.13
0.27
0.45
0.59
0.59
0.42
0.05
-0.43
-0.96
-1.41
-1.72
-1.85
-1.78
-1.59
-1.35
-1.11
-0.91
-0.73
-0.55
-0.39
-0.27
-0.24
-0.25
-0.25
-0.15
0.08
0.41
0.72
0.86
0.80
0.56
0.24
-0.04
-0.21
-0.29
-0.31
-0.29
-0.22
-0.07
0.18
0.49
0.80
1.03
1.12
1.06
0.87
0.63
0.38
0.17
0.03
-0.04
-0.05
-0.01
0.03
0.01
-0.05
-0.14
-0.18
-0.13
0.02
0.20
0.33
0.30
0.09
-0.25
-0.58
-0.76
-0.72
-0.49
-0.19
0.03
0.09
0.02
-0.08
-0.11
-0.02
0.14
0.27
0.27
0.14
-0.06
-0.24
-0.34
-0.37
-0.38
-0.39
-0.36
-0.22
0.06
0.41
0.70
0.75
0.51
0.07
-0.39
-0.69
-0.75
-0.60
-0.36
-0.15
-0.04
-0.03
-0.09
-0.20
-0.32
-0.44
-0.51
-0.48
-0.34
-0.11
0.14
0.33
0.42
0.42
0.40
0.42
0.49
0.57
0.63
0.61
0.55
0.49
0.46
0.46
0.41
0.28
0.06
-0.16
-0.30
-0.30
-0.22
-0.17
-0.24
-0.46
-0.76
-1.02
-1.15
-1.14
-1.03
-0.86
-0.67
-0.46
-0.23
0.00
0.17
0.23
0.20
0.15
0.15
0.24
0.41
0.58
0.69
0.70
0.67
0.67
0.75
0.88
0.95
0.87
0.57
0.13
-0.32
-0.59
-0.59
-0.30
0.13
0.54
0.78
0.77
0.53
0.14
-0.27
-0.59
-0.74
-0.69
-0.47
-0.15
0.13
0.29
0.27
0.11
-0.13
-0.34
-0.50
-0.63
-0.77
-0.95
-1.12
-1.19
-1.07
-0.73
-0.24
0.25
0.55
0.56
0.27
-0.21
-0.68
-0.97
-0.97
-0.72
-0.34
-0.00
0.19
0.20
0.11
0.02
0.02
0.12
0.28
0.42
0.47
0.41
0.27
0.12
0.01
-0.01
0.07
0.21
0.32
0.33
0.18
-0.10
-0.41
-0.63
-0.68
-0.56
-0.31
-0.06
0.09
0.12
0.06
-0.02
-0.05
-0.05
-0.08
-0.19
-0.42
-0.71
-0.93
-0.98
-0.81
-0.49
-0.16
0.02
-0.03
-0.27
-0.56
-0.74
-0.70
-0.43
-0.03
0.36
0.62
0.66
0.52
0.28
0.05
-0.10
-0.10
0.04
0.28
0.57
0.82
0.98
1.01
0.89
0.67
0.42
0.21
0.05
-0.04
-0.13
-0.26
-0.41
-0.56
-0.66
-0.65
-0.56
-0.47
-0.43
-0.47
-0.52
-0.47
-0.26
0.07
0.42
0.62
0.60
0.39
0.11
-0.11
-0.21
-0.23
-0.27
-0.35
-0.46
-0.48
-0.32
0.01
0.41
0.75
0.90
0.88
0.76
0.62
0.54
0.50
0.44
0.31
0.10
-0.12
-0.32
-0.47
-0.62
-0.79
-1.00
-1.16
-1.17
-0.97
-0.61
-0.25
-0.06
-0.14
-0.46
-0.86
-1.19
-1.36
-1.37
-1.31
-1.26
-1.23
-1.17
-1.00
-0.70
-0.32
0.03
0.27
0.46
0.81
1.54
2.77
4.37
5.92
6.86
6.79
5.60
3.56
1.24
-0.77
-2.08
-2.58
-2.43
-1.94
-1.35
-0.77
-0.21
0.43
1.19
2.01
2.78
3.33
3.56
3.43
3.06
2.60
2.22
2.01
2.03
2.26
2.73
3.44
4.36
5.39
6.37
7.13
7.51
7.53
7.29
6.98
6.75
6.64
6.56
6.36
5.95
5.30
4.51
3.74
3.12
2.71
2.46
2.25
1.91
1.33
0.43
-0.78
-2.15
-3.48
-4.53
-5.12
-5.22
-4.96
-4.59
-4.36
-4.38
-4.59
-4.78
-4.71
-4.24
-3.35
-2.17
-0.89
0.29
1.24
1.87
2.16
2.12
1.75
1.07
0.15
-0.85
-1.74
-2.30
-2.34
-1.79
-0.71
0.73
2.27
3.71
4.91
5.80
6.47
7.07
7.81
8.82
10.10
11.55
13.04
14.43
15.64
16.61
17.41
18.17
19.12
20.57
22.85
26.12
30.12
33.97
36.47
36.57
33.95
29.22
23.90
19.88
18.76
21.25
26.53
32.91
38.52
41.81
41.81
38.25
31.51
22.67
13.23
4.26
-3.05
-7.51
-8.57
-7.11
-5.66
-7.46
-15.07
-29.16
-49.08
-71.81
-92.83
-107.96
-115.30
-115.81
-112.26
-107.61
-103.83
-103.03
-105.81
-111.30
-117.80
-123.85
-128.64
-131.67
-132.51
-122.12
-97.06
-61.82
-25.87
3.62
24.94
39.89
51.00
59.98
67.30
71.35
71.13
67.42
62.50
58.56
56.84
57.05
58.22
59.05
57.42
52.21
43.97
34.50
25.85
19.62
16.94
19.05
26.11
36.18
46.20
53.07
54.63
50.05
40.13
27.07
13.79
2.76
-5.03
-9.76
-12.23
-13.23
-13.29
-12.69
-11.56
-10.11
-8.70
-7.85
-7.88
-8.72
-9.83
-10.48
-10.15
-8.69
-6.29
-3.65
-1.23
0.62
1.82
2.60
3.24
3.95
4.81
5.76
6.67
7.50
8.25
8.83
9.32
9.90
10.88
12.47
14.60
16.72
18.08
17.78
15.05
10.19
4.09
-2.41
-8.89
-15.57
-22.90
-30.84
-39.11
-47.46
-55.78
-64.02
-71.72
-77.32
-78.03
-70.72
-54.16
-28.24
4.01
37.64
67.43
89.39
101.45
103.40
94.79
78.65
58.55
37.86
19.61
5.89
-2.72
-7.13
-9.25
-10.81
-12.61
-14.71
-16.68
-18.01
-18.48
-18.23
-17.55
-16.44
-14.43
-11.19
-6.71
-1.64
2.90
5.99
7.46
8.04
9.21
11.99
16.70
22.64
28.31
32.08
32.94
30.95
26.87
22.14
17.56
13.58
10.09
6.66
2.73
-2.09
-7.73
-14.14
-20.96
-28.55
-37.14
-46.67
-56.70
-66.73
-76.52
-83.40
-85.95
-79.68
-63.55
-40.43
-15.71
5.65
21.18
31.05
37.14
41.30
44.67
46.67
46.17
42.55
36.23
28.60
21.37
15.95
12.78
11.69
11.69
12.07
12.64
13.71
15.53
17.83
19.96
20.98
20.27
17.49
12.72
6.78
0.47
-5.71
-11.66
-17.59
-23.90
-30.84
-38.53
-46.49
-53.46
-57.63
-57.30
-51.58
-41.14
-28.03
-14.80
-3.62
4.51
9.67
12.46
13.59
13.96
14.50
16.48
21.02
28.32
37.13
45.06
49.71
49.38
45.06
38.84
32.64
27.11
21.50
14.64
6.17
-2.87
-10.47
-14.69
-15.00
-12.31
-8.44
-5.16
-3.35
-2.83
-2.65
-1.88
0.15
3.20
6.56
9.43
11.24
11.75
10.67
7.55
1.78
-6.83
-17.71
-29.31
-39.53
-46.65
-50.01
-50.39
-49.42
-48.79
-49.20
-50.13
-50.08
-47.40
-41.27
-32.12
-21.59
-11.78
-4.51
-0.51
0.67
0.15
-0.90
-1.67
-1.59
0.04
4.25
11.97
23.36
37.33
51.55
63.34
70.74
73.18
71.08
66.30
60.20
53.46
46.17
38.33
30.24
22.52
15.80
10.34
5.95
2.13
-1.51
-5.01
-8.07
-10.30
-11.56
-12.10
-12.48
-13.17
-14.46
-16.20
-17.95
-19.19
-19.61
-19.22
-18.25
-16.98
-15.53
-13.96
-12.37
-10.92
-9.91
-9.56
-9.83
-10.43
-10.84
-10.62
-9.61
-8.05
-6.37
-4.98
-3.98
-3.16
-2.22
-1.01
0.30
1.30
1.53
0.80
-0.72
-2.44
-3.72
-4.15
-3.75
-2.89
-2.21
-2.33
-3.61
-6.13
-9.51
-13.14
-16.28
-18.04
-17.56
-14.16
-7.67
1.48
11.42
19.95
25.24
26.61
24.81
21.62
18.85
17.40
16.89
16.11
14.02
10.59
6.43
2.69
0.36
-0.32
0.15
0.93
1.44
1.81
2.60
4.42
7.59
11.84
16.17
19.15
19.46
15.90
8.98
0.27
-8.18
-14.56
-17.99
-18.85
-18.42
-18.18
-19.04
-20.98
-23.31
-25.07
-25.48
-24.18
-21.48
-18.15
-15.05
-12.83
-11.60
-11.04
-10.63
-9.83
-8.14
-5.02
0.14
8.16
19.58
34.00
49.39
62.23
67.91
64.14
51.39
32.88
13.36
-2.98
-14.02
-19.92
-22.25
-22.51
-21.17
-17.93
-12.51
-5.31
2.24
8.05
10.10
7.38
0.17
-9.83
-20.18
-28.46
-33.18
-34.17
-32.38
-29.22
-25.69
-22.08
-18.13
-13.84
-9.85
-7.37
-7.47
-10.31
-14.71
-18.58
-19.90
-17.65
-12.25
-5.14
1.90
7.56
11.14
12.36
11.11
7.12
0.11
-9.87
-22.09
-35.12
-47.23
-56.84
-62.96
-65.13
-63.51
-58.69
-51.55
-43.11
-34.37
-26.12
-18.63
-12.79
-8.83
-6.51
-5.32
-4.64
-3.86
-2.43
-0.03
3.43
7.63
12.20
16.55
20.16
22.67
24.08
24.64
24.85
25.23
26.17
27.99
30.70
34.09
37.74
41.22
44.14
46.29
47.59
48.05
47.79
46.95
45.68
44.14
42.53
40.98
39.51
37.97
36.14
33.97
31.57
29.25
27.21
25.40
23.41
20.60
16.41
10.62
3.49
-4.32
-11.90
-18.28
-22.65
-24.43
-23.43
-19.94
-14.80
-9.21
-4.45
-1.46
-0.60
-1.59
-3.72
-6.11
-8.01
-9.03
-9.14
-8.66
-8.03
-7.64
-7.70
-8.19
-8.89
-9.56
-9.99
-10.09
-9.80
-9.10
-8.00
-6.52
-4.84
-3.22
-1.96
-1.24
-1.05
-1.22
-1.50
-1.68
-1.74
-1.73
-1.75
-1.83
-1.87
-1.74
-1.29
-0.47
0.71
2.15
3.74
5.40
7.06
8.67
10.12
11.28
12.00
12.20
11.93
11.36
10.77
10.40
10.38
10.66
10.97
10.99
10.48
9.33
7.62
5.58
3.48
1.59
0.19
-0.47
-0.15
1.30
3.84
7.21
10.92
14.37
17.03
18.59
19.02
18.57
17.63
16.61
15.89
15.76
16.43
18.01
20.51
23.75
27.33
30.64
33.01
33.83
32.76
29.76
25.12
19.30
12.73
5.65
-1.93
-9.99
-18.19
-25.62
-30.79
-32.14
-28.61
-20.20
-8.04
5.99
19.91
32.20
41.95
48.70
52.17
52.20
48.89
42.83
35.20
27.40
20.61
15.35
11.44
8.20
4.88
0.97
-3.78
-9.37
-15.78
-22.99
-30.98
-39.58
-48.36
-56.64
-63.61
-68.60
-71.36
-72.23
-72.15
-72.34
-73.85
-77.19
-82.08
-87.54
-92.11
-94.29
-92.98
-87.59
-78.23
-65.64
-51.05
-35.80
-20.94
-6.96
6.12
18.44
29.98
40.39
49.15
56.02
61.29
66.00
71.55
78.87
88.03
98.14
107.67
114.91
118.46
117.22
110.94
100.27
86.18
69.91
52.85
36.10
20.20
5.16
-9.60
-23.99
-36.71
-46.54
-52.59
-54.54
-52.98
-49.32
-45.31
-43.14
-43.95
-47.33
-53.36
-62.21
-73.54
-86.48
-99.66
-111.46
-121.29
-128.36
-131.33
-130.46
-126.37
-118.90
-107.21
-90.32
-62.94
-26.97
6.86
35.82
59.18
75.49
83.90
84.44
78.11
66.80
52.31
37.48
26.10
19.87
18.69
21.51
26.78
32.96
38.92
43.36
45.95
47.63
48.63
48.91
48.64
48.08
47.50
47.01
46.15
44.79
43.47
42.31
41.31
40.53
39.90
39.16
37.89
35.61
32.23
28.35
24.39
20.68
17.41
14.68
12.62
11.45
11.33
12.29
14.07
15.86
16.56
15.27
11.58
5.73
-1.52
-9.20
-16.45
-22.68
-27.56
-31.01
-33.05
-33.84
-33.57
-32.52
-31.01
-29.32
-27.65
-26.12
-24.71
-23.32
-21.88
-20.33
-18.75
-17.28
-16.08
-15.29
-14.90
-14.82
-14.91
-15.07
-15.27
-15.56
-15.98
-16.50
-17.04
-17.46
-17.68
-17.67
-17.49
-17.23
-16.94
-16.67
-16.41
-16.17
-15.96
-15.80
-15.69
-15.57
-15.32
-14.84
-14.03
-12.91
-11.57
-10.19
-8.95
-7.97
-7.35
-7.08
-7.11
-7.33
-7.63
-7.91
-8.13
-8.34
-8.63
-9.11
-9.91
-11.14
-12.86
-15.07
-17.71
-20.64
-23.60
-26.33
-28.64
-30.46
-31.85
-32.94
-33.73
-34.02
-33.40
-31.43
-27.85
-22.79
-16.80
-10.68
-5.30
-1.31
0.98
1.69
1.34
0.81
1.25
3.81
9.32
17.93
28.96
40.98
52.22
61.16
67.06
70.13
71.34
71.96
72.87
74.17
75.14
74.59
71.46
65.38
56.83
46.93
36.98
27.93
20.22
13.80
8.47
4.09
0.59
-2.14
-4.34
-6.39
-8.64
-11.16
-13.66
-15.57
-16.32
-15.65
-13.75
-11.21
-8.80
-7.21
-6.85
-7.67
-9.22
-10.84
-11.85
-11.85
-10.86
-9.32
-7.97
-7.53
-8.44
-10.71
-13.94
-17.47
-20.65
-23.03
-24.44
-24.96
-24.81
-24.23
-23.48
-22.71
-22.06
-21.59
-21.29
-21.08
-20.86
-20.55
-20.17
-19.78
-19.50
-19.37
-19.39
-19.45
-19.46
-19.30
-18.91
-18.24
-17.26
-16.02
-14.68
-13.48
-12.65
-12.29
-12.32
-12.45
-12.33
-11.71
-10.56
-9.04
-7.41
-5.86
-4.48
-3.22
-2.02
-0.85
0.25
1.26
2.20
3.16
4.21
5.39
6.60
7.68
8.47
8.92
9.11
9.16
9.20
9.27
9.32
9.27
9.07
8.75
8.39
8.09
7.90
7.84
7.89
8.09
8.46
9.07
9.90
10.89
11.90
12.73
13.27
13.49
13.49
13.38
13.29
13.24
13.18
13.01
12.67
12.15
11.54
10.92
10.39
10.00
9.74
9.61
9.56
9.59
9.70
9.89
10.12
10.33
10.47
10.49
10.33
9.97
9.38
8.53
7.43
6.16
4.84
3.65
2.73
2.15
1.92
1.96
2.21
2.61
3.14
3.82
4.59
5.42
6.29
7.19
8.17
9.30
10.65
12.19
13.87
15.57
17.14
18.53
19.72
20.78
21.84
23.03
24.40
25.95
27.62
29.39
31.18
32.95
34.57
35.86
36.67
36.98
36.94
36.85
37.02
37.53
38.24
38.79
38.78
37.95
36.25
33.71
30.36
26.12
20.86
14.50
7.05
-1.31
-10.31
-19.65
-28.97
-37.84
-45.74
-52.15
-56.66
-59.08
-59.53
-58.36
-56.08
-53.12
-49.84
-46.47
-43.19
-40.14
-37.41
-35.06
-32.98
-31.01
-28.91
-26.51
-23.79
-20.86
-17.95
-15.25
-12.91
-10.97
-9.40
-8.16
-7.13
-6.17
-5.13
-3.89
-2.43
-0.83
0.79
2.32
3.72
4.99
6.14
7.11
7.76
7.98
7.81
7.47
7.19
7.07
7.01
6.74
6.00
4.66
2.83
0.81
-1.03
-2.45
-3.43
-4.04
-4.35
-4.31
-3.90
-3.12
-1.99
-0.60
0.92
2.40
3.77
5.06
6.41
7.64
8.55
9.10
9.47
9.84
10.26
10.76
11.39
12.28
12.93
12.89
12.17
11.25
10.65
10.60
11.06
11.88
12.82
12.55
9.98
5.02
-1.12
-6.90
-11.24
-13.71
-14.39
-13.84
-14.24
-17.66
-25.16
-36.24
-49.95
-65.53
-82.34
-99.74
-108.65
-102.81
-83.85
-60.32
-39.46
-23.50
-11.33
-0.92
9.28
19.83
28.11
33.05
34.42
33.64
32.52
32.18
32.89
34.32
35.86
35.72
32.62
26.31
18.40
11.17
6.25
4.22
4.75
6.88
8.72
8.02
3.63
-3.38
-10.78
-16.70
-20.26
-21.59
-21.50
-21.46
-23.59
-29.17
-37.76
-47.87
-58.21
-67.69
-74.86
-77.56
-68.27
-43.77
-9.05
26.26
54.76
73.62
83.65
87.82
89.44
90.70
90.84
87.74
79.74
66.77
50.17
32.35
16.12
3.64
-4.33
-9.21
-13.02
-16.86
-20.44
-22.85
-23.30
-21.47
-17.92
-13.84
-10.94
-10.28
-11.66
-13.84
-15.48
-15.81
-14.70
-12.71
-10.65
-9.48
-9.71
-11.11
-12.87
-14.23
-14.77
-14.49
-13.74
-12.95
-12.49
-12.41
-12.74
-13.08
-13.03
-12.38
-11.13
-9.49
-7.75
-6.17
-4.94
-4.08
-3.37
-2.53
-1.27
0.56
2.88
5.42
7.82
9.79
11.20
12.17
12.84
13.29
13.48
13.22
12.41
11.05
9.35
7.60
6.14
5.18
4.83
5.07
5.84
7.02
8.46
9.97
11.36
12.53
13.44
14.15
14.80
15.54
16.51
17.83
19.50
21.43
23.38
25.01
25.98
26.04
25.17
23.54
21.44
19.14
16.79
14.47
12.23
10.16
8.45
7.26
6.69
6.64
6.94
7.44
8.15
9.25
11.05
13.80
17.57
22.23
27.45
32.86
38.12
43.01
47.44
51.40
54.95
58.18
61.19
64.11
67.05
70.09
73.27
76.60
80.03
83.49
86.91
90.21
93.31
96.14
98.62
100.50
101.36
100.51
97.04
90.05
78.87
63.44
44.40
23.12
1.30
-19.45
-38.07
-54.15
-67.81
-79.31
-88.80
-96.25
-101.66
-105.39
-108.25
-111.32
-115.57
-121.49
-129.05
-137.89
-147.46
-157.05
-165.59
-171.58
-173.37
-169.82
-161.11
-149.02
-136.50
-126.46
-120.45
-117.87
-116.32
-112.75
-105.08
-93.06
-78.31
-63.30
-50.14
-39.65
-31.21
-23.36
-14.64
-4.50
6.53
17.02
25.26
29.94
30.50
27.17
20.63
11.69
1.00
-10.87
-23.12
-34.48
-43.17
-47.32
-45.68
-38.17
-26.04
-11.51
2.98
15.53
25.18
31.94
36.43
39.52
41.94
44.15
46.24
48.09
49.45
50.16
50.19
49.70
48.96
48.24
47.66
47.13
46.38
45.09
43.02
40.10
36.44
32.27
27.85
23.42
19.15
15.17
11.57
8.42
5.74
3.48
1.60
0.06
-1.12
-1.87
-2.15
-1.99
-1.56
-1.06
-0.61
-0.21
0.30
1.12
2.37
3.99
5.78
7.50
8.98
10.22
11.37
12.61
14.09
15.82
17.73
19.71
21.68
23.67
25.77
28.09
30.68
33.51
36.41
39.13
41.36
42.83
43.43
43.17
42.28
41.03
39.73
38.56
37.55
36.61
35.58
34.32
32.78
30.99
29.00
26.88
24.60
22.09
19.21
15.84
11.97
7.73
3.46
-0.39
-3.36
-5.15
-5.76
-5.51
-4.99
-4.85
-5.63
-7.60
-10.70
-14.61
-18.93
-23.26
-27.32
-30.92
-33.94
-36.32
-38.04
-39.11
-39.61
-39.62
-39.20
-38.28
-36.80
-34.68
-31.99
-28.99
-26.03
-23.48
-21.60
-20.38
-19.65
-19.10
-18.45
-17.53
-16.34
-14.93
-13.41
-11.85
-10.28
-8.76
-7.39
-6.25
-5.43
-4.88
-4.47
-4.01
-3.34
-2.44
-1.45
-0.55
0.04
0.25
0.14
-0.06
-0.11
0.21
0.94
1.94
2.98
3.81
4.32
4.59
4.83
5.26
5.96
6.85
7.65
8.14
8.19
7.85
7.24
6.48
5.68
4.84
4.02
3.32
2.92
2.96
3.47
4.28
5.07
5.47
5.23
4.30
2.89
1.38
0.17
-0.46
-0.44
0.06
0.76
1.36
1.68
1.68
1.46
1.15
0.90
0.83
1.03
1.51
2.26
3.18
4.10
4.83
5.25
5.33
5.18
4.95
4.78
4.69
4.62
4.48
4.24
3.96
3.77
3.81
4.07
4.45
4.79
4.95
4.90
4.72
4.49
4.30
4.17
4.04
3.86
3.65
3.48
3.42
3.55
3.85
4.21
4.51
4.63
4.50
4.11
3.49
2.71
1.92
1.25
0.84
0.73
0.84
0.98
0.98
0.71
0.21
-0.40
-0.97
-1.41
-1.73
-1.98
-2.17
-2.23
-2.09
-1.70
-1.16
-0.65
-0.35
-0.31
-0.44
-0.55
-0.50
-0.29
-0.02
0.13
0.09
-0.07
-0.21
-0.20
-0.03
0.21
0.37
0.41
0.40
0.47
0.73
1.12
1.48
1.63
1.49
1.12
0.71
0.44
0.38
0.46
0.54
0.52
0.36
0.12
-0.14
-0.34
-0.49
-0.56
-0.57
-0.48
-0.28
0.01
0.33
0.61
0.78
0.83
0.81
0.81
0.93
1.23
1.68
2.18
2.58
2.74
2.62
2.29
1.94
1.76
1.89
2.34
3.00
3.70
4.30
4.70
4.92
5.03
5.06
5.03
4.89
4.58
4.08
3.42
2.70
2.06
1.58
1.31
1.21
1.26
1.44
1.77
2.21
2.74
3.24
3.63
3.90
4.15
4.57
5.33
6.47
7.82
9.05
9.83
9.93
9.32
8.18
6.78
5.38
4.22
3.40
2.98
2.93
3.16
3.60
4.16
4.79
5.50
6.32
7.23
8.17
8.95
9.34
9.08
8.03
6.15
3.54
0.38
-3.11
-6.78
-10.52
-14.31
-18.15
-22.06
-25.96
-29.70
-33.08
-35.86
-37.78
-38.66
-38.38
-36.90
-34.29
-30.73
-26.51
-22.03
-17.67
-13.79
-10.55
-7.97
-5.94
-4.28
-2.87
-1.62
-0.50
0.51
1.45
2.35
3.21
4.01
4.70
5.23
5.59
5.85
6.12
6.47
6.96
7.54
8.10
8.54
8.82
8.96
9.09
9.34
9.76
10.28
10.76
11.09
11.25
11.30
11.37
11.53
11.76
12.02
12.27
12.52
12.85
13.28
13.80
14.29
14.60
14.64
14.39
13.96
13.54
13.29
13.27
13.41
13.58
13.61
13.40
12.99
12.55
12.37
12.68
13.60
15.04
16.69
18.09
18.75
18.24
16.29
12.81
7.94
1.92
-4.94
-12.26
-19.72
-26.98
-33.71
-39.57
-44.20
-47.30
-48.62
-48.04
-45.63
-41.69
-36.69
-31.19
-25.78
-20.93
-16.91
-13.79
-11.42
-9.60
-8.08
-6.67
-5.29
-3.94
-2.67
-1.56
-0.66
-0.01
0.42
0.67
0.79
0.86
0.94
1.06
1.21
1.41
1.64
1.87
2.09
2.29
2.45
2.57
2.68
2.77
2.82
2.82
2.70
2.46
2.14
1.81
1.55
1.40
1.35
1.35
1.35
1.34
1.36
1.43
1.55
1.62
1.56
1.32
0.94
0.53
0.20
-0.03
-0.22
-0.50
-0.88
-1.32
-1.67
-1.80
-1.67
-1.34
-0.92
-0.54
-0.21
0.08
0.40
0.78
1.16
1.50
1.72
1.81
1.79
1.69
1.57
1.43
1.29
1.12
0.98
0.91
0.99
1.26
1.67
2.10
2.41
2.50
2.37
2.09
1.77
1.51
1.34
1.22
1.12
0.96
0.72
0.38
-0.03
-0.45
-0.79
-0.97
-0.96
-0.78
-0.50
-0.20
0.07
0.33
0.59
0.86
1.11
1.27
1.37
1.45
1.57
1.77
1.97
2.07
2.00
1.77
1.49
1.31
1.28
1.37
1.47
1.51
1.44
1.29
1.13
0.98
0.84
0.67
0.47
0.28
0.12
0.00
-0.10
-0.20
-0.26
-0.22
-0.02
0.32
0.69
0.96
1.04
0.93
0.73
0.53
0.40
0.32
0.24
0.13
-0.00
-0.12
-0.21
-0.30
-0.45
-0.71
-1.09
-1.54
-1.99
-2.33
-2.48
-2.41
-2.12
-1.68
-1.21
-0.79
-0.44
-0.10
0.29
0.77
1.26
1.64
1.80
1.70
1.44
1.19
1.10
1.24
1.56
1.93
2.27
2.52
2.68
2.73
2.68
2.49
2.17
1.79
1.48
1.32
1.34
1.47
1.57
1.55
1.41
1.21
1.06
0.99
0.97
0.93
0.85
0.78
0.82
1.08
1.54
2.09
2.55
2.79
2.76
2.54
2.21
1.82
1.35
0.71
-0.10
-0.99
-1.76
-2.22
-2.24
-1.88
-1.32
-0.78
-0.42
-0.26
-0.26
-0.32
-0.38
-0.41
-0.38
-0.27
-0.02
0.36
0.83
1.27
1.56
1.63
1.48
1.22
0.97
0.82
0.77
0.75
0.69
0.53
0.32
0.13
0.05
0.13
0.35
0.59
0.74
0.68
0.40
-0.03
-0.45
-0.68
-0.63
-0.30
0.22
0.77
1.21
1.44
1.45
1.31
1.10
0.94
0.88
0.97
1.16
1.34
1.41
1.27
0.93
0.44
-0.10
-0.61
-1.05
-1.41
-1.71
-1.90
-1.95
-1.84
-1.61
-1.35
-1.16
-1.11
-1.19
-1.35
-1.50
-1.56
-1.50
-1.30
-1.00
-0.68
-0.45
-0.45
-0.76
-1.36
-2.11
-2.79
-3.19
-3.18
-2.80
-2.17
-1.49
-0.95
-0.65
-0.62
-0.83
-1.20
-1.60
-1.92
-2.03
-1.88
-1.48
-0.93
-0.34
0.17
0.54
0.74
0.79
0.69
0.50
0.26
0.08
0.03
0.18
0.55
1.04
1.53
1.87
1.96
1.78
1.41
0.99
0.66
0.54
0.63
0.87
1.16
1.40
1.54
1.53
1.37
1.06
0.65
0.20
-0.18
-0.39
-0.40
-0.23
0.01
0.22
0.32
0.31
0.22
0.10
0.00
-0.02
0.07
0.27
0.54
0.80
1.00
1.06
0.99
0.82
0.60
0.38
0.18
0.01
-0.14
-0.28
-0.39
-0.49
-0.61
-0.76
-0.95
-1.12
-1.23
-1.21
-1.04
-0.73
-0.33
0.09
0.44
0.66
0.68
0.49
0.14
-0.26
-0.60
-0.76
-0.72
-0.48
-0.11
0.30
0.67
0.93
1.05
1.00
0.81
0.50
0.12
-0.22
-0.46
-0.51
-0.37
-0.06
0.29
0.58
0.69
0.61
0.40
0.15
-0.03
-0.10
-0.04
0.12
0.31
0.51
0.70
0.87
1.00
1.05
0.99
0.84
0.64
0.46
0.37
0.39
0.50
0.61
0.67
0.68
0.66
0.69
0.76
0.84
0.84
0.69
0.40
0.07
-0.17
-0.23
-0.12
0.10
0.31
0.41
0.40
0.32
0.25
0.23
0.22
0.13
-0.14
-0.60
-1.16
-1.67
-1.96
-1.94
-1.68
-1.32
-1.02
-0.87
-0.84
-0.83
-0.70
-0.40
0.03
0.45
0.73
0.79
0.64
0.37
0.11
-0.04
-0.04
0.09
0.29
0.52
0.79
1.14
1.56
2.00
2.33
2.41
2.17
1.69
1.13
0.68
0.48
0.55
0.78
1.03
1.16
1.12
0.95
0.71
0.45
0.17
-0.14
-0.50
-0.87
-1.16
-1.29
-1.22
-0.98
-0.69
-0.44
-0.34
-0.37
-0.50
-0.63
-0.71
-0.73
-0.70
-0.62
-0.48
-0.25
0.06
0.41
0.71
0.86
0.83
0.63
0.39
0.20
0.18
0.33
0.60
0.92
1.20
1.38
1.43
1.32
1.07
0.75
0.47
0.31
0.31
0.42
0.54
0.58
0.52
0.44
0.42
0.50
0.64
0.73
0.69
0.51
0.23
-0.07
-0.37
-0.67
-1.00
-1.33
-1.57
-1.66
-1.58
-1.41
-1.28
-1.27
-1.39
-1.53
-1.55
-1.38
-1.03
-0.62
-0.30
-0.15
-0.15
-0.24
-0.30
-0.26
-0.08
0.22
0.59
0.95
1.21
1.31
1.23
1.03
0.81
0.66
0.65
0.77
0.95
1.08
1.08
0.93
0.66
0.34
0.05
-0.12
-0.13
0.04
0.35
0.69
0.97
1.09
1.02
0.80
0.53
0.28
0.07
-0.11
-0.30
-0.47
-0.60
-0.63
-0.56
-0.44
-0.34
-0.32
-0.37
-0.41
-0.39
-0.25
-0.02
0.26
0.53
0.79
0.99
1.09
1.04
0.79
0.39
-0.05
-0.32
-0.31
-0.03
0.37
0.71
0.82
0.71
0.50
0.35
0.33
0.44
0.58
0.67
0.68
0.67
0.68
0.72
0.74
0.70
0.54
0.28
-0.04
-0.41
-0.82
-1.27
-1.70
-2.04
-2.22
-2.19
-1.98
-1.67
-1.33
-0.98
-0.59
-0.16
0.29
0.68
0.90
0.91
0.74
0.51
0.35
0.33
0.43
0.54
0.58
0.51
0.39
0.32
0.37
0.53
0.69
0.74
0.64
0.47
0.38
0.47
0.74
1.03
1.14
0.94
0.46
-0.14
-0.63
-0.85
-0.79
-0.60
-0.44
-0.44
-0.59
-0.82
-0.98
-1.01
-0.91
-0.76
-0.66
-0.67
-0.78
-0.93
-1.07
-1.14
-1.15
-1.14
-1.14
-1.17
-1.21
-1.21
-1.12
-0.91
-0.61
-0.27
0.02
0.21
0.27
0.20
0.08
-0.03
-0.08
-0.05
0.04
0.13
0.22
0.34
0.51
0.77
1.06
1.27
1.29
1.07
0.66
0.21
-0.12
-0.26
-0.25
-0.22
-0.32
-0.57
-0.87
-1.07
-1.02
-0.76
-0.44
-0.23
-0.22
-0.36
-0.48
-0.42
-0.14
0.24
0.55
0.61
0.40
0.01
-0.42
-0.74
-0.89
-0.86
-0.70
-0.45
-0.17
0.09
0.25
0.27
0.14
-0.11
-0.40
-0.63
-0.71
-0.56
-0.16
0.40
0.97
1.39
1.56
1.50
1.31
1.12
1.05
1.08
1.17
1.24
1.22
1.12
0.96
0.77
0.58
0.41
0.26
0.15
0.09
0.05
0.00
-0.08
-0.22
-0.42
-0.61
-0.73
-0.73
-0.59
-0.35
-0.05
0.24
0.46
0.58
0.57
0.40
0.09
-0.33
-0.75
-1.04
-1.13
-1.03
-0.85
-0.68
-0.58
-0.49
-0.34
-0.09
0.24
0.54
0.70
0.70
0.60
0.47
0.35
0.24
0.12
0.02
0.01
0.15
0.45
0.85
1.20
1.37
1.31
1.06
0.72
0.39
0.12
-0.10
-0.28
-0.43
-0.52
-0.53
-0.47
-0.36
-0.26
-0.18
-0.11
-0.00
0.18
0.44
0.71
0.92
0.99
0.89
0.68
0.41
0.13
-0.12
-0.36
-0.59
-0.83
-1.08
-1.29
-1.45
-1.55
-1.61
-1.67
-1.76
-1.89
-2.05
-2.22
-2.33
-2.33
-2.16
-1.80
-1.25
-0.59
0.08
0.61
0.89
0.87
0.64
0.31
0.05
-0.06
-0.01
0.12
0.22
0.21
0.10
-0.06
-0.20
-0.27
-0.30
-0.30
-0.28
-0.20
-0.02
0.27
0.62
0.94
1.13
1.14
1.02
0.90
0.87
0.96
1.08
1.10
0.92
0.53
0.02
-0.48
-0.83
-1.00
-1.01
-0.97
-0.92
-0.89
-0.88
-0.87
-0.86
-0.89
-0.98
-1.08
-1.14
-1.05
-0.77
-0.33
0.15
0.54
0.73
0.71
0.54
0.35
0.22
0.20
0.25
0.31
0.35
0.36
0.37
0.40
0.43
0.45
0.44
0.40
0.36
0.36
0.38
0.38
0.30
0.13
-0.08
-0.29
-0.43
-0.51
-0.57
-0.68
-0.82
-0.95
-0.96
-0.79
-0.48
-0.15
0.04
-0.03
-0.32
-0.71
-1.02
-1.15
-1.08
-0.90
-0.71
-0.56
-0.41
-0.20
0.10
0.40
0.58
0.55
0.30
-0.05
-0.33
-0.45
-0.41
-0.33
-0.32
-0.45
-0.65
-0.81
-0.79
-0.58
-0.23
0.14
0.42
0.56
0.56
0.50
0.44
0.42
0.47
0.58
0.73
0.88
1.00
1.08
1.11
1.10
1.02
0.89
0.69
0.46
0.24
0.09
0.05
0.13
0.27
0.40
0.45
0.38
0.23
0.04
-0.13
-0.25
-0.33
-0.38
-0.40
-0.35
-0.21
0.01
0.24
0.40
0.40
0.24
0.01
-0.18
-0.21
-0.04
0.29
0.67
0.97
1.10
1.08
0.97
0.87
0.84
0.85
0.88
0.85
0.75
0.59
0.40
0.20
-0.00
-0.21
-0.38
-0.44
-0.30
0.02
0.42
0.74
0.83
0.64
0.24
-0.23
-0.63
-0.89
-1.02
-1.06
-1.09
-1.12
-1.17
-1.25
-1.33
-1.38
-1.36
-1.25
-1.04
-0.77
-0.51
-0.28
-0.11
0.01
0.08
0.10
0.07
0.01
-0.06
-0.08
-0.05
0.06
0.23
0.45
0.70
0.95
1.17
1.31
1.30
1.11
0.70
0.13
-0.46
-0.92
-1.09
-0.88
-0.35
0.30
0.83
1.06
0.91
0.52
0.09
-0.18
-0.24
-0.13
-0.02
-0.03
-0.18
-0.43
-0.68
-0.87
-0.98
-1.06
-1.13
-1.18
-1.14
-0.98
-0.73
-0.49
-0.38
-0.44
-0.59
-0.69
-0.57
-0.22
0.26
0.67
0.85
0.78
0.59
0.48
0.56
0.84
1.16
1.36
1.31
1.05
0.68
0.36
0.16
0.12
0.17
0.25
0.27
0.23
0.09
-0.11
-0.34
-0.55
-0.67
-0.66
-0.50
-0.22
0.12
0.41
0.57
0.54
0.33
0.01
-0.35
-0.61
-0.72
-0.64
-0.45
-0.25
-0.13
-0.13
-0.20
-0.24
-0.15
0.07
0.32
0.46
0.40
0.14
-0.21
-0.50
-0.60
-0.51
-0.28
-0.04
0.14
0.24
0.29
0.32
0.35
0.40
0.45
0.45
0.40
0.27
0.09
-0.08
-0.16
-0.10
0.07
0.26
0.36
0.30
0.11
-0.11
-0.21
-0.15
0.06
0.33
0.53
0.57
0.44
0.16
-0.19
-0.53
-0.82
-1.01
-1.10
-1.09
-1.00
-0.83
-0.61
-0.39
-0.23
-0.19
-0.25
-0.36
-0.38
-0.22
0.12
0.55
0.92
1.12
1.15
1.12
1.15
1.32
1.58
1.79
1.82
1.62
1.24
0.83
0.47
0.22
0.02
-0.17
-0.39
-0.57
-0.65
-0.56
-0.33
-0.06
0.13
0.17
0.04
-0.20
-0.46
-0.70
-0.88
-1.02
-1.14
-1.23
-1.24
-1.14
-0.91
-0.60
-0.29
-0.09
-0.07
-0.22
-0.48
-0.73
-0.85
-0.80
-0.57
-0.23
0.15
0.50
0.76
0.92
0.97
0.91
0.73
0.47
0.20
0.02
0.03
0.26
0.68
1.14
1.47
1.54
1.30
0.83
0.28
-0.22
-0.58
-0.81
-0.98
-1.12
-1.26
-1.38
-1.45
-1.46
-1.41
-1.27
-1.06
-0.81
-0.57
-0.39
-0.34
-0.45
-0.68
-0.94
-1.14
-1.21
-1.11
-0.87
-0.56
-0.23
0.08
0.36
0.59
0.78
0.92
1.00
1.01
0.94
0.80
0.56
0.28
0.01
-0.17
-0.16
0.07
0.49
0.96
1.32
1.44
1.32
1.05
0.81
0.68
0.66
0.67
0.58
0.37
0.07
-0.18
-0.28
-0.21
-0.03
0.12
0.15
0.02
-0.23
-0.51
-0.73
-0.86
-0.90
-0.86
-0.78
-0.68
-0.60
-0.54
-0.49
-0.39
-0.21
0.03
0.28
0.43
0.40
0.16
-0.20
-0.52
-0.65
-0.52
-0.19
0.19
0.45
0.50
0.39
0.25
0.20
0.29
0.47
0.63
0.68
0.58
0.38
0.16
0.00
-0.09
-0.14
-0.19
-0.27
-0.36
-0.43
-0.48
-0.50
-0.52
-0.61
-0.77
-0.97
-1.15
-1.22
-1.15
-0.97
-0.75
-0.58
-0.50
-0.50
-0.54
-0.57
-0.57
-0.54
-0.48
-0.38
-0.24
-0.06
0.14
0.32
0.47
0.61
0.74
0.89
1.02
1.11
1.13
1.11
1.05
0.96
0.81
0.60
0.33
0.07
-0.08
-0.09
0.03
0.18
0.29
0.32
0.30
0.30
0.32
0.35
0.29
0.12
-0.14
-0.40
-0.56
-0.59
-0.53
-0.46
-0.48
-0.62
-0.83
-1.02
-1.13
-1.11
-1.02
-0.92
-0.86
-0.86
-0.88
-0.88
-0.81
-0.67
-0.50
-0.36
-0.29
-0.28
-0.28
-0.24
-0.17
-0.11
-0.12
-0.20
-0.31
-0.36
-0.26
0.02
0.40
0.78
1.04
1.13
1.05
0.86
0.67
0.54
0.53
0.66
0.88
1.09
1.20
1.17
1.02
0.83
0.68
0.62
0.63
0.63
0.58
0.44
0.26
0.06
-0.12
-0.28
-0.45
-0.64
-0.84
-1.01
-1.10
-1.08
-0.97
-0.82
-0.70
-0.69
-0.80
-0.99
-1.18
-1.28
-1.24
-1.07
-0.80
-0.51
-0.22
0.04
0.25
0.41
0.51
0.56
0.58
0.61
0.64
0.66
0.66
0.61
0.55
0.51
0.52
0.56
0.56
0.46
0.25
0.02
-0.12
-0.09
0.08
0.29
0.42
0.38
0.19
-0.06
-0.31
-0.49
-0.62
-0.70
-0.76
-0.79
-0.80
-0.79
-0.79
-0.82
-0.87
-0.92
-0.92
-0.86
-0.78
-0.68
-0.57
-0.41
-0.20
0.06
0.33
0.54
0.64
0.63
0.55
0.45
0.36
0.30
0.26
0.23
0.19
0.18
0.19
0.22
0.28
0.33
0.35
0.36
0.36
0.36
0.34
0.27
0.09
-0.19
-0.53
-0.82
-0.98
-0.98
-0.88
-0.78
-0.75
-0.78
-0.79
-0.66
-0.36
0.05
0.42
0.63
0.65
0.56
0.46
0.44
0.48
0.50
0.44
0.30
0.14
0.04
0.07
0.24
0.52
0.85
1.15
1.38
1.44
1.30
1.00
0.62
0.32
0.17
0.17
0.25
0.25
0.12
-0.14
-0.42
-0.61
-0.65
-0.57
-0.40
-0.24
-0.11
-0.07
-0.13
-0.30
-0.53
-0.78
-0.97
-1.05
-0.99
-0.81
-0.58
-0.32
-0.07
0.14
0.29
0.35
0.33
0.26
0.18
0.17
0.25
0.38
0.53
0.63
0.67
0.68
0.69
0.73
0.79
0.88
0.95
0.99
0.99
0.93
0.83
0.68
0.50
0.35
0.25
0.23
0.24
0.18
-0.02
-0.40
-0.90
-1.38
-1.73
-1.90
-1.91
-1.86
-1.83
-1.84
-1.84
-1.77
-1.58
-1.28
-0.97
-0.73
-0.58
-0.48
-0.34
-0.08
0.26
0.60
0.79
0.70
0.36
-0.11
-0.49
-0.62
-0.44
-0.04
0.39
0.68
0.76
0.68
0.57
0.52
0.59
0.74
0.88
0.91
0.81
0.62
0.40
0.27
0.28
0.41
0.60
0.76
0.79
0.70
0.51
0.29
0.05
-0.25
-0.63
-1.08
-1.51
-1.78
-1.82
-1.65
-1.39
-1.20
-1.13
-1.13
-1.07
-0.83
-0.40
0.10
0.52
0.71
0.65
0.43
0.15
-0.06
-0.16
-0.13
0.03
0.26
0.51
0.70
0.76
0.67
0.48
0.26
0.12
0.06
0.07
0.09
0.11
0.13
0.24
0.46
0.73
0.96
1.03
0.88
0.55
0.14
-0.26
-0.61
-0.88
-1.11
-1.28
-1.36
-1.31
-1.14
-0.89
-0.62
-0.38
-0.20
-0.09
-0.07
-0.16
-0.35
-0.62
-0.87
-0.99
-0.89
-0.57
-0.10
0.39
0.75
0.95
0.99
0.94
0.86
0.78
0.71
0.66
0.61
0.54
0.45
0.29
0.08
-0.11
-0.18
-0.06
0.23
0.58
0.81
0.79
0.49
0.04
-0.37
-0.63
-0.70
-0.70
-0.72
-0.82
-0.95
-1.00
-0.92
-0.71
-0.44
-0.21
-0.08
-0.03
-0.02
0.02
0.10
0.23
0.35
0.40
0.35
0.18
-0.05
-0.27
-0.39
-0.35
-0.19
0.03
0.23
0.35
0.38
0.36
0.35
0.36
0.41
0.48
0.54
0.59
0.62
0.61
0.53
0.37
0.13
-0.16
-0.43
-0.61
-0.66
-0.58
-0.39
-0.15
0.08
0.24
0.25
0.07
-0.29
-0.78
-1.27
-1.63
-1.75
-1.60
-1.21
-0.67
-0.10
0.38
0.68
0.76
0.61
0.33
0.05
-0.14
-0.18
-0.11
-0.02
0.01
-0.05
-0.14
-0.18
-0.11
0.06
0.26
0.38
0.35
0.17
-0.07
-0.20
-0.10
0.27
0.81
1.31
1.55
1.43
1.02
0.52
0.13
-0.07
-0.14
-0.21
-0.41
-0.71
-0.98
-1.06
-0.90
-0.61
-0.35
-0.27
-0.39
-0.59
-0.74
-0.76
-0.67
-0.57
-0.52
-0.55
-0.61
-0.62
-0.55
-0.38
-0.17
0.05
0.26
0.46
0.65
0.81
0.91
0.92
0.85
0.74
0.66
0.64
0.69
0.78
0.88
0.98
1.03
1.02
0.89
0.66
0.36
0.07
-0.14
-0.21
-0.14
0.01
0.16
0.26
0.27
0.18
0.02
-0.21
-0.42
-0.58
-0.62
-0.56
-0.49
-0.49
-0.60
-0.78
-0.91
-0.87
-0.62
-0.22
0.17
0.44
0.55
0.54
0.52
0.57
0.71
0.87
0.99
1.01
0.92
0.75
0.58
0.44
0.37
0.36
0.36
0.34
0.27
0.18
0.11
0.11
0.18
0.28
0.33
0.30
0.18
0.01
-0.15
-0.26
-0.35
-0.45
-0.55
-0.63
-0.63
-0.51
-0.31
-0.15
-0.12
-0.31
-0.68
-1.10
-1.42
-1.56
-1.52
-1.36
-1.16
-0.95
-0.71
-0.38
0.02
0.42
0.75
0.92
0.93
0.84
0.72
0.63
0.55
0.47
0.38
0.34
0.38
0.51
0.67
0.75
0.67
0.43
0.14
-0.06
-0.01
0.30
0.78
1.26
1.58
1.61
1.37
0.95
0.47
0.07
-0.21
-0.38
-0.51
-0.65
-0.80
-0.87
-0.80
-0.58
-0.29
-0.10
-0.13
-0.39
-0.76
-1.07
-1.18
-1.07
-0.84
-0.61
-0.45
-0.35
-0.24
-0.06
0.18
0.42
0.58
0.61
0.51
0.32
0.09
-0.10
-0.22
-0.25
-0.17
-0.02
0.13
0.25
0.31
0.32
0.30
0.29
0.28
0.25
0.16
-0.03
-0.29
-0.54
-0.69
-0.67
-0.49
-0.25
-0.07
-0.07
-0.27
-0.59
-0.92
-1.13
-1.18
-1.11
-0.97
-0.85
-0.78
-0.74
-0.73
-0.73
-0.73
-0.73
-0.67
-0.53
-0.26
0.13
0.55
0.93
1.16
1.21
1.09
0.89
0.71
0.59
0.57
0.63
0.72
0.82
0.90
0.96
1.00
1.02
0.99
0.87
0.65
0.34
0.05
-0.10
-0.01
0.33
0.82
1.27
1.50
1.46
1.23
0.97
0.79
0.70
0.61
0.41
0.07
-0.29
-0.51
-0.48
-0.23
0.06
0.17
-0.05
-0.53
-1.09
-1.44
-1.43
-1.05
-0.47
0.10
0.49
0.64
0.63
0.57
0.51
0.45
0.34
0.11
-0.22
-0.58
-0.81
-0.79
-0.51
-0.04
0.45
0.80
0.93
0.86
0.69
0.50
0.33
0.15
-0.10
-0.43
-0.79
-1.06
-1.12
-0.94
-0.57
-0.13
0.22
0.36
0.24
-0.13
-0.64
-1.14
-1.47
-1.49
-1.18
-0.60
0.07
0.65
1.00
1.08
0.90
0.55
0.13
-0.27
-0.57
-0.70
-0.63
-0.39
-0.06
0.27
0.52
0.66
0.72
0.76
0.81
0.88
0.91
0.84
0.64
0.34
0.03
-0.20
-0.31
-0.33
-0.30
-0.30
-0.36
-0.45
-0.54
-0.61
-0.67
-0.75
-0.85
-0.97
-1.07
-1.09
-1.04
-0.95
-0.88
-0.90
-1.02
-1.17
-1.24
-1.13
-0.81
-0.34
0.15
0.52
0.71
0.72
0.67
0.63
0.64
0.68
0.68
0.59
0.40
0.15
-0.09
-0.26
-0.33
-0.28
-0.11
0.14
0.41
0.64
0.79
0.83
0.79
0.67
0.47
0.19
-0.14
-0.47
-0.72
-0.83
-0.81
-0.72
-0.63
-0.57
-0.52
-0.42
-0.24
-0.02
0.13
0.11
-0.13
-0.51
-0.90
-1.14
-1.13
-0.88
-0.47
-0.01
0.38
0.62
0.71
0.69
0.66
0.68
0.78
0.92
1.01
1.00
0.86
0.64
0.43
0.33
0.37
0.49
0.59
0.57
0.43
0.26
0.19
0.34
0.70
1.16
1.49
1.53
1.22
0.69
0.16
-0.17
-0.24
-0.17
-0.14
-0.28
-0.58
-0.86
-0.96
-0.78
-0.41
-0.06
0.03
-0.23
-0.77
-1.37
-1.83
-2.03
-2.00
-1.84
-1.63
-1.38
-1.04
-0.58
-0.04
0.42
0.65
0.57
0.22
-0.23
-0.59
-0.74
-0.68
-0.51
-0.35
-0.28
-0.26
-0.19
0.02
0.39
0.86
1.27
1.44
1.30
0.87
0.26
-0.35
-0.79
-0.98
-0.89
-0.60
-0.18
0.25
0.57
0.70
0.60
0.35
0.05
-0.15
-0.19
-0.09
0.04
0.07
-0.03
-0.23
-0.39
-0.41
-0.29
-0.13
-0.06
-0.17
-0.43
-0.73
-0.89
-0.82
-0.55
-0.21
0.05
0.13
0.04
-0.14
-0.29
-0.34
-0.28
-0.13
0.05
0.25
0.44
0.61
0.71
0.72
0.65
0.55
0.48
0.48
0.57
0.67
0.72
0.67
0.55
0.42
0.37
0.40
0.46
0.42
0.21
-0.18
-0.64
-0.98
-1.07
-0.85
-0.43
0.02
0.32
0.37
0.19
-0.08
-0.33
-0.44
-0.43
-0.35
-0.29
-0.25
-0.22
-0.14
0.04
0.28
0.53
0.70
0.76
0.76
0.73
0.71
0.68
0.60
0.46
0.28
0.15
0.14
0.30
0.56
0.80
0.91
0.82
0.55
0.19
-0.15
-0.40
-0.51
-0.50
-0.38
-0.20
-0.03
0.06
-0.01
-0.28
-0.72
-1.25
-1.75
-2.10
-2.24
-2.20
-2.09
-1.97
-1.90
-1.84
-1.74
-1.57
-1.30
-0.97
-0.63
-0.28
0.08
0.43
0.77
1.04
1.18
1.15
0.97
0.72
0.47
0.30
0.24
0.27
0.35
0.46
0.59
0.72
0.84
0.92
0.90
0.73
0.40
-0.05
-0.52
-0.91
-1.12
-1.11
-0.90
-0.59
-0.30
-0.11
-0.10
-0.25
-0.54
-0.89
-1.26
-1.60
-1.86
-1.99
-1.97
-1.81
-1.56
-1.29
-1.05
-0.89
-0.80
-0.76
-0.77
-0.82
-0.88
-0.90
-0.84
-0.64
-0.30
0.15
0.61
0.98
1.18
1.19
1.05
0.81
0.56
0.33
0.13
-0.05
-0.23
-0.39
-0.49
-0.50
-0.41
-0.22
0.02
0.25
0.43
0.50
0.48
0.36
0.19
0.01
-0.15
-0.27
-0.38
-0.51
-0.68
-0.88
-1.10
-1.28
-1.39
-1.41
-1.33
-1.14
-0.84
-0.43
0.08
0.63
1.14
1.47
1.56
1.41
1.08
0.72
0.47
0.40
0.53
0.79
1.09
1.35
1.48
1.47
1.32
1.08
0.85
0.71
0.73
0.89
1.11
1.27
1.31
1.24
1.10
0.98
0.92
0.93
0.98
1.06
1.18
1.31
1.41
1.39
1.21
0.86
0.44
0.04
-0.26
-0.50
-0.74
-1.08
-1.49
-1.89
-2.12
-2.08
-1.76
-1.25
-0.71
-0.26
0.02
0.14
0.14
0.08
-0.00
-0.07
-0.10
-0.06
0.09
0.34
0.66
0.95
1.12
1.12
0.97
0.76
0.60
0.60
0.75
1.00
1.25
1.41
1.45
1.38
1.22
0.99
0.70
0.39
0.11
-0.05
-0.04
0.12
0.34
0.46
0.38
0.07
-0.39
-0.87
-1.25
-1.47
-1.54
-1.53
-1.44
-1.29
-1.09
-0.87
-0.68
-0.55
-0.47
-0.39
-0.24
0.05
0.45
0.87
1.23
1.48
1.65
1.76
1.83
1.83
1.71
1.47
1.15
0.86
0.74
0.86
1.16
1.51
1.76
1.79
1.60
1.27
0.91
0.63
0.51
0.54
0.68
0.85
0.95
0.91
0.69
0.34
-0.09
-0.49
-0.78
-0.92
-0.89
-0.74
-0.51
-0.25
-0.07
-0.07
-0.32
-0.81
-1.40
-1.91
-2.13
-1.96
-1.45
-0.74
-0.07
0.39
0.58
0.56
0.46
0.41
0.44
0.55
0.69
0.83
0.98
1.18
1.44
1.71
1.90
1.92
1.70
1.30
0.88
0.60
0.60
0.89
1.37
1.86
2.21
2.32
2.20
1.94
1.60
1.27
0.94
0.63
0.31
-0.00
-0.27
-0.46
-0.57
-0.63
-0.64
-0.64
-0.69
-0.81
-1.01
-1.28
-1.54
-1.76
-1.92
-2.05
-2.18
-2.33
-2.43
-2.39
-2.11
-1.57
-0.83
-0.05
0.64
1.11
1.30
1.22
0.93
0.53
0.14
-0.10
-0.13
0.02
0.30
0.58
0.80
0.96
1.08
1.21
1.37
1.50
1.52
1.36
1.05
0.68
0.39
0.30
0.41
0.65
0.90
1.07
1.13
1.11
1.05
0.95
0.75
0.39
-0.12
-0.68
-1.14
-1.39
-1.41
-1.29
-1.16
-1.11
-1.17
-1.28
-1.38
-1.41
-1.35
-1.22
-1.00
-0.70
-0.33
0.05
0.35
0.50
0.53
0.49
0.48
0.54
0.63
0.67
0.61
0.47
0.34
0.31
0.42
0.62
0.81
0.89
0.85
0.71
0.55
0.41
0.29
0.17
0.03
-0.15
-0.35
-0.53
-0.63
-0.62
-0.50
-0.32
-0.16
-0.11
-0.19
-0.35
-0.52
-0.62
-0.61
-0.51
-0.36
-0.21
-0.09
-0.04
-0.09
-0.29
-0.64
-1.08
-1.44
-1.56
-1.38
-0.97
-0.47
-0.06
0.17
0.25
0.23
0.17
0.06
-0.14
-0.40
-0.63
-0.67
-0.42
0.09
0.65
1.01
0.99
0.59
-0.03
-0.65
-1.09
-1.28
-1.28
-1.21
-1.15
-1.16
-1.18
-1.17
-1.12
-1.03
-0.93
-0.83
-0.74
-0.63
-0.48
-0.35
-0.27
-0.29
-0.39
-0.46
-0.42
-0.21
0.12
0.49
0.79
0.99
1.09
1.15
1.20
1.26
1.32
1.35
1.33
1.25
1.12
0.93
0.70
0.47
0.28
0.15
0.09
0.09
0.12
0.12
0.10
0.07
0.03
-0.00
-0.08
-0.24
-0.54
-0.96
-1.43
-1.82
-2.02
-1.96
-1.67
-1.22
-0.71
-0.27
0.03
0.11
-0.01
-0.29
-0.63
-0.93
-1.10
-1.08
-0.89
-0.58
-0.21
0.12
0.37
0.49
0.48
0.36
0.18
-0.01
-0.19
-0.35
-0.49
-0.64
-0.76
-0.82
-0.76
-0.58
-0.29
0.08
0.45
0.76
0.94
0.95
0.79
0.49
0.10
-0.31
-0.68
-0.96
-1.14
-1.24
-1.24
-1.14
-0.92
-0.59
-0.17
0.26
0.59
0.75
0.70
0.48
0.17
-0.08
-0.19
-0.12
0.06
0.23
0.29
0.19
-0.01
-0.23
-0.37
-0.39
-0.32
-0.21
-0.10
-0.01
0.12
0.30
0.55
0.82
1.02
1.04
0.80
0.34
-0.25
-0.81
-1.19
-1.30
-1.22
-1.06
-0.96
-0.97
-1.06
-1.11
-1.06
-0.92
-0.79
-0.76
-0.86
-0.98
-0.96
-0.71
-0.25
0.26
0.64
0.78
0.69
0.52
0.39
0.39
0.47
0.54
0.53
0.42
0.29
0.20
0.21
0.34
0.53
0.74
0.92
1.02
1.03
0.94
0.78
0.57
0.34
0.11
-0.12
-0.38
-0.67
-0.99
-1.29
-1.55
-1.72
-1.80
-1.77
-1.64
-1.44
-1.19
-0.97
-0.81
-0.77
-0.81
-0.85
-0.80
-0.59
-0.22
0.24
0.68
0.97
1.07
0.99
0.79
0.58
0.46
0.44
0.52
0.61
0.65
0.57
0.39
0.17
0.04
0.09
0.34
0.73
1.10
1.30
1.22
0.88
0.41
-0.00
-0.21
-0.17
0.05
0.28
0.38
0.26
-0.02
-0.34
-0.56
-0.60
-0.51
-0.42
-0.46
-0.68
-1.00
-1.27
-1.37
-1.25
-0.99
-0.72
-0.54
-0.46
-0.44
-0.40
-0.30
-0.14
0.05
0.21
0.33
0.40
0.41
0.41
0.43
0.50
0.64
0.81
0.97
1.07
1.14
1.23
1.35
1.48
1.51
1.36
1.03
0.62
0.32
0.25
0.42
0.74
1.02
1.12
1.02
0.80
0.59
0.47
0.47
0.55
0.64
0.67
0.61
0.48
0.33
0.19
0.08
-0.03
-0.20
-0.43
-0.68
-0.88
-0.98
-0.98
-0.99
-1.11
-1.40
-1.78
-2.12
-2.24
-2.09
-1.72
-1.23
-0.76
-0.38
-0.07
0.18
0.41
0.60
0.75
0.83
0.88
0.89
0.88
0.85
0.79
0.72
0.66
0.62
0.62
0.64
0.67
0.67
0.65
0.62
0.59
0.57
0.53
0.44
0.30
0.13
-0.03
-0.13
-0.18
-0.18
-0.19
-0.24
-0.33
-0.43
-0.50
-0.49
-0.42
-0.31
-0.23
-0.21
-0.23
-0.24
-0.20
-0.08
0.06
0.15
0.10
-0.13
-0.50
-0.91
-1.23
-1.37
-1.27
-0.96
-0.51
-0.02
0.41
0.68
0.76
0.66
0.50
0.40
0.48
0.77
1.19
1.59
1.81
1.80
1.58
1.24
0.88
0.56
0.31
0.12
0.00
-0.04
-0.03
0.01
0.02
-0.05
-0.20
-0.42
-0.64
-0.82
-0.93
-0.95
-0.91
-0.83
-0.74
-0.68
-0.71
-0.84
-1.06
-1.30
-1.49
-1.57
-1.49
-1.25
-0.89
-0.47
-0.05
0.28
0.48
0.54
0.50
0.40
0.30
0.20
0.10
-0.02
-0.13
-0.16
-0.03
0.30
0.79
1.30
1.67
1.76
1.57
1.18
0.75
0.43
0.30
0.35
0.51
0.68
0.77
0.73
0.56
0.29
-0.03
-0.29
-0.43
-0.39
-0.19
0.09
0.37
0.58
0.71
0.75
0.72
0.62
0.48
0.34
0.27
0.33
0.50
0.69
0.75
0.61
0.26
-0.17
-0.50
-0.59
-0.37
0.09
0.67
1.22
1.60
1.77
1.73
1.54
1.31
1.10
0.96
0.85
0.70
0.49
0.24
0.02
-0.11
-0.13
-0.11
-0.15
-0.27
-0.46
-0.63
-0.67
-0.56
-0.36
-0.20
-0.16
-0.27
-0.45
-0.62
-0.70
-0.67
-0.57
-0.47
-0.40
-0.35
-0.36
-0.42
-0.56
-0.76
-0.98
-1.12
-1.15
-1.07
-0.91
-0.76
-0.68
-0.65
-0.60
-0.45
-0.18
0.16
0.45
0.61
0.58
0.38
0.09
-0.24
-0.54
-0.80
-0.98
-1.05
-0.97
-0.71
-0.34
0.06
0.38
0.53
0.49
0.30
0.03
-0.24
-0.43
-0.46
-0.31
0.03
0.47
0.90
1.17
1.18
0.95
0.57
0.17
-0.11
-0.23
-0.21
-0.12
-0.01
0.04
0.01
-0.12
-0.36
-0.64
-0.92
-1.09
-1.11
-1.00
-0.82
-0.66
-0.59
-0.60
-0.68
-0.76
-0.81
-0.81
-0.78
-0.70
-0.60
-0.50
-0.44
-0.45
-0.51
-0.52
-0.38
-0.03
0.45
0.92
1.19
1.14
0.83
0.41
0.08
-0.06
0.01
0.17
0.29
0.30
0.19
0.05
-0.07
-0.13
-0.12
-0.10
-0.08
-0.10
-0.17
-0.27
-0.37
-0.41
-0.35
-0.20
0.05
0.31
0.52
0.59
0.46
0.16
-0.23
-0.59
-0.79
-0.73
-0.45
-0.07
0.24
0.31
0.07
-0.39
-0.91
-1.30
-1.43
-1.30
-1.02
-0.73
-0.52
-0.42
-0.39
-0.34
-0.24
-0.10
-0.01
-0.02
-0.17
-0.40
-0.62
-0.73
-0.68
-0.50
-0.23
0.04
0.29
0.50
0.64
0.68
0.60
0.39
0.10
-0.18
-0.35
-0.38
-0.30
-0.17
-0.07
-0.04
-0.04
-0.06
-0.07
-0.06
-0.06
-0.09
-0.13
-0.15
-0.11
-0.01
0.12
0.21
0.20
0.04
-0.23
-0.56
-0.87
-1.10
-1.17
-1.08
-0.83
-0.50
-0.13
0.22
0.51
0.77
1.02
1.29
1.57
1.82
1.95
1.89
1.61
1.14
0.53
-0.10
-0.65
-1.02
-1.18
-1.14
-0.97
-0.72
-0.45
-0.22
-0.03
0.09
0.11
0.02
-0.17
-0.42
-0.69
-0.92
-1.08
-1.16
-1.20
-1.22
-1.27
-1.35
-1.41
-1.36
-1.14
-0.75
-0.31
0.01
0.05
-0.18
-0.54
-0.78
-0.69
-0.23
0.46
1.11
1.51
1.54
1.26
0.85
0.53
0.40
0.49
0.69
0.87
0.91
0.75
0.47
0.19
0.02
0.03
0.18
0.38
0.52
0.56
0.53
0.49
0.50
0.54
0.53
0.41
0.16
-0.12
-0.36
-0.46
-0.44
-0.35
-0.24
-0.14
-0.03
0.12
0.33
0.53
0.66
0.62
0.41
0.06
-0.31
-0.57
-0.65
-0.50
-0.21
0.11
0.31
0.31
0.15
-0.06
-0.15
-0.03
0.29
0.67
0.93
0.96
0.74
0.37
-0.01
-0.28
-0.38
-0.32
-0.14
0.06
0.22
0.29
0.26
0.18
0.08
0.02
-0.02
-0.08
-0.24
-0.49
-0.78
-0.98
-0.99
-0.76
-0.39
-0.02
0.18
0.15
-0.07
-0.37
-0.62
-0.71
-0.62
-0.39
-0.10
0.18
0.42
0.58
0.66
0.71
0.76
0.83
0.89
0.88
0.77
0.53
0.21
-0.08
-0.28
-0.35
-0.32
-0.23
-0.13
-0.06
-0.02
-0.04
-0.15
-0.35
-0.62
-0.89
-1.06
-1.07
-0.94
-0.73
-0.54
-0.44
-0.46
-0.52
-0.57
-0.53
-0.37
-0.10
0.22
0.52
0.74
0.84
0.81
0.70
0.56
0.45
0.40
0.40
0.42
0.42
0.37
0.28
0.18
0.10
0.05
-0.00
-0.10
-0.25
-0.39
-0.43
-0.30
-0.02
0.34
0.63
0.67
0.42
-0.09
-0.69
-1.16
-1.32
-1.09
-0.53
0.19
0.83
1.21
1.21
0.84
0.24
-0.43
-1.01
-1.44
-1.71
-1.81
-1.78
-1.62
-1.34
-0.97
-0.56
-0.14
0.25
0.63
0.98
1.26
1.41
1.35
1.06
0.64
0.25
0.06
0.15
0.46
0.81
1.03
1.01
0.78
0.43
0.10
-0.12
-0.21
-0.19
-0.08
0.08
0.26
0.39
0.40
0.21
-0.16
-0.63
-1.07
-1.34
-1.38
-1.21
-0.90
-0.53
-0.17
0.11
0.28
0.31
0.22
0.02
-0.23
-0.47
-0.65
-0.70
-0.62
-0.41
-0.09
0.27
0.57
0.74
0.78
0.74
0.69
0.70
0.74
0.74
0.63
0.38
0.05
-0.24
-0.42
-0.44
-0.35
-0.22
-0.11
-0.05
-0.02
0.01
0.08
0.19
0.33
0.45
0.53
0.53
0.45
0.32
0.16
0.05
0.01
0.04
0.08
0.10
0.07
-0.03
-0.15
-0.28
-0.40
-0.53
-0.65
-0.75
-0.76
-0.66
-0.44
-0.16
0.10
0.26
0.29
0.22
0.12
0.10
0.16
0.33
0.54
0.77
0.95
1.06
1.08
1.01
0.87
0.70
0.54
0.41
0.28
0.14
-0.05
-0.28
-0.50
-0.63
-0.60
-0.39
-0.07
0.23
0.38
0.26
-0.10
-0.61
-1.12
-1.48
-1.62
-1.56
-1.39
-1.16
-0.92
-0.66
-0.37
-0.07
0.19
0.34
0.34
0.21
0.02
-0.15
-0.21
-0.14
0.01
0.17
0.30
0.34
0.34
0.31
0.28
0.25
0.23
0.23
0.28
0.41
0.61
0.85
1.00
1.00
0.79
0.44
0.10
-0.10
-0.05
0.23
0.63
0.99
1.17
1.11
0.85
0.48
0.11
-0.19
-0.42
-0.64
-0.87
-1.12
-1.31
-1.40
-1.33
-1.16
-0.97
-0.88
-0.94
-1.12
-1.32
-1.43
-1.37
-1.16
-0.88
-0.62
-0.43
-0.29
-0.14
0.06
0.32
0.59
0.81
0.87
0.75
0.48
0.14
-0.15
-0.31
-0.31
-0.22
-0.11
-0.02
0.06
0.21
0.48
0.86
1.21
1.40
1.35
1.12
0.87
0.74
0.79
0.94
1.04
0.98
0.72
0.33
-0.08
-0.44
-0.70
-0.87
-0.97
-1.05
-1.16
-1.36
-1.64
-1.91
-2.05
-1.94
-1.59
-1.10
-0.66
-0.40
-0.32
-0.35
-0.35
-0.27
-0.09
0.09
0.22
0.30
0.38
0.54
0.77
1.00
1.15
1.14
0.95
0.65
0.39
0.26
0.33
0.59
0.94
1.27
1.46
1.48
1.34
1.15
0.98
0.87
0.83
0.78
0.69
0.53
0.33
0.12
-0.08
-0.28
-0.48
-0.68
-0.83
-0.85
-0.74
-0.53
-0.35
-0.33
-0.52
-0.90
-1.32
-1.64
-1.78
-1.74
-1.59
-1.42
-1.25
-1.04
-0.77
-0.44
-0.13
0.04
0.03
-0.16
-0.39
-0.50
-0.36
0.03
0.57
1.12
1.56
1.84
2.00
2.07
2.07
2.01
1.85
1.62
1.35
1.13
1.02
1.02
1.08
1.09
0.99
0.77
0.50
0.29
0.19
0.19
0.22
0.19
0.07
-0.11
-0.29
-0.38
-0.38
-0.31
-0.29
-0.41
-0.71
-1.16
-1.64
-2.06
-2.32
-2.41
-2.39
-2.30
-2.19
-2.03
-1.80
-1.43
-0.91
-0.27
0.42
1.09
1.63
2.00
2.17
2.13
1.91
1.59
1.24
0.95
0.82
0.89
1.17
1.58
2.01
2.35
2.51
2.49
2.33
2.09
1.86
1.70
1.62
1.63
1.67
1.68
1.60
1.42
1.16
0.88
0.66
0.56
0.56
0.61
0.59
0.44
0.13
-0.29
-0.72
-1.06
-1.29
-1.41
-1.49
-1.62
-1.82
-2.07
-2.33
-2.51
-2.57
-2.50
-2.31
-2.07
-1.85
-1.69
-1.60
-1.53
-1.36
-1.04
-0.57
-0.02
0.49
0.88
1.17
1.43
1.74
2.12
2.46
2.64
2.58
2.28
1.84
1.43
1.14
1.03
1.07
1.21
1.38
1.51
1.57
1.52
1.36
1.13
0.88
0.63
0.41
0.19
-0.03
-0.23
-0.41
-0.55
-0.62
-0.67
-0.72
-0.83
-1.04
-1.37
-1.81
-2.31
-2.81
-3.20
-3.38
-3.30
-2.97
-2.50
-2.01
-1.61
-1.30
-1.05
-0.75
-0.37
0.10
0.57
0.93
1.10
1.07
0.90
0.70
0.54
0.47
0.50
0.62
0.81
1.06
1.32
1.56
1.69
1.67
1.51
1.24
0.98
0.80
0.75
0.84
1.03
1.25
1.45
1.57
1.62
1.59
1.49
1.32
1.13
0.91
0.68
0.43
0.12
-0.23
-0.57
-0.86
-1.03
-1.08
-1.09
-1.15
-1.34
-1.67
-2.06
-2.42
-2.64
-2.71
-2.63
-2.43
-2.11
-1.70
-1.22
-0.74
-0.34
-0.08
0.02
0.03
0.02
0.06
0.19
0.40
0.67
0.94
1.19
1.39
1.54
1.61
1.61
1.54
1.42
1.28
1.17
1.11
1.13
1.22
1.36
1.50
1.58
1.50
1.21
0.74
0.14
-0.45
-0.89
-1.10
-1.12
-1.04
-1.01
-1.10
-1.30
-1.52
-1.64
-1.58
-1.33
-0.98
-0.63
-0.41
-0.35
-0.46
-0.64
-0.81
-0.89
-0.87
-0.77
-0.62
-0.43
-0.17
0.17
0.60
1.04
1.39
1.57
1.54
1.34
1.06
0.78
0.55
0.39
0.30
0.25
0.27
0.36
0.55
0.80
1.06
1.24
1.27
1.11
0.81
0.46
0.19
0.04
-0.01
-0.02
-0.09
-0.23
-0.42
-0.63
-0.83
-1.05
-1.33
-1.67
-1.99
-2.18
-2.16
-1.94
-1.63
-1.33
-1.12
-0.96
-0.80
-0.58
-0.31
-0.06
0.15
0.30
0.41
0.52
0.61
0.66
0.65
0.60
0.56
0.60
0.74
0.91
1.05
1.08
0.98
0.78
0.55
0.39
0.36
0.47
0.69
0.92
1.09
1.13
1.05
0.91
0.75
0.60
0.44
0.26
0.06
-0.14
-0.28
-0.33
-0.32
-0.32
-0.40
-0.59
-0.88
-1.19
-1.43
-1.54
-1.50
-1.37
-1.19
-1.04
-0.93
-0.84
-0.71
-0.53
-0.27
-0.02
0.17
0.25
0.26
0.27
0.34
0.47
0.59
0.62
0.49
0.20
-0.12
-0.33
-0.33
-0.12
0.23
0.57
0.83
0.96
0.98
0.93
0.85
0.78
0.71
0.65
0.58
0.49
0.41
0.32
0.25
0.19
0.13
0.06
-0.03
-0.16
-0.32
-0.49
-0.67
-0.86
-1.05
-1.25
-1.47
-1.68
-1.89
-2.04
-2.10
-2.06
-1.88
-1.61
-1.28
-0.95
-0.63
-0.31
0.07
0.52
1.00
1.44
1.75
1.90
1.93
1.90
1.86
1.81
1.74
1.63
1.48
1.32
1.18
1.02
0.82
0.54
0.18
-0.14
-0.33
-0.31
-0.08
0.24
0.53
0.69
0.66
0.50
0.25
-0.00
-0.23
-0.41
-0.56
-0.65
-0.67
-0.62
-0.54
-0.50
-0.55
-0.72
-0.99
-1.28
-1.55
-1.74
-1.83
-1.81
-1.68
-1.41
-1.00
-0.49
0.05
0.50
0.75
0.76
0.58
0.31
0.07
-0.07
-0.09
-0.02
0.05
0.10
0.10
0.08
0.10
0.18
0.33
0.53
0.73
0.93
1.10
1.24
1.34
1.37
1.32
1.18
0.97
0.71
0.46
0.26
0.15
0.14
0.20
0.26
0.26
0.14
-0.13
-0.53
-1.05
-1.60
-2.10
-2.46
-2.61
-2.54
-2.30
-1.97
-1.62
-1.26
-0.88
-0.48
-0.07
0.29
0.53
0.64
0.66
0.63
0.61
0.58
0.53
0.44
0.34
0.27
0.29
0.43
0.68
1.00
1.36
1.74
2.07
2.27
2.25
1.98
1.53
1.05
0.70
0.61
0.76
1.03
1.29
1.43
1.44
1.36
1.22
1.02
0.71
0.28
-0.24
-0.74
-1.11
-1.29
-1.30
-1.23
-1.20
-1.29
-1.50
-1.75
-1.94
-2.01
-1.97
-1.87
-1.79
-1.78
-1.80
-1.77
-1.56
-1.13
-0.51
0.17
0.74
1.06
1.09
0.86
0.53
0.28
0.27
0.54
1.03
1.58
1.99
2.14
2.03
1.78
1.53
1.43
1.48
1.61
1.68
1.58
1.31
0.93
0.55
0.25
0.06
-0.03
-0.05
-0.04
-0.04
-0.07
-0.14
-0.28
-0.49
-0.75
-1.03
-1.30
-1.55
-1.74
-1.85
-1.85
-1.71
-1.44
-1.12
-0.85
-0.71
-0.75
-0.89
-1.03
-1.03
-0.81
-0.43
0.00
0.32
0.42
0.31
0.09
-0.11
-0.21
-0.22
-0.20
-0.18
-0.14
0.02
0.36
0.84
1.32
1.63
1.65
1.42
1.11
0.91
0.91
1.09
1.30
1.37
1.23
0.91
0.52
0.20
0.06
0.13
0.34
0.61
0.82
0.89
0.80
0.59
0.30
0.01
-0.22
-0.36
-0.39
-0.37
-0.31
-0.30
-0.38
-0.57
-0.82
-1.07
-1.21
-1.20
-1.01
-0.70
-0.35
-0.05
0.13
0.16
0.05
-0.18
-0.45
-0.68
-0.78
-0.70
-0.40
0.06
0.58
0.98
1.14
0.99
0.61
0.15
-0.19
-0.24
0.03
0.48
0.93
1.20
1.19
0.93
0.56
0.20
-0.04
-0.16
-0.18
-0.17
-0.18
-0.19
-0.23
-0.28
-0.37
-0.50
-0.64
-0.76
-0.89
-1.03
-1.24
-1.52
-1.80
-1.98
-1.96
-1.73
-1.38
-1.06
-0.90
-0.95
-1.10
-1.21
-1.14
-0.86
-0.44
-0.00
0.35
0.56
0.65
0.68
0.73
0.83
0.96
1.07
1.12
1.09
1.02
0.95
0.93
0.96
1.03
1.09
1.09
1.01
0.84
0.59
0.32
0.10
-0.03
-0.08
-0.11
-0.23
-0.50
-0.93
-1.35
-1.58
-1.50
-1.09
-0.51
0.02
0.28
0.20
-0.13
-0.55
-0.93
-1.17
-1.30
-1.39
-1.49
-1.61
-1.69
-1.64
-1.41
-1.03
-0.58
-0.16
0.15
0.36
0.50
0.64
0.80
0.95
1.04
1.01
0.88
0.68
0.50
0.40
0.41
0.49
0.62
0.76
0.89
0.99
1.04
1.01
0.88
0.63
0.31
-0.02
-0.29
-0.47
-0.56
-0.61
-0.66
-0.74
-0.82
-0.85
-0.80
-0.65
-0.46
-0.28
-0.18
-0.18
-0.28
-0.44
-0.61
-0.73
-0.79
-0.77
-0.70
-0.60
-0.50
-0.46
-0.48
-0.58
-0.73
-0.90
-1.04
-1.10
-1.04
-0.86
-0.57
-0.21
0.11
0.31
0.35
0.25
0.11
0.04
0.06
0.17
0.27
0.31
0.27
0.22
0.21
0.28
0.37
0.41
0.32
0.12
-0.12
-0.31
-0.39
-0.36
-0.28
-0.23
-0.26
-0.38
-0.56
-0.77
-0.96
-1.07
-1.06
-0.90
-0.62
-0.24
0.15
0.46
0.59
0.50
0.18
-0.28
-0.76
-1.09
-1.15
-0.94
-0.54
-0.09
0.24
0.38
0.33
0.17
-0.02
-0.17
-0.28
-0.34
-0.34
-0.28
-0.16
0.01
0.17
0.28
0.33
0.33
0.29
0.19
0.03
-0.23
-0.55
-0.82
-0.97
-0.93
-0.74
-0.51
-0.35
-0.32
-0.42
-0.62
-0.89
-1.22
-1.58
-1.90
-2.05
-1.90
-1.45
-0.83
-0.27
0.03
0.03
-0.14
-0.27
-0.17
0.18
0.69
1.19
1.54
1.69
1.71
1.67
1.64
1.65
1.69
1.74
1.74
1.64
1.38
0.99
0.53
0.17
0.02
0.12
0.41
0.69
0.82
0.74
0.51
0.29
0.18
0.18
0.20
0.11
-0.15
-0.52
-0.87
-1.10
-1.19
-1.22
-1.25
-1.35
-1.46
-1.51
-1.45
-1.32
-1.19
-1.13
-1.13
-1.12
-1.03
-0.84
-0.58
-0.32
-0.11
0.06
0.26
0.54
0.94
1.42
1.87
2.22
2.37
2.30
2.03
1.63
1.22
0.91
0.76
0.76
0.85
0.93
0.97
0.99
1.02
1.12
1.28
1.44
1.54
1.54
1.40
1.15
0.81
0.47
0.18
0.00
-0.05
0.01
0.12
0.20
0.21
0.10
-0.14
-0.51
-0.94
-1.38
-1.71
-1.82
-1.68
-1.34
-0.93
-0.61
-0.49
-0.55
-0.68
-0.72
-0.58
-0.26
0.13
0.47
0.66
0.71
0.67
0.60
0.53
0.46
0.40
0.37
0.40
0.50
0.65
0.80
0.85
0.78
0.62
0.46
0.36
0.34
0.35
0.33
0.25
0.15
0.11
0.20
0.41
0.69
0.90
0.98
0.88
0.63
0.30
-0.01
-0.25
-0.38
-0.38
-0.29
-0.17
-0.08
-0.06
-0.11
-0.23
-0.38
-0.56
-0.76
-0.95
-1.09
-1.08
-0.86
-0.46
0.02
0.42
0.59
0.52
0.32
0.18
0.24
0.51
0.88
1.14
1.14
0.85
0.39
-0.04
-0.27
-0.25
-0.06
0.19
0.39
0.50
0.56
0.63
0.72
0.81
0.86
0.83
0.71
0.51
0.25
0.00
-0.19
-0.28
-0.27
-0.21
-0.18
-0.24
-0.42
-0.66
-0.90
-1.07
-1.15
-1.18
-1.18
-1.17
-1.14
-1.08
-1.00
-0.95
-0.95
-1.01
-1.05
-0.97
-0.72
-0.28
0.24
0.70
0.97
1.01
0.87
0.67
0.54
0.56
0.70
0.89
1.03
1.08
1.05
1.04
1.09
1.21
1.32
1.31
1.12
0.74
0.28
-0.14
-0.42
-0.53
-0.50
-0.40
-0.27
-0.11
0.07
0.26
0.41
0.46
0.36
0.12
-0.23
-0.59
-0.90
-1.12
-1.26
-1.36
-1.47
-1.63
-1.85
-2.09
-2.25
-2.24
-2.03
-1.66
-1.23
-0.86
-0.61
-0.47
-0.34
-0.16
0.13
0.47
0.80
1.07
1.28
1.45
1.59
1.68
1.67
1.54
1.29
1.02
0.82
0.74
0.76
0.85
0.93
0.95
0.91
0.83
0.76
0.75
0.81
0.93
1.06
1.15
1.12
0.95
0.67
0.38
0.14
-0.00
-0.10
-0.23
-0.43
-0.69
-0.95
-1.11
-1.16
-1.15
-1.17
-1.29
-1.54
-1.85
-2.13
-2.32
-2.36
-2.24
-1.99
-1.65
-1.25
-0.87
-0.57
-0.37
-0.25
-0.18
-0.07
0.10
0.33
0.55
0.71
0.76
0.72
0.63
0.57
0.58
0.63
0.71
0.77
0.82
0.88
0.99
1.18
1.44
1.69
1.86
1.88
1.73
1.47
1.19
0.97
0.83
0.75
0.70
0.62
0.48
0.28
0.07
-0.13
-0.28
-0.38
-0.44
-0.53
-0.66
-0.84
-1.08
-1.34
-1.57
-1.74
-1.81
-1.79
-1.72
-1.64
-1.58
-1.52
-1.39
-1.12
-0.70
-0.18
0.30
0.60
0.67
0.54
0.32
0.16
0.12
0.17
0.23
0.24
0.18
0.12
0.14
0.30
0.55
0.78
0.89
0.81
0.58
0.29
0.03
-0.11
-0.14
-0.07
0.04
0.14
0.22
0.24
0.18
0.03
-0.21
-0.51
-0.80
-1.01
-1.07
-0.97
-0.76
-0.51
-0.33
-0.26
-0.30
-0.40
-0.49
-0.56
-0.64
-0.76
-0.94
-1.13
-1.27
-1.27
-1.11
-0.82
-0.47
-0.14
0.14
0.33
0.41
0.39
0.29
0.15
0.07
0.15
0.45
0.95
1.53
2.03
2.31
2.28
1.98
1.51
1.00
0.58
0.32
0.20
0.15
0.09
-0.02
-0.18
-0.31
-0.38
-0.37
-0.30
-0.21
-0.11
0.00
0.13
0.23
0.23
0.08
-0.18
-0.47
-0.69
-0.78
-0.81
-0.87
-1.07
-1.38
-1.70
-1.90
-1.92
-1.80
-1.64
-1.52
-1.47
-1.42
-1.24
-0.85
-0.23
0.51
1.21
1.68
1.76
1.49
1.00
0.55
0.37
0.54
0.95
1.35
1.49
1.27
0.79
0.30
0.03
0.07
0.36
0.72
0.99
1.12
1.11
1.05
0.99
0.92
0.83
0.69
0.52
0.32
0.14
0.00
-0.09
-0.15
-0.21
-0.35
-0.60
-0.97
-1.35
-1.61
-1.62
-1.40
-1.09
-0.89
-0.92
-1.14
-1.40
-1.55
-1.50
-1.30
-1.09
-0.96
-0.90
-0.82
-0.63
-0.30
0.10
0.47
0.74
0.86
0.90
0.91
0.95
1.01
1.02
0.91
0.65
0.27
-0.12
-0.35
-0.33
-0.03
0.42
0.87
1.18
1.29
1.26
1.18
1.11
1.07
1.03
0.96
0.84
0.71
0.56
0.43
0.30
0.21
0.15
0.12
0.09
-0.03
-0.29
-0.71
-1.23
-1.72
-2.05
-2.13
-1.97
-1.67
-1.32
-0.99
-0.71
-0.50
-0.36
-0.30
-0.32
-0.38
-0.38
-0.27
-0.08
0.15
0.30
0.34
0.26
0.16
0.11
0.14
0.24
0.35
0.44
0.54
0.68
0.90
1.17
1.44
1.61
1.60
1.42
1.13
0.84
0.62
0.49
0.42
0.36
0.33
0.35
0.45
0.64
0.81
0.85
0.69
0.35
-0.08
-0.46
-0.71
-0.83
-0.85
-0.80
-0.70
-0.56
-0.39
-0.25
-0.23
-0.35
-0.58
-0.80
-0.91
-0.85
-0.63
-0.30
0.01
0.22
0.29
0.23
0.11
-0.00
-0.05
-0.01
0.06
0.13
0.14
0.09
0.04
0.04
0.15
0.35
0.62
0.85
0.98
0.99
0.90
0.76
0.62
0.50
0.37
0.22
0.04
-0.09
-0.13
-0.05
0.10
0.20
0.15
-0.05
-0.33
-0.56
-0.67
-0.68
-0.67
-0.75
-0.97
-1.24
-1.41
-1.37
-1.11
-0.72
-0.37
-0.19
-0.20
-0.32
-0.40
-0.37
-0.22
-0.03
0.08
0.07
-0.01
-0.08
-0.02
0.20
0.53
0.84
1.03
1.06
0.97
0.86
0.79
0.79
0.80
0.75
0.59
0.36
0.15
0.07
0.17
0.41
0.69
0.90
0.96
0.83
0.52
0.09
-0.42
-0.90
-1.26
-1.39
-1.23
-0.82
-0.31
0.13
0.33
0.23
-0.13
-0.61
-1.06
-1.35
-1.39
-1.20
-0.83
-0.40
-0.04
0.18
0.28
0.31
0.37
0.47
0.58
0.64
0.62
0.54
0.47
0.49
0.57
0.66
0.66
0.55
0.34
0.10
-0.11
-0.30
-0.48
-0.66
-0.79
-0.82
-0.72
-0.52
-0.32
-0.18
-0.13
-0.15
-0.17
-0.18
-0.21
-0.33
-0.59
-0.93
-1.24
-1.38
-1.31
-1.08
-0.83
-0.70
-0.72
-0.80
-0.80
-0.61
-0.23
0.21
0.54
0.66
0.58
0.44
0.34
0.37
0.49
0.62
0.67
0.65
0.59
0.57
0.64
0.80
1.00
1.21
1.35
1.38
1.26
0.99
0.62
0.20
-0.22
-0.58
-0.85
-1.02
-1.05
-0.93
-0.64
-0.25
0.16
0.47
0.58
0.47
0.18
-0.21
-0.62
-1.00
-1.32
-1.54
-1.64
-1.54
-1.25
-0.79
-0.27
0.18
0.41
0.38
0.13
-0.19
-0.40
-0.36
-0.06
0.41
0.88
1.21
1.33
1.25
1.07
0.87
0.70
0.58
0.50
0.45
0.44
0.46
0.52
0.60
0.64
0.64
0.58
0.49
0.37
0.23
0.05
-0.18
-0.40
-0.55
-0.57
-0.44
-0.25
-0.10
-0.11
-0.29
-0.56
-0.81
-0.92
-0.92
-0.86
-0.82
-0.81
-0.76
-0.60
-0.32
0.02
0.27
0.35
0.26
0.08
-0.07
-0.10
0.03
0.25
0.51
0.71
0.81
0.78
0.64
0.47
0.30
0.20
0.14
0.08
-0.04
-0.20
-0.32
-0.34
-0.20
0.01
0.22
0.31
0.25
0.07
-0.14
-0.27
-0.28
-0.16
0.03
0.19
0.20
-0.01
-0.41
-0.88
-1.22
-1.29
-1.06
-0.68
-0.35
-0.25
-0.42
-0.72
-0.95
-0.95
-0.70
-0.30
0.10
0.38
0.50
0.54
0.60
0.74
0.95
1.19
1.38
1.48
1.50
1.48
1.42
1.35
1.22
1.02
0.74
0.44
0.20
0.09
0.11
0.23
0.36
0.47
0.52
0.53
0.49
0.38
0.17
-0.15
-0.49
-0.73
-0.74
-0.51
-0.15
0.14
0.18
-0.12
-0.68
-1.30
-1.75
-1.92
-1.82
-1.58
-1.35
-1.21
-1.14
-1.04
-0.80
-0.41
0.05
0.45
0.70
0.82
0.88
1.00
1.17
1.33
1.35
1.15
0.78
0.36
0.05
-0.06
0.04
0.27
0.53
0.73
0.83
0.84
0.79
0.71
0.63
0.56
0.50
0.44
0.35
0.22
0.06
-0.10
-0.22
-0.30
-0.39
-0.55
-0.82
-1.18
-1.51
-1.70
-1.69
-1.51
-1.30
-1.15
-1.11
-1.09
-0.97
-0.67
-0.21
0.28
0.69
0.95
1.08
1.15
1.19
1.20
1.13
1.00
0.85
0.76
0.80
0.97
1.20
1.40
1.50
1.45
1.25
0.93
0.52
0.11
-0.21
-0.37
-0.33
-0.15
0.07
0.18
0.10
-0.16
-0.54
-0.88
-1.08
-1.09
-0.97
-0.83
-0.80
-0.92
-1.13
-1.31
-1.34
-1.17
-0.88
-0.60
-0.43
-0.38
-0.34
-0.19
0.16
0.63
1.02
1.13
0.89
0.42
-0.02
-0.21
-0.04
0.40
0.89
1.21
1.22
0.96
0.56
0.16
-0.09
-0.15
-0.01
0.26
0.59
0.87
1.01
0.95
0.69
0.31
-0.07
-0.37
-0.54
-0.64
-0.78
-1.00
-1.30
-1.54
-1.57
-1.34
-0.90
-0.45
-0.17
-0.17
-0.40
-0.68
-0.83
-0.73
-0.42
-0.01
0.32
0.47
0.40
0.18
-0.07
-0.25
-0.26
-0.09
0.24
0.63
0.96
1.16
1.20
1.09
0.90
0.71
0.55
0.43
0.34
0.27
0.21
0.16
0.10
0.02
-0.10
-0.25
-0.42
-0.54
-0.58
-0.51
-0.30
-0.01
0.29
0.50
0.53
0.35
-0.02
-0.49
-0.95
-1.24
-1.32
-1.18
-0.92
-0.64
-0.41
-0.28
-0.22
-0.22
-0.23
-0.25
-0.27
-0.25
-0.16
-0.00
0.21
0.42
0.54
0.51
0.35
0.15
0.03
0.05
0.19
0.35
0.37
0.22
-0.04
-0.25
-0.29
-0.10
0.20
0.43
0.44
0.23
-0.10
-0.36
-0.40
-0.20
0.12
0.44
0.61
0.64
0.56
0.46
0.38
0.29
0.15
-0.08
-0.36
-0.63
-0.82
-0.89
-0.90
-0.91
-0.98
-1.05
-1.07
-0.93
-0.59
-0.11
0.42
0.87
1.15
1.22
1.12
0.92
0.69
0.47
0.27
0.06
-0.14
-0.28
-0.32
-0.20
0.04
0.31
0.52
0.60
0.58
0.52
0.49
0.52
0.57
0.59
0.53
0.42
0.30
0.23
0.19
0.13
-0.03
-0.32
-0.70
-1.09
-1.36
-1.41
-1.26
-0.99
-0.71
-0.52
-0.48
-0.54
-0.61
-0.60
-0.45
-0.17
0.16
0.42
0.53
0.48
0.36
0.27
0.28
0.39
0.49
0.50
0.34
0.05
-0.30
-0.63
-0.84
-0.88
-0.72
-0.38
0.09
0.56
0.91
1.02
0.85
0.43
-0.10
-0.57
-0.85
-0.88
-0.70
-0.42
-0.16
-0.03
-0.04
-0.17
-0.34
-0.51
-0.65
-0.76
-0.87
-0.99
-1.11
-1.18
-1.17
-1.04
-0.77
-0.39
0.05
0.45
0.73
0.84
0.83
0.75
0.71
0.74
0.86
1.03
1.19
1.32
1.42
1.49
1.50
1.40
1.14
0.71
0.17
-0.32
-0.62
-0.65
-0.43
-0.10
0.18
0.28
0.14
-0.17
-0.56
-0.92
-1.16
-1.23
-1.12
-0.88
-0.63
-0.48
-0.51
-0.73
-1.04
-1.33
-1.50
-1.48
-1.27
-0.90
-0.39
0.19
0.77
1.22
1.42
1.32
0.98
0.55
0.23
0.13
0.27
0.57
0.90
1.17
1.37
1.50
1.55
1.47
1.15
0.59
-0.16
-0.90
-1.40
-1.53
-1.27
-0.77
-0.24
0.15
0.32
0.28
0.11
-0.14
-0.42
-0.71
-0.96
-1.13
-1.16
-1.03
-0.76
-0.41
-0.07
0.22
0.42
0.54
0.59
0.60
0.59
0.56
0.51
0.43
0.32
0.20
0.09
0.02
0.00
0.07
0.21
0.39
0.55
0.62
0.57
0.46
0.37
0.40
0.56
0.80
0.99
1.02
0.84
0.54
0.23
0.03
-0.01
0.07
0.17
0.22
0.15
-0.04
-0.33
-0.66
-0.96
-1.16
-1.23
-1.16
-1.05
-1.01
-1.12
-1.38
-1.70
-1.96
-2.03
-1.84
-1.41
-0.81
-0.15
0.43
0.81
0.93
0.82
0.60
0.43
0.44
0.67
1.06
1.49
1.86
2.07
2.12
2.00
1.74
1.38
0.96
0.57
0.29
0.16
0.21
0.38
0.60
0.76
0.80
0.71
0.50
0.25
0.05
-0.07
-0.13
-0.20
-0.36
-0.60
-0.87
-1.05
-1.07
-0.97
-0.82
-0.73
-0.73
-0.73
-0.64
-0.36
0.06
0.49
0.77
0.80
0.62
0.32
0.05
-0.12
-0.21
-0.26
-0.32
-0.39
-0.37
-0.22
0.09
0.48
0.80
0.93
0.81
0.53
0.24
0.08
0.13
0.35
0.59
0.72
0.62
0.31
-0.12
-0.56
-0.93
-1.18
-1.32
-1.37
-1.33
-1.22
-1.06
-0.85
-0.60
-0.30
0.08
0.51
0.93
1.22
1.32
1.16
0.81
0.37
-0.05
-0.37
-0.54
-0.59
-0.51
-0.27
0.16
0.73
1.36
1.91
2.23
2.26
2.01
1.56
1.05
0.59
0.24
0.04
0.00
0.09
0.24
0.38
0.47
0.47
0.39
0.27
0.14
0.01
-0.14
-0.31
-0.53
-0.80
-1.12
-1.47
-1.82
-2.09
-2.23
-2.22
-2.06
-1.82
-1.56
-1.32
-1.08
-0.82
-0.55
-0.31
-0.14
-0.06
-0.03
-0.03
-0.04
-0.08
-0.19
-0.32
-0.38
-0.23
0.15
0.66
1.06
1.15
0.88
0.40
0.02
-0.04
0.26
0.72
1.05
1.05
0.69
0.18
-0.26
-0.45
-0.37
-0.14
0.10
0.25
0.30
0.30
0.29
0.27
0.19
0.03
-0.25
-0.59
-0.94
-1.19
-1.29
-1.23
-1.07
-0.88
-0.77
-0.79
-0.89
-0.99
-1.01
-0.88
-0.61
-0.26
0.12
0.48
0.82
1.14
1.41
1.63
1.74
1.70
1.53
1.27
1.01
0.85
0.81
0.88
1.01
1.12
1.17
1.18
1.19
1.22
1.26
1.23
1.02
0.60
0.04
-0.51
-0.88
-0.97
-0.81
-0.54
-0.33
-0.31
-0.52
-0.86
-1.20
-1.41
-1.47
-1.42
-1.33
-1.26
-1.22
-1.14
-0.99
-0.72
-0.35
0.03
0.36
0.53
0.52
0.35
0.12
-0.05
-0.12
-0.07
0.01
0.04
-0.03
-0.14
-0.18
-0.07
0.24
0.67
1.07
1.29
1.24
0.95
0.53
0.10
-0.24
-0.42
-0.43
-0.29
-0.06
0.19
0.39
0.49
0.48
0.36
0.20
0.05
-0.03
-0.01
0.11
0.30
0.50
0.63
0.63
0.48
0.17
-0.23
-0.64
-0.99
-1.24
-1.38
-1.41
-1.34
-1.20
-1.01
-0.79
-0.62
-0.53
-0.52
-0.56
-0.55
-0.39
-0.04
0.44
0.93
1.28
1.37
1.22
0.91
0.62
0.44
0.43
0.53
0.66
0.73
0.69
0.58
0.42
0.30
0.22
0.21
0.25
0.32
0.41
0.52
0.63
0.71
0.75
0.72
0.63
0.46
0.24
-0.01
-0.29
-0.57
-0.86
-1.12
-1.31
-1.36
-1.24
-0.98
-0.72
-0.58
-0.66
-0.93
-1.27
-1.50
-1.48
-1.23
-0.86
-0.54
-0.39
-0.41
-0.51
-0.58
-0.57
-0.47
-0.30
-0.07
0.21
0.56
0.92
1.20
1.32
1.23
0.98
0.65
0.36
0.19
0.14
0.19
0.29
0.43
0.62
0.84
1.02
1.09
1.01
0.78
0.49
0.29
0.26
0.40
0.64
0.80
0.77
0.48
-0.00
-0.56
-1.05
-1.37
-1.53
-1.60
-1.64
-1.70
-1.78
-1.84
-1.84
-1.79
-1.72
-1.63
-1.54
-1.40
-1.20
-0.92
-0.58
-0.21
0.16
0.49
0.74
0.87
0.85
0.71
0.54
0.46
0.56
0.83
1.18
1.45
1.51
1.35
1.07
0.79
0.62
0.58
0.63
0.70
0.73
0.70
0.62
0.57
0.61
0.77
1.03
1.28
1.41
1.33
1.03
0.59
0.15
-0.20
-0.46
-0.70
-0.99
-1.34
-1.71
-1.98
-2.10
-2.05
-1.90
-1.71
-1.52
-1.35
-1.19
-1.02
-0.85
-0.70
-0.56
-0.44
-0.32
-0.20
-0.08
0.03
0.12
0.19
0.23
0.26
0.27
0.29
0.32
0.40
0.54
0.76
1.04
1.34
1.56
1.59
1.38
0.96
0.47
0.07
-0.13
-0.10
0.10
0.35
0.58
0.73
0.79
0.77
0.65
0.44
0.16
-0.11
-0.30
-0.35
-0.31
-0.25
-0.28
-0.46
-0.78
-1.16
-1.51
-1.75
-1.88
-1.91
-1.88
-1.78
-1.57
-1.22
-0.75
-0.24
0.20
0.50
0.64
0.70
0.79
0.94
1.16
1.35
1.42
1.33
1.11
0.83
0.59
0.45
0.42
0.47
0.59
0.72
0.82
0.86
0.81
0.67
0.48
0.25
0.04
-0.15
-0.28
-0.35
-0.36
-0.34
-0.33
-0.40
-0.58
-0.89
-1.28
-1.65
-1.88
-1.91
-1.71
-1.38
-1.05
-0.83
-0.78
-0.85
-0.94
-0.93
-0.75
-0.41
0.06
0.54
0.93
1.16
1.22
1.13
0.96
0.78
0.63
0.56
0.57
0.66
0.81
0.99
1.14
1.18
1.08
0.87
0.64
0.49
0.49
0.60
0.75
0.84
0.81
0.71
0.57
0.43
0.31
0.18
0.01
-0.24
-0.51
-0.78
-0.97
-1.08
-1.12
-1.12
-1.12
-1.12
-1.10
-0.99
-0.79
-0.54
-0.34
-0.30
-0.46
-0.77
-1.06
