1529196718.00
64.000000
-0.00
-0.00
-0.00
-0.00
-0.00
-0.00
-0.00
-0.00
-0.00
-0.00
0.00
0.01
0.01
-0.00
-0.03
-0.05
-0.05
0.00
0.13
0.36
0.66
1.01
1.37
1.72
2.06
2.40
2.79
3.24
3.80
4.42
5.06
5.66
6.20
6.68
7.15
7.68
8.31
9.14
10.09
11.04
11.89
12.57
13.14
13.75
14.64
15.96
17.93
20.36
22.97
25.44
27.59
29.47
31.40
33.85
37.16
41.74
47.27
53.20
58.91
64.00
68.51
72.92
77.94
84.15
92.13
101.36
111.03
120.16
128.11
134.85
141.02
148.02
154.67
163.33
174.62
188.55
203.74
217.05
224.04
220.08
202.00
169.24
124.43
71.50
14.60
-43.44
-101.49
-159.58
-217.78
-275.39
-331.00
-382.62
-429.15
-470.16
-505.74
-535.73
-559.21
-574.37
-578.84
-570.71
-549.00
-514.64
-469.96
-418.24
-362.89
-306.93
-252.73
-201.96
-155.30
-112.14
-70.66
-28.23
17.40
66.89
118.53
168.63
212.78
247.53
271.51
285.39
291.06
290.47
284.98
275.38
262.36
247.00
230.75
215.00
200.55
187.42
175.00
162.40
149.02
134.86
120.52
106.94
94.92
84.83
76.41
69.00
61.80
54.30
46.46
38.63
31.36
25.18
20.17
16.11
12.64
9.43
6.34
3.40
0.74
-1.50
-3.27
-4.65
-5.70
-6.48
-7.07
-7.48
-7.74
-7.91
-8.07
-8.24
-8.41
-8.52
-8.45
-8.13
-7.57
-6.87
-6.17
-5.59
-5.22
-5.08
-5.12
-5.22
-5.28
-5.17
-4.83
-4.30
-3.68
-3.13
-2.76
-2.60
-2.63
-2.76
-2.92
-3.08
-3.20
-3.25
-3.22
-3.07
-2.80
-2.46
-2.13
-1.89
-1.76
-1.74
-1.76
-1.76
-1.71
-1.58
-1.40
-1.17
-0.94
-0.73
-0.58
-0.47
-0.44
-0.44
-0.48
-0.52
-0.55
-0.53
-0.43
-0.21
0.13
0.54
0.92
1.20
1.37
1.50
1.71
2.08
2.63
3.28
3.88
4.37
4.76
5.08
5.39
5.63
5.70
5.48
4.91
4.01
2.89
1.67
0.41
-0.82
-1.97
-2.97
-3.78
-4.40
-4.88
-5.29
-5.68
-6.03
-6.25
-6.25
-5.97
-5.50
-4.94
-4.44
-4.07
-3.82
-3.66
-3.57
-3.55
-3.60
-3.69
-3.72
-3.59
-3.26
-2.81
-2.40
-2.16
-2.12
-2.19
-2.20
-2.03
-1.69
-1.24
-0.81
-0.46
-0.21
-0.06
0.00
-0.06
-0.27
-0.58
-0.88
-1.04
-0.98
-0.67
-0.21
0.29
0.72
1.03
1.17
1.13
0.88
0.44
-0.08
-0.49
-0.62
-0.38
0.19
0.89
1.49
1.81
1.80
1.55
1.19
0.88
0.66
0.51
0.37
0.16
-0.13
-0.44
-0.69
-0.81
-0.72
-0.42
0.05
0.59
1.08
1.44
1.59
1.54
1.34
1.08
0.82
0.62
0.49
0.46
0.50
0.55
0.56
0.47
0.32
0.14
-0.00
-0.06
-0.06
-0.07
-0.11
-0.17
-0.19
-0.10
0.10
0.34
0.52
0.54
0.39
0.16
-0.02
-0.09
-0.05
0.03
0.04
-0.09
-0.37
-0.77
-1.22
-1.62
-1.92
-2.04
-2.00
-1.85
-1.69
-1.66
-1.81
-2.12
-2.48
-2.71
-2.68
-2.38
-1.91
-1.43
-1.07
-0.90
-0.87
-0.92
-1.01
-1.14
-1.33
-1.55
-1.75
-1.84
-1.79
-1.63
-1.47
-1.40
-1.47
-1.65
-1.87
-2.08
-2.29
-2.54
-2.85
-3.20
-3.48
-3.61
-3.52
-3.24
-2.88
-2.57
-2.41
-2.47
-2.73
-3.09
-3.48
-3.75
-3.81
-3.59
-3.04
-2.20
-1.15
0.01
1.17
2.24
3.15
3.83
4.24
4.37
4.25
3.98
3.65
3.36
3.13
2.92
2.69
2.43
2.20
2.05
2.05
2.16
2.33
2.46
2.53
2.56
2.58
2.63
2.66
2.63
2.52
2.36
2.20
2.10
2.09
2.15
2.24
2.33
2.41
2.47
2.47
2.37
2.16
1.83
1.46
1.17
1.04
1.09
1.25
1.40
1.44
1.32
1.07
0.76
0.45
0.18
-0.07
-0.34
-0.66
-1.01
-1.38
-1.76
-2.16
-2.59
-3.03
-3.43
-3.72
-3.85
-3.86
-3.82
-3.83
-3.94
-4.14
-4.38
-4.57
-4.65
-4.64
-4.58
-4.55
-4.61
-4.80
-5.11
-5.50
-5.88
-6.18
-6.30
-6.20
-5.86
-5.27
-4.49
-3.58
-2.64
-1.72
-0.89
-0.11
0.68
1.51
2.37
3.19
3.86
4.33
4.57
4.63
4.56
4.38
4.06
3.60
3.03
2.47
2.06
1.91
2.04
2.33
2.63
2.75
2.64
2.30
1.79
1.22
0.69
0.33
0.19
0.31
0.59
0.93
1.18
1.29
1.27
1.22
1.20
1.24
1.31
1.39
1.50
1.71
2.03
2.39
2.65
2.64
2.31
1.75
1.17
0.78
0.70
0.88
1.18
1.43
1.54
1.52
1.47
1.48
1.61
1.84
2.07
2.18
2.11
1.87
1.55
1.27
1.11
1.05
1.04
0.97
0.77
0.45
0.09
-0.18
-0.27
-0.12
0.21
0.60
0.92
1.10
1.13
1.08
1.04
1.04
1.06
1.02
0.89
0.67
0.47
0.36
0.40
0.51
0.59
0.48
0.12
-0.48
-1.27
-2.16
-3.05
-3.83
-4.38
-4.62
-4.51
-4.13
-3.61
-3.13
-2.83
-2.76
-2.83
-2.88
-2.77
-2.43
-1.90
-1.33
-0.88
-0.64
-0.62
-0.75
-0.92
-1.08
-1.21
-1.36
-1.52
-1.63
-1.56
-1.15
-0.34
0.81
2.16
3.54
4.83
6.01
7.13
8.22
9.27
10.19
10.88
11.28
11.39
11.27
11.02
10.69
10.29
9.79
9.18
8.46
7.67
6.83
5.97
5.08
4.15
3.18
2.22
1.31
0.47
-0.26
-0.90
-1.41
-1.77
-1.89
-1.69
-1.10
-0.11
1.21
2.74
4.35
5.93
7.43
8.82
10.09
11.18
12.03
12.61
12.92
13.03
13.03
13.01
13.01
12.99
12.85
12.46
11.72
10.50
8.77
6.55
3.94
1.09
-1.86
-4.81
-7.75
-10.70
-13.65
-16.53
-19.21
-21.58
-23.56
-25.13
-26.37
-27.34
-28.10
-28.65
-28.98
-29.06
-28.85
-28.30
-27.40
-26.21
-24.83
-23.42
-22.17
-21.23
-20.70
-20.58
-20.78
-21.10
-21.33
-21.27
-20.81
-20.03
-19.08
-18.21
-17.65
-17.53
-17.87
-18.54
-19.34
-20.05
-20.46
-20.54
-20.36
-20.08
-19.89
-19.83
-19.76
-19.28
-17.81
-14.70
-9.34
-1.44
8.85
20.86
33.41
45.08
54.51
60.73
63.44
63.01
60.30
56.37
52.20
48.47
45.49
43.21
41.36
39.64
37.78
35.68
33.46
31.37
29.75
28.83
28.68
29.12
29.79
30.21
29.89
28.58
26.34
23.51
20.50
17.69
15.32
13.42
11.89
10.39
8.60
6.28
3.23
-0.66
-5.44
-10.95
-16.88
-22.87
-28.75
-34.31
-39.31
-43.48
-46.67
-48.90
-50.32
-51.17
-51.67
-52.09
-52.16
-51.12
-48.02
-42.18
-33.72
-23.37
-12.36
-0.73
10.23
18.85
23.97
25.46
23.92
20.06
14.54
8.08
1.50
-4.66
-10.01
-14.53
-18.64
-21.94
-24.43
-25.91
-25.99
-24.27
-20.77
-15.73
-9.52
-2.63
4.45
11.06
16.74
21.15
24.16
25.74
26.06
25.46
24.34
23.02
21.63
20.27
19.02
17.90
16.82
15.67
14.44
13.21
12.12
11.20
10.44
9.72
8.88
7.78
6.40
4.92
3.60
2.72
2.39
2.57
3.03
3.46
3.57
3.21
2.42
1.41
0.39
-0.42
-0.94
-1.17
-1.20
-1.09
-0.93
-0.78
-0.69
-0.67
-0.68
-0.65
-0.48
-0.16
0.27
0.66
0.86
0.78
0.40
-0.18
-0.83
-1.41
-1.79
-1.87
-1.65
-1.20
-0.70
-0.35
-0.31
-0.62
-1.18
-1.83
-2.44
-2.99
-3.57
-4.32
-5.26
-6.30
-7.20
-7.72
-7.71
-7.22
-6.43
-5.63
-5.07
-4.88
-5.05
-5.42
-5.84
-6.16
-6.30
-6.28
-6.12
-5.88
-5.59
-5.32
-5.09
-4.95
-4.88
-4.85
-4.77
-4.53
-4.06
-3.36
-2.48
-1.51
-0.57
0.27
1.00
1.63
2.20
2.75
3.25
3.65
3.87
3.83
3.51
2.96
2.27
1.55
0.92
0.43
0.11
-0.09
-0.23
-0.34
-0.49
-0.68
-0.93
-1.20
-1.47
-1.72
-1.92
-2.07
-2.14
-2.12
-2.00
-1.77
-1.48
-1.21
-1.03
-0.96
-0.96
-0.95
-0.90
-0.82
-0.80
-0.91
-1.15
-1.43
-1.60
-1.59
-1.42
-1.18
-0.98
-0.85
-0.72
-0.47
-0.06
0.41
0.78
0.85
0.55
-0.04
-0.74
-1.34
-1.73
-1.90
-1.93
-1.90
-1.80
-1.60
-1.25
-0.79
-0.35
-0.10
-0.18
-0.58
-1.17
-1.74
-2.12
-2.22
-2.06
-1.71
-1.29
-0.88
-0.56
-0.39
-0.39
-0.57
-0.88
-1.21
-1.44
-1.49
-1.36
-1.15
-0.93
-0.79
-0.75
-0.82
-0.99
-1.22
-1.47
-1.67
-1.73
-1.58
-1.22
-0.70
-0.16
0.29
0.57
0.68
0.69
0.69
0.74
0.87
1.02
1.14
1.18
1.10
0.95
0.82
0.81
0.95
1.18
1.37
1.40
1.25
1.00
0.78
0.71
0.77
0.88
0.94
0.92
0.93
1.12
1.61
2.35
3.12
3.66
3.79
3.51
3.04
2.62
2.47
2.65
3.11
3.73
4.40
5.07
5.73
6.32
6.83
7.29
7.76
8.39
9.30
10.53
11.99
13.56
15.13
16.66
18.23
19.96
22.03
24.65
28.09
32.54
37.91
43.60
48.44
50.93
49.75
44.26
34.80
22.59
9.29
-3.49
-14.53
-23.00
-28.37
-30.31
-28.85
-24.50
-18.35
-11.86
-6.34
-2.56
-0.52
0.30
0.58
0.68
0.60
0.09
-1.02
-2.55
-4.05
-5.02
-5.16
-4.51
-3.42
-2.24
-1.12
0.06
1.75
4.54
9.01
15.62
24.57
35.78
48.83
62.93
77.12
90.45
102.19
112.13
120.52
127.89
134.74
141.27
147.22
152.13
155.60
157.68
159.07
161.06
165.14
172.36
182.40
193.08
200.38
199.43
186.16
158.91
119.21
71.18
19.95
-30.33
-77.87
-123.31
-168.81
-216.97
-270.02
-329.22
-394.31
-462.66
-528.76
-584.60
-621.60
-633.41
-618.26
-579.64
-524.72
-461.39
-395.39
-329.17
-262.82
-196.22
-130.92
-70.51
-19.31
19.60
45.76
61.49
70.55
76.57
81.78
86.61
90.55
93.19
94.96
97.05
100.70
106.40
113.44
120.24
125.07
126.78
125.14
120.73
114.56
107.65
100.76
94.37
88.66
83.62
79.15
75.04
71.16
67.45
64.06
61.23
59.22
58.11
57.76
57.82
57.86
57.52
56.66
55.41
54.15
53.41
53.75
55.53
58.80
63.13
67.73
71.74
74.61
76.41
77.92
80.29
84.43
90.47
97.53
104.07
108.58
110.35
109.88
108.64
108.47
110.73
115.61
122.05
127.77
129.77
125.04
111.13
86.60
51.52
7.63
-41.78
-92.58
-141.13
-185.89
-228.41
-272.82
-323.52
-381.94
-444.32
-501.77
-543.24
-560.01
-549.30
-515.12
-466.08
-411.23
-356.72
-304.58
-253.96
-203.49
-152.92
-103.08
-54.68
-7.22
41.13
92.14
145.74
199.17
247.64
285.89
310.47
320.88
319.48
310.27
297.17
282.86
268.39
253.52
237.42
219.40
199.30
177.63
155.43
133.96
114.19
96.43
80.21
64.77
49.61
34.97
21.80
11.10
3.25
-2.46
-7.48
-13.24
-20.35
-28.30
-35.84
-41.78
-45.57
-47.47
-48.17
-48.18
-47.49
-45.72
-42.54
-38.15
-33.28
-28.94
-25.91
-24.38
-23.87
-23.47
-22.22
-19.49
-15.13
-9.50
-3.22
2.93
8.30
12.53
15.67
18.15
20.66
23.75
27.58
31.78
35.65
38.49
40.01
40.49
40.54
40.80
41.54
42.63
43.64
44.18
44.04
43.26
41.96
40.24
38.09
35.44
32.22
28.38
23.99
19.19
14.27
9.55
5.40
2.05
-0.44
-2.25
-3.65
-4.92
-6.17
-7.34
-8.27
-8.82
-8.94
-8.71
-8.32
-7.97
-7.82
-7.92
-8.24
-8.72
-9.32
-10.05
-10.96
-12.06
-13.31
-14.57
-15.66
-16.40
-16.78
-16.93
-17.14
-17.67
-18.60
-19.76
-20.69
-20.89
-19.98
-17.85
-14.69
-10.86
-6.72
-2.57
1.39
5.02
8.14
10.63
12.42
13.59
14.39
15.14
16.11
17.39
18.86
20.24
21.25
21.70
21.59
21.12
20.55
20.08
19.80
19.66
19.51
19.18
18.55
17.58
16.26
14.62
12.71
10.62
8.49
6.45
4.59
2.95
1.47
0.12
-1.09
-2.10
-2.84
-3.27
-3.46
-3.56
-3.76
-4.17
-4.83
-5.67
-6.54
-7.35
-8.01
-8.51
-8.84
-9.06
-9.24
-9.48
-9.85
-10.38
-10.99
-11.45
-11.51
-10.94
-9.59
-7.53
-4.97
-2.24
0.33
2.53
4.27
5.59
6.61
7.44
8.14
8.76
9.33
9.90
10.56
11.42
12.55
13.98
15.61
17.31
18.89
20.19
21.06
21.46
21.38
20.87
20.02
18.89
17.53
15.92
14.04
11.86
9.43
6.86
4.32
1.96
-0.14
-1.98
-3.61
-5.09
-6.45
-7.64
-8.64
-9.41
-9.97
-10.38
-10.72
-11.06
-11.46
-11.97
-12.59
-13.31
-14.00
-14.47
-14.52
-13.95
-12.67
-10.74
-8.32
-5.61
-2.82
-0.12
2.34
4.46
6.17
7.45
8.34
8.94
9.31
9.52
9.58
9.50
9.34
9.18
9.10
9.14
9.26
9.37
9.42
9.39
9.32
9.25
9.21
9.17
9.04
8.69
8.05
7.11
5.98
4.85
3.91
3.26
2.85
2.49
1.95
1.13
0.05
-1.15
-2.32
-3.36
-4.27
-5.14
-6.01
-6.86
-7.69
-8.52
-9.42
-10.46
-11.62
-12.70
-13.39
-13.35
-12.40
-10.58
-8.16
-5.50
-2.94
-0.70
1.17
2.71
3.98
5.02
5.85
6.46
6.89
7.18
7.35
7.45
7.46
7.39
7.27
7.10
6.93
6.79
6.70
6.66
6.67
6.71
6.76
6.82
6.85
6.86
6.85
6.77
6.54
6.04
5.19
3.97
2.50
0.99
-0.34
-1.32
-1.92
-2.22
-2.34
-2.42
-2.55
-2.76
-3.08
-3.51
-4.08
-4.86
-5.83
-6.94
-8.06
-9.02
-9.64
-9.83
-9.63
-9.12
-8.41
-7.50
-6.27
-4.52
-2.08
1.06
4.68
8.39
11.72
14.33
16.15
17.34
18.24
19.21
20.57
22.60
25.48
29.34
34.05
39.12
43.71
46.82
47.80
46.61
43.94
40.86
38.30
36.67
35.75
34.94
33.65
31.62
28.94
25.81
22.41
18.68
14.53
9.88
4.84
-0.46
-5.93
-11.65
-17.76
-24.35
-31.22
-37.89
-43.65
-47.82
-50.04
-50.33
-49.07
-46.80
-44.00
-41.05
-38.31
-36.18
-35.09
-35.42
-37.34
-40.79
-45.45
-50.91
-56.66
-62.02
-66.00
-67.29
-64.61
-57.19
-45.38
-30.83
-16.18
-4.32
2.58
3.70
-0.11
-6.79
-13.69
-18.44
-19.51
-16.51
-10.06
-1.46
7.74
16.04
22.28
25.75
26.16
23.71
18.98
12.85
6.35
0.44
-4.14
-7.01
-8.09
-7.57
-5.79
-3.15
-0.07
3.01
5.64
7.40
8.00
7.37
5.72
3.49
1.29
-0.30
-0.93
-0.51
0.78
2.64
4.78
7.00
9.14
11.06
12.59
13.59
14.06
14.13
14.11
14.32
14.93
15.88
16.83
17.39
17.17
16.03
14.08
11.61
9.03
6.70
4.85
3.55
2.70
2.16
1.76
1.41
1.10
0.91
0.91
1.19
1.78
2.63
3.66
4.76
5.77
6.58
7.10
7.33
7.30
7.06
6.71
6.29
5.84
5.37
4.85
4.22
3.41
2.34
1.01
-0.55
-2.24
-3.98
-5.69
-7.42
-9.25
-11.31
-13.67
-16.26
-18.82
-20.99
-22.38
-22.77
-22.12
-20.62
-18.57
-16.29
-14.06
-12.08
-10.43
-9.13
-8.09
-7.18
-6.24
-5.17
-3.98
-2.80
-1.75
-0.89
-0.15
0.60
1.49
2.53
3.60
4.57
5.38
6.05
6.69
7.41
8.24
9.07
9.80
10.29
10.51
10.51
10.36
10.14
9.87
9.57
9.23
8.89
8.54
8.18
7.74
7.14
6.30
5.24
4.08
2.93
1.91
1.02
0.18
-0.74
-1.83
-3.12
-4.60
-6.21
-7.88
-9.45
-10.77
-11.61
-11.82
-11.39
-10.49
-9.40
-8.36
-7.54
-6.89
-6.25
-5.46
-4.46
-3.29
-2.15
-1.22
-0.59
-0.23
-0.03
0.15
0.40
0.70
1.02
1.29
1.54
1.85
2.28
2.85
3.49
4.03
4.35
4.42
4.33
4.21
4.21
4.38
4.70
5.08
5.45
5.74
5.90
5.87
5.65
5.27
4.82
4.41
4.12
3.97
3.89
3.78
3.54
3.13
2.55
1.79
0.88
-0.18
-1.29
-2.35
-3.23
-3.84
-4.21
-4.47
-4.80
-5.32
-6.11
-7.12
-8.19
-9.15
-9.77
-9.91
-9.51
-8.58
-7.26
-5.72
-4.12
-2.58
-1.18
-0.00
0.86
1.34
1.42
1.17
0.74
0.27
-0.11
-0.34
-0.43
-0.40
-0.24
0.04
0.43
0.90
1.40
1.91
2.40
2.84
3.23
3.54
3.74
3.87
3.97
4.08
4.19
4.28
4.26
4.10
3.83
3.49
3.16
2.89
2.66
2.46
2.25
2.00
1.67
1.24
0.68
0.01
-0.71
-1.42
-2.06
-2.62
-3.14
-3.62
-4.04
-4.32
-4.38
-4.15
-3.63
-2.82
-1.75
-0.35
1.50
4.05
7.61
12.51
19.02
27.20
36.92
47.69
58.85
69.55
78.96
86.44
91.61
94.41
95.10
94.07
91.83
88.75
85.10
80.91
76.04
70.28
63.51
55.76
47.39
39.03
31.48
25.51
21.62
19.91
19.95
20.77
21.03
19.13
13.44
2.64
-13.95
-36.03
-62.10
-89.50
-114.89
-134.93
-147.13
-150.49
-145.67
-134.64
-120.03
-104.38
-89.61
-76.82
-66.41
-58.33
-52.28
-47.84
-44.53
-41.85
-39.37
-36.78
-34.00
-31.14
-28.42
-26.04
-24.02
-22.18
-20.14
-17.49
-13.97
-9.56
-4.55
0.64
5.58
9.98
13.71
16.82
19.46
21.79
23.94
25.91
27.58
28.70
28.94
28.05
26.06
23.24
20.11
17.23
14.99
13.47
12.48
11.60
10.32
8.16
4.83
0.36
-4.82
-9.84
-13.63
-15.19
-13.98
-10.19
-4.68
1.32
6.62
10.47
12.70
13.57
13.54
13.03
12.24
11.30
10.21
9.02
7.71
6.17
4.16
1.43
-2.12
-6.31
-10.69
-14.67
-17.77
-19.81
-20.93
-21.43
-21.64
-21.75
-21.79
-21.77
-21.73
-21.75
-21.88
-22.03
-21.94
-21.28
-19.84
-17.63
-14.89
-12.01
-9.34
-7.08
-5.27
-3.88
-2.83
-2.08
-1.57
-1.21
-0.87
-0.42
0.17
0.84
1.40
1.71
1.72
1.48
1.15
0.84
0.59
0.39
0.21
0.09
0.11
0.34
0.73
1.13
1.33
1.17
0.65
-0.07
-0.78
-1.33
-1.67
-1.85
-1.96
-2.08
-2.24
-2.38
-2.47
-2.46
-2.37
-2.29
-2.28
-2.44
-2.80
-3.35
-4.02
-4.71
-5.35
-5.92
-6.41
-6.88
-7.37
-7.88
-8.40
-8.88
-9.26
-9.46
-9.39
-8.97
-8.17
-7.03
-5.66
-4.22
-2.85
-1.65
-0.63
0.28
1.11
1.87
2.48
2.87
3.02
3.01
3.05
3.35
4.04
5.11
6.39
7.62
8.56
9.09
9.23
9.10
8.88
8.71
8.65
8.69
8.80
8.93
9.05
9.11
9.11
9.07
8.97
8.83
8.70
8.63
8.70
8.92
9.25
9.58
9.74
9.55
8.97
8.11
7.25
6.66
6.48
6.59
6.68
6.36
5.15
2.82
-0.54
-4.44
-8.20
-11.14
-12.79
-12.95
-11.74
-9.74
-7.51
-5.40
-3.34
-1.16
1.19
3.55
5.66
7.31
8.13
8.08
7.56
7.29
7.83
9.24
11.09
12.63
13.02
11.03
5.77
-2.80
-13.75
-25.46
-36.06
-43.74
-47.18
-43.54
-32.32
-16.48
-1.40
8.75
13.38
14.88
16.50
20.34
26.30
32.30
36.03
36.34
33.84
29.98
25.65
20.86
15.00
7.48
-1.72
-11.67
-20.82
-27.80
-32.30
-35.42
-39.12
-44.13
-51.02
-59.83
-70.34
-82.25
-95.14
-107.88
-118.22
-122.77
-118.16
-102.81
-77.99
-47.72
-17.36
8.49
27.49
39.82
47.40
52.41
56.07
58.47
59.05
57.48
54.09
49.92
46.11
43.38
41.61
39.86
36.96
32.12
25.29
17.20
9.02
1.84
-3.68
-7.41
-9.56
-10.37
-9.88
-8.00
-4.63
0.07
5.58
11.13
15.96
19.62
22.10
23.78
25.20
26.76
28.59
30.55
32.38
33.81
34.69
34.87
34.27
32.82
30.52
27.52
24.09
20.49
16.95
13.56
10.38
7.51
5.14
3.50
2.75
2.84
3.51
4.34
4.87
4.71
3.61
1.46
-1.66
-5.46
-9.42
-12.92
-15.37
-16.46
-16.32
-15.56
-15.08
-15.78
-18.19
-22.27
-27.34
-32.27
-35.85
-37.17
-35.84
-32.06
-26.41
-19.64
-12.29
-4.70
3.09
11.13
19.46
27.96
36.21
43.51
48.88
51.24
49.83
44.50
35.95
25.69
15.58
7.25
1.56
-1.51
-2.67
-2.86
-2.72
-2.45
-1.94
-1.02
0.19
1.33
1.93
1.73
0.83
-0.33
-1.18
-1.36
-0.83
0.05
0.78
0.92
0.23
-1.21
-3.14
-5.25
-7.32
-9.26
-11.10
-12.89
-14.55
-15.95
-16.87
-17.20
-16.99
-16.46
-15.85
-15.35
-14.92
-14.35
-13.38
-11.72
-9.23
-5.97
-2.13
1.93
5.77
8.90
10.86
11.35
10.29
7.90
4.67
1.27
-1.64
-3.60
-4.45
-4.39
-3.82
-3.16
-2.69
-2.43
-2.27
-2.11
-2.01
-2.16
-2.77
-3.89
-5.27
-6.42
-6.80
-6.10
-4.34
-1.84
0.99
3.82
6.56
9.24
11.94
14.57
16.97
18.91
20.30
21.22
21.85
22.34
22.68
22.75
22.38
21.50
20.24
18.84
17.53
16.39
15.28
13.94
12.09
9.59
6.54
3.22
-0.01
-2.83
-5.12
-6.98
-8.63
-10.26
-11.92
-13.47
-14.68
-15.38
-15.53
-15.27
-14.79
-14.19
-13.52
-12.77
-11.98
-11.25
-10.74
-10.51
-10.54
-10.70
-10.82
-10.80
-10.65
-10.45
-10.28
-10.19
-10.19
-10.29
-10.43
-10.60
-10.72
-10.73
-10.59
-10.30
-9.92
-9.57
-9.33
-9.28
-9.41
-9.64
-9.82
-9.75
-9.21
-8.02
-6.07
-3.39
-0.13
3.46
7.10
10.49
13.39
15.61
17.02
17.55
17.25
16.28
14.90
13.40
12.04
10.97
10.24
9.84
9.70
9.77
10.01
10.39
10.87
11.36
11.75
11.94
11.85
11.46
10.78
9.87
8.80
7.68
6.66
5.90
5.52
5.56
5.94
6.47
6.87
6.92
6.52
5.70
4.59
3.33
2.03
0.68
-0.77
-2.36
-4.03
-5.65
-7.10
-8.30
-9.28
-10.13
-10.93
-11.65
-12.11
-12.15
-11.67
-10.79
-9.76
-8.85
-8.23
-7.91
-7.81
-7.84
-8.02
-8.42
-9.07
-9.91
-10.75
-11.40
-11.78
-11.96
-12.10
-12.31
-12.53
-12.56
-12.21
-11.32
-9.90
-8.04
-5.81
-3.26
-0.39
2.72
5.82
8.59
10.67
11.92
12.41
12.39
12.20
12.07
12.02
11.98
11.78
11.37
10.79
10.18
9.71
9.49
9.48
9.57
9.58
9.39
8.96
8.33
7.59
6.84
6.12
5.46
4.94
4.69
4.89
5.65
6.90
8.38
9.68
10.42
10.36
9.49
7.93
5.88
3.55
1.16
-1.03
-2.70
-3.58
-3.50
-2.54
-0.98
0.87
2.76
4.58
6.38
8.15
9.75
10.94
11.38
10.83
9.23
6.72
3.54
-0.00
-3.66
-7.20
-10.44
-13.19
-15.28
-16.59
-17.10
-16.89
-16.16
-15.10
-13.93
-12.77
-11.68
-10.65
-9.69
-8.79
-7.97
-7.23
-6.59
-6.01
-5.49
-4.97
-4.39
-3.67
-2.73
-1.53
-0.12
1.34
2.69
3.82
4.73
5.59
6.63
8.06
10.01
12.43
15.13
17.85
20.33
22.40
24.01
25.25
26.24
27.11
27.87
28.40
28.52
28.11
27.17
25.86
24.48
23.32
22.61
22.42
22.76
23.57
24.82
26.45
28.32
30.14
31.51
32.00
31.33
29.46
26.63
23.23
19.58
15.87
12.12
8.30
4.50
0.99
-1.90
-3.92
-5.12
-5.87
-6.70
-8.06
-10.10
-12.58
-15.04
-17.06
-18.48
-19.47
-20.41
-21.65
-23.26
-24.96
-26.27
-26.71
-26.07
-24.43
-22.13
-19.57
-17.07
-14.77
-12.69
-10.86
-9.38
-8.40
-8.11
-8.58
-9.76
-11.45
-13.38
-15.26
-16.89
-18.07
-18.63
-18.39
-17.20
-15.06
-12.13
-8.85
-5.73
-3.29
-1.80
-1.28
-1.50
-2.11
-2.78
-3.31
-3.65
-3.87
-4.12
-4.53
-5.20
-6.19
-7.44
-8.85
-10.24
-11.43
-12.23
-12.49
-12.15
-11.16
-9.57
-7.45
-4.88
-1.88
1.50
5.20
9.00
12.52
15.29
16.89
17.11
15.97
13.78
10.94
7.84
4.76
1.86
-0.81
-3.19
-5.27
-7.05
-8.59
-10.00
-11.42
-12.97
-14.65
-16.37
-17.95
-19.21
-20.01
-20.36
-20.33
-20.10
-19.80
-19.50
-19.20
-18.81
-18.25
-17.49
-16.57
-15.61
-14.76
-14.16
-13.85
-13.80
-13.89
-13.93
-13.77
-13.31
-12.53
-11.48
-10.24
-8.90
-7.52
-6.11
-4.71
-3.37
-2.19
-1.27
-0.62
-0.21
0.13
0.53
1.06
1.69
2.30
2.75
3.02
3.20
3.45
3.96
4.79
5.90
7.09
8.17
8.96
9.43
9.66
9.80
10.04
10.42
10.93
11.39
11.64
11.56
11.11
10.35
9.34
8.13
6.74
5.15
3.41
1.61
-0.10
-1.60
-2.82
-3.81
-4.67
-5.56
-6.53
-7.56
-8.53
-9.29
-9.74
-9.84
-9.64
-9.23
-8.69
-8.06
-7.33
-6.49
-5.54
-4.54
-3.57
-2.71
-1.96
-1.30
-0.70
-0.19
0.22
0.51
0.71
0.92
1.24
1.71
2.25
2.70
2.96
3.01
2.98
3.03
3.34
3.89
4.56
5.12
5.37
5.19
4.59
3.71
2.75
1.88
1.19
0.68
0.24
-0.23
-0.79
-1.40
-1.98
-2.43
-2.73
-2.94
-3.12
-3.32
-3.46
-3.41
-3.08
-2.49
-1.74
-1.00
-0.39
0.11
0.57
1.08
1.66
2.24
2.71
2.97
3.02
2.90
2.70
2.47
2.21
1.92
1.60
1.30
1.11
1.09
1.30
1.66
2.07
2.40
2.56
2.56
2.46
2.38
2.35
2.34
2.24
2.00
1.61
1.16
0.76
0.45
0.20
-0.08
-0.50
-1.05
-1.66
-2.24
-2.69
-2.93
-2.97
-2.82
-2.50
-2.01
-1.39
-0.65
0.14
0.92
1.60
2.12
2.48
2.70
2.86
3.03
3.22
3.40
3.49
3.44
3.21
2.88
2.53
2.24
2.07
2.01
2.03
2.08
2.12
2.11
2.02
1.82
1.55
1.25
1.02
0.98
1.20
1.64
2.18
2.61
2.76
2.58
2.12
1.56
1.03
0.61
0.25
-0.14
-0.64
-1.21
-1.77
-2.21
-2.49
-2.60
-2.62
-2.58
-2.47
-2.25
-1.83
-1.25
-0.54
0.16
0.75
1.18
1.43
1.52
1.50
1.41
1.30
1.22
1.22
1.30
1.42
1.55
1.58
1.48
1.22
0.85
0.44
0.12
-0.03
0.01
0.19
0.37
0.47
0.43
0.32
0.24
0.26
0.35
0.39
0.26
-0.10
-0.65
-1.22
-1.69
-1.94
-1.99
-1.93
-1.82
-1.73
-1.65
-1.56
-1.43
-1.23
-0.97
-0.65
-0.27
0.18
0.70
1.28
1.81
2.18
2.28
2.06
1.59
1.06
0.63
0.47
0.58
0.91
1.31
1.60
1.67
1.43
0.93
0.30
-0.27
-0.56
-0.45
0.05
0.77
1.43
1.80
1.78
1.36
0.68
-0.12
-0.89
-1.53
-1.96
-2.18
-2.19
-2.07
-1.88
-1.74
-1.73
-1.87
-2.15
-2.47
-2.70
-2.69
-2.33
-1.60
-0.62
0.41
1.28
1.84
2.09
2.10
2.02
1.94
1.90
1.86
1.80
1.71
1.58
1.42
1.22
0.97
0.67
0.37
0.17
0.12
0.23
0.45
0.64
0.70
0.56
0.24
-0.14
-0.44
-0.56
-0.48
-0.29
-0.11
-0.08
-0.25
-0.57
-0.94
-1.29
-1.56
-1.80
-2.04
-2.31
-2.59
-2.76
-2.73
-2.41
-1.81
-1.02
-0.15
0.65
1.28
1.73
2.02
2.22
2.39
2.51
2.55
2.46
2.21
1.83
1.39
1.00
0.73
0.57
0.48
0.37
0.21
0.01
-0.14
-0.18
-0.08
0.11
0.28
0.36
0.34
0.26
0.20
0.23
0.34
0.48
0.57
0.58
0.48
0.27
-0.07
-0.55
-1.11
-1.64
-2.01
-2.12
-1.99
-1.72
-1.46
-1.28
-1.18
-1.08
-0.92
-0.63
-0.24
0.20
0.62
1.01
1.33
1.57
1.73
1.78
1.75
1.64
1.47
1.23
0.93
0.61
0.31
0.10
0.06
0.17
0.41
0.67
0.87
0.92
0.83
0.64
0.42
0.23
0.13
0.09
0.07
0.02
-0.11
-0.30
-0.53
-0.76
-0.97
-1.16
-1.37
-1.63
-1.89
-2.12
-2.24
-2.19
-1.97
-1.62
-1.22
-0.82
-0.43
-0.04
0.38
0.83
1.27
1.62
1.84
1.91
1.86
1.74
1.57
1.35
1.08
0.77
0.46
0.24
0.19
0.35
0.71
1.20
1.67
1.97
1.98
1.66
1.08
0.39
-0.21
-0.59
-0.69
-0.56
-0.35
-0.18
-0.14
-0.24
-0.42
-0.65
-0.94
-1.28
-1.71
-2.17
-2.60
-2.89
-2.96
-2.78
-2.35
-1.75
-1.06
-0.35
0.32
0.91
1.35
1.62
1.67
1.54
1.29
1.06
0.96
1.05
1.32
1.65
1.90
1.95
1.74
1.32
0.79
0.31
-0.02
-0.11
0.05
0.39
0.80
1.14
1.31
1.24
0.97
0.57
0.18
-0.10
-0.22
-0.20
-0.09
0.03
0.14
0.20
0.22
0.17
0.04
-0.21
-0.55
-0.94
-1.31
-1.58
-1.72
-1.72
-1.59
-1.33
-0.91
-0.34
0.34
0.99
1.43
1.53
1.32
0.92
0.53
0.29
0.27
0.39
0.58
0.75
0.88
0.99
1.12
1.27
1.41
1.50
1.47
1.28
0.94
0.53
0.17
-0.01
0.06
0.33
0.66
0.90
0.94
0.83
0.66
0.54
0.48
0.38
0.13
-0.31
-0.87
-1.41
-1.79
-1.95
-1.92
-1.80
-1.66
-1.50
-1.26
-0.87
-0.33
0.28
0.81
1.14
1.22
1.14
1.02
0.98
1.04
1.13
1.16
1.08
0.90
0.73
0.65
0.66
0.67
0.51
0.08
-0.60
-1.36
-1.97
-2.24
-2.15
-1.82
-1.47
-1.33
-1.49
-1.95
-2.55
-3.16
-3.64
-3.96
-4.13
-4.19
-4.25
-4.36
-4.58
-4.85
-5.04
-4.99
-4.52
-3.57
-2.19
-0.59
1.00
2.36
3.39
4.07
4.49
4.74
4.87
4.91
4.88
4.80
4.72
4.70
4.77
4.87
4.94
4.89
4.71
4.42
4.08
3.71
3.27
2.72
2.07
1.41
0.85
0.49
0.32
0.30
0.33
0.35
0.34
0.30
0.21
0.02
-0.28
-0.66
-0.99
-1.15
-1.08
-0.81
-0.48
-0.21
-0.08
-0.09
-0.17
-0.27
-0.32
-0.27
-0.12
0.16
0.55
0.99
1.38
1.62
1.64
1.44
1.09
0.73
0.44
0.33
0.41
0.63
0.93
1.19
1.32
1.27
1.03
0.64
0.22
-0.10
-0.21
-0.06
0.26
0.60
0.85
0.90
0.76
0.51
0.26
0.10
0.06
0.11
0.19
0.24
0.22
0.15
0.05
-0.04
-0.12
-0.21
-0.38
-0.70
-1.15
-1.67
-2.11
-2.36
-2.39
-2.26
-2.07
-1.87
-1.65
-1.36
-0.99
-0.58
-0.27
-0.17
-0.33
-0.67
-1.06
-1.33
-1.38
-1.22
-0.97
-0.75
-0.69
-0.84
-1.18
-1.61
-2.00
-2.26
-2.33
-2.28
-2.19
-2.18
-2.31
-2.56
-2.87
-3.14
-3.27
-3.20
-2.89
-2.35
-1.63
-0.78
0.13
1.02
1.81
2.45
2.90
3.14
3.22
3.20
3.12
3.03
2.96
2.89
2.83
2.80
2.81
2.90
3.06
3.28
3.47
3.61
3.66
3.62
3.48
3.24
2.91
2.49
2.03
1.58
1.23
1.00
0.91
0.93
1.00
1.03
1.00
0.91
0.78
0.69
0.70
0.83
1.02
1.19
1.24
1.10
0.78
0.39
0.07
-0.08
-0.01
0.22
0.46
0.55
0.41
0.08
-0.30
-0.58
-0.66
-0.58
-0.47
-0.49
-0.72
-1.11
-1.52
-1.80
-1.83
-1.66
-1.39
-1.19
-1.11
-1.15
-1.17
-1.05
-0.69
-0.13
0.46
0.93
1.12
1.04
0.84
0.70
0.75
0.96
1.21
1.33
1.26
1.03
0.77
0.61
0.59
0.69
0.80
0.87
0.90
0.94
1.01
1.13
1.24
1.30
1.27
1.16
1.00
0.80
0.56
0.31
0.06
-0.14
-0.28
-0.38
-0.47
-0.59
-0.73
-0.86
-0.93
-0.95
-0.95
-0.96
-1.03
-1.14
-1.23
-1.27
-1.24
-1.19
-1.15
-1.17
-1.28
-1.45
-1.66
-1.91
-2.21
-2.54
-2.85
-3.01
-2.90
-2.48
-1.81
-1.09
-0.58
-0.43
-0.65
-1.09
-1.53
-1.80
-1.87
-1.86
-1.90
-2.07
-2.33
-2.61
-2.82
-2.92
-2.95
-2.98
-3.05
-3.14
-3.19
-3.11
-2.84
-2.35
-1.70
-0.95
-0.18
0.55
1.26
1.95
2.67
3.42
4.15
4.77
5.19
5.35
5.24
4.93
4.47
3.95
3.41
2.88
2.41
2.06
1.89
1.91
2.05
2.16
2.08
1.73
1.11
0.37
-0.31
-0.76
-0.87
-0.68
-0.28
0.18
0.59
0.86
0.98
0.99
0.93
0.86
0.83
0.84
0.86
0.84
0.79
0.71
0.61
0.50
0.37
0.24
0.16
0.19
0.35
0.60
0.85
0.99
0.99
0.88
0.78
0.79
0.92
1.07
1.10
0.92
0.54
0.12
-0.22
-0.36
-0.32
-0.17
-0.01
0.09
0.09
-0.02
-0.26
-0.60
-1.02
-1.44
-1.79
-1.98
-1.98
-1.82
-1.57
-1.30
-1.12
-1.09
-1.24
-1.52
-1.82
-2.02
-2.02
-1.82
-1.49
-1.12
-0.81
-0.58
-0.42
-0.27
-0.08
0.16
0.43
0.68
0.89
1.00
1.02
0.97
0.88
0.81
0.77
0.76
0.76
0.74
0.71
0.69
0.71
0.80
0.93
1.06
1.12
1.07
0.90
0.65
0.38
0.17
0.08
0.12
0.25
0.42
0.55
0.60
0.53
0.38
0.19
-0.01
-0.15
-0.21
-0.15
0.04
0.30
0.54
0.62
0.42
-0.08
-0.79
-1.54
-2.14
-2.48
-2.57
-2.54
-2.55
-2.68
-2.92
-3.19
-3.40
-3.52
-3.58
-3.60
-3.63
-3.66
-3.67
-3.65
-3.63
-3.62
-3.67
-3.75
-3.81
-3.76
-3.54
-3.11
-2.52
-1.84
-1.16
-0.55
-0.01
0.47
0.97
1.50
2.07
2.68
3.31
3.91
4.43
4.80
4.92
4.75
4.36
3.88
3.48
3.30
3.35
3.52
3.63
3.59
3.37
3.07
2.81
2.63
2.47
2.26
1.91
1.47
1.04
0.76
0.65
0.66
0.62
0.42
0.05
-0.39
-0.73
-0.85
-0.77
-0.61
-0.51
-0.58
-0.81
-1.12
-1.36
-1.43
-1.26
-0.90
-0.47
-0.09
0.12
0.14
-0.00
-0.18
-0.31
-0.34
-0.29
-0.22
-0.14
-0.04
0.14
0.42
0.75
1.03
1.14
1.03
0.79
0.58
0.56
0.79
1.20
1.60
1.76
1.56
1.03
0.32
-0.34
-0.75
-0.82
-0.58
-0.19
0.21
0.46
0.51
0.38
0.14
-0.14
-0.38
-0.52
-0.51
-0.32
0.01
0.42
0.76
0.88
0.68
0.15
-0.59
-1.34
-1.90
-2.13
-2.02
-1.67
-1.26
-0.95
-0.88
-1.05
-1.39
-1.74
-1.96
-1.90
-1.57
-1.03
-0.41
0.16
0.61
0.95
1.17
1.28
1.24
1.02
0.66
0.28
0.04
0.09
0.42
0.89
1.29
1.44
1.28
0.88
0.38
-0.09
-0.45
-0.66
-0.75
-0.71
-0.58
-0.38
-0.15
0.06
0.19
0.20
0.09
-0.13
-0.39
-0.60
-0.68
-0.59
-0.37
-0.11
0.10
0.15
0.06
-0.16
-0.41
-0.64
-0.84
-1.02
-1.18
-1.35
-1.53
-1.74
-1.98
-2.26
-2.57
-2.90
-3.21
-3.52
-3.82
-4.14
-4.46
-4.75
-4.96
-5.01
-4.89
-4.61
-4.20
-3.70
-3.10
-2.38
-1.50
-0.49
0.58
1.57
2.35
2.87
3.15
3.30
3.43
3.64
3.94
4.29
4.58
4.72
4.66
4.42
4.07
3.73
3.47
3.35
3.36
3.44
3.56
3.64
3.63
3.45
3.08
2.49
1.77
1.02
0.40
0.02
-0.10
-0.03
0.13
0.27
0.30
0.22
0.02
-0.26
-0.58
-0.87
-1.08
-1.15
-1.08
-0.89
-0.65
-0.42
-0.24
-0.14
-0.15
-0.25
-0.44
-0.64
-0.74
-0.67
-0.40
-0.03
0.30
0.46
0.39
0.18
-0.03
-0.11
-0.06
0.05
0.10
0.02
-0.16
-0.31
-0.28
-0.05
0.33
0.71
0.94
0.95
0.76
0.48
0.23
0.13
0.19
0.40
0.66
0.88
0.97
0.89
0.66
0.35
0.05
-0.16
-0.30
-0.38
-0.44
-0.49
-0.50
-0.41
-0.21
0.08
0.37
0.52
0.45
0.12
-0.36
-0.87
-1.26
-1.46
-1.48
-1.39
-1.26
-1.14
-1.07
-1.05
-1.10
-1.24
-1.41
-1.57
-1.60
-1.45
-1.10
-0.65
-0.22
0.06
0.12
0.00
-0.23
-0.48
-0.70
-0.86
-1.00
-1.15
-1.30
-1.42
-1.45
-1.37
-1.23
-1.11
-1.11
-1.28
-1.59
-1.98
-2.38
-2.73
-3.04
-3.35
-3.70
-4.11
-4.57
-5.06
-5.55
-6.08
-6.67
-7.35
-8.10
-8.86
-9.54
-10.08
-10.51
-10.87
-11.22
-11.53
-11.66
-11.45
-10.82
-9.87
-8.86
-8.05
-7.49
-6.96
-5.99
-4.11
-1.02
3.16
8.03
13.06
17.89
22.47
27.00
31.80
37.06
42.71
48.36
53.46
57.44
59.86
60.57
59.64
57.36
54.10
50.24
46.11
41.97
37.98
34.18
30.43
26.46
21.92
16.58
10.49
4.01
-2.21
-7.51
-11.37
-13.62
-14.38
-13.99
-12.76
-10.95
-8.75
-6.40
-4.24
-2.67
-2.04
-2.45
-3.72
-5.40
-6.90
-7.77
-7.82
-7.16
-6.09
-4.95
-3.94
-3.07
-2.21
-1.11
0.48
2.72
5.64
9.10
12.72
15.92
17.97
18.13
15.91
11.27
4.76
-2.65
-9.82
-15.85
-20.29
-23.19
-25.00
-26.20
-27.15
-28.00
-28.75
-29.43
-30.14
-31.06
-32.39
-34.14
-36.19
-38.26
-40.04
-41.34
-42.12
-42.44
-42.41
-42.04
-41.27
-39.97
-38.10
-35.73
-32.93
-29.69
-25.83
-21.09
-15.35
-8.81
-2.04
4.19
9.19
12.56
14.29
14.61
13.86
12.30
10.17
7.69
5.11
2.68
0.57
-1.14
-2.53
-3.64
-4.53
-5.22
-5.70
-6.03
-6.30
-6.56
-6.83
-7.07
-7.24
-7.33
-7.39
-7.48
-7.60
-7.66
-7.50
-6.97
-6.04
-4.83
-3.55
-2.45
-1.62
-1.08
-0.69
-0.32
0.13
0.67
1.25
1.79
2.21
2.48
2.60
2.61
2.55
2.50
2.51
2.57
2.66
2.73
2.74
2.71
2.71
2.79
2.99
3.25
3.50
3.65
3.67
3.59
3.43
3.23
3.00
2.73
2.42
2.10
1.80
1.51
1.23
0.91
0.50
0.02
-0.46
-0.83
-1.01
-0.97
-0.79
-0.62
-0.57
-0.67
-0.86
-0.98
-0.92
-0.64
-0.24
0.13
0.32
0.25
-0.01
-0.37
-0.70
-0.95
-1.10
-1.20
-1.24
-1.19
-0.98
-0.55
0.06
0.79
1.50
2.06
2.42
2.56
2.52
2.38
2.19
2.02
1.95
2.05
2.32
2.71
3.13
3.45
3.61
3.60
3.46
3.27
3.09
2.95
2.85
2.82
2.89
3.05
3.31
3.60
3.81
3.84
3.63
3.20
2.69
2.24
1.97
1.93
2.07
2.27
2.39
2.34
2.07
1.60
0.99
0.32
-0.28
-0.72
-0.93
-0.90
-0.71
-0.48
-0.29
-0.22
-0.21
-0.18
-0.03
0.32
0.86
1.54
2.29
3.00
3.59
4.01
4.24
4.30
4.21
4.05
3.83
3.60
3.35
3.13
2.98
2.93
3.03
3.25
3.53
3.75
3.84
3.74
3.49
3.15
2.78
2.42
2.05
1.66
1.28
0.98
0.85
0.91
1.11
1.30
1.36
1.25
1.04
0.88
0.85
0.97
1.14
1.24
1.15
0.86
0.41
-0.12
-0.68
-1.21
-1.63
-1.87
-1.87
-1.60
-1.11
-0.46
0.22
0.79
1.17
1.33
1.29
1.22
1.26
1.50
1.89
2.27
2.45
2.34
2.00
1.64
1.46
1.57
1.90
2.26
2.47
2.48
2.37
2.29
2.35
2.53
2.71
2.74
2.51
2.06
1.49
0.92
0.47
0.18
0.07
0.08
0.17
0.32
0.47
0.60
0.67
0.65
0.52
0.33
0.14
0.04
0.07
0.22
0.42
0.55
0.51
0.26
-0.16
-0.58
-0.88
-0.94
-0.79
-0.46
-0.04
0.41
0.85
1.23
1.49
1.54
1.35
0.95
0.46
0.05
-0.12
0.02
0.45
1.07
1.75
2.37
2.82
3.03
2.95
2.65
2.25
1.90
1.69
1.62
1.60
1.53
1.35
1.08
0.80
0.54
0.31
0.06
-0.25
-0.59
-0.89
-1.07
-1.12
-1.08
-1.03
-1.03
-1.04
-0.98
-0.79
-0.46
-0.05
0.30
0.52
0.54
0.42
0.21
-0.02
-0.22
-0.37
-0.45
-0.46
-0.41
-0.37
-0.39
-0.52
-0.71
-0.85
-0.81
-0.53
-0.03
0.56
1.06
1.36
1.40
1.23
0.94
0.60
0.29
0.03
-0.14
-0.24
-0.24
-0.17
-0.06
0.08
0.21
0.33
0.45
0.58
0.71
0.82
0.89
0.90
0.85
0.79
0.74
0.72
0.72
0.73
0.74
0.75
0.78
0.84
0.96
1.09
1.18
1.16
1.02
0.79
0.53
0.35
0.27
0.28
0.28
0.20
-0.03
-0.34
-0.63
-0.76
-0.72
-0.61
-0.59
-0.77
-1.17
-1.63
-1.97
-2.04
-1.82
-1.45
-1.04
-0.71
-0.47
-0.28
-0.10
0.03
0.03
-0.12
-0.39
-0.64
-0.74
-0.59
-0.23
0.22
0.58
0.74
0.67
0.43
0.13
-0.14
-0.28
-0.27
-0.10
0.15
0.37
0.44
0.29
-0.07
-0.53
-0.91
-1.08
-1.02
-0.82
-0.61
-0.49
-0.45
-0.40
-0.26
-0.05
0.10
0.05
-0.25
-0.70
-1.09
-1.21
-1.01
-0.58
-0.15
0.09
0.06
-0.14
-0.36
-0.44
-0.35
-0.13
0.08
0.17
0.08
-0.14
-0.40
-0.59
-0.67
-0.65
-0.61
-0.60
-0.66
-0.73
-0.74
-0.64
-0.43
-0.17
0.04
0.15
0.17
0.19
0.28
0.46
0.68
0.85
0.89
0.80
0.66
0.54
0.49
0.45
0.32
0.03
-0.39
-0.84
-1.16
-1.25
-1.13
-0.87
-0.59
-0.34
-0.13
0.06
0.22
0.31
0.27
0.10
-0.18
-0.46
-0.65
-0.69
-0.57
-0.35
-0.07
0.20
0.40
0.51
0.51
0.42
0.26
0.08
-0.09
-0.24
-0.36
-0.46
-0.56
-0.68
-0.80
-0.88
-0.87
-0.74
-0.53
-0.31
-0.18
-0.17
-0.22
-0.21
-0.02
0.37
0.87
1.27
1.43
1.27
0.85
0.34
-0.09
-0.35
-0.42
-0.38
-0.32
-0.30
-0.32
-0.40
-0.52
-0.68
-0.89
-1.11
-1.28
-1.33
-1.23
-1.01
-0.72
-0.48
-0.34
-0.34
-0.45
-0.63
-0.83
-1.03
-1.17
-1.22
-1.19
-1.09
-0.98
-0.90
-0.87
-0.91
-0.99
-1.09
-1.18
-1.26
-1.37
-1.54
-1.80
-2.14
-2.52
-2.88
-3.19
-3.43
-3.61
-3.76
-3.87
-3.89
-3.77
-3.49
-3.06
-2.57
-2.11
-1.73
-1.43
-1.14
-0.78
-0.26
0.45
1.31
2.24
3.12
3.84
4.34
4.58
4.62
4.50
4.28
3.98
3.59
3.10
2.53
1.93
1.45
1.21
1.28
1.63
2.14
2.61
2.87
2.82
2.52
2.07
1.63
1.28
1.03
0.85
0.69
0.51
0.33
0.19
0.11
0.06
-0.01
-0.14
-0.35
-0.59
-0.80
-0.93
-0.96
-0.93
-0.88
-0.87
-0.88
-0.92
-0.91
-0.81
-0.59
-0.22
0.25
0.73
1.12
1.31
1.26
1.00
0.65
0.32
0.09
-0.02
-0.04
-0.01
0.07
0.18
0.35
0.53
0.67
0.70
0.59
0.42
0.30
0.32
0.47
0.65
0.73
0.61
0.28
-0.14
-0.50
-0.69
-0.71
-0.60
-0.50
-0.48
-0.54
-0.66
-0.77
-0.89
-1.03
-1.20
-1.37
-1.43
-1.28
-0.86
-0.22
0.50
1.08
1.35
1.25
0.85
0.35
-0.05
-0.18
-0.04
0.29
0.65
0.90
1.00
0.98
0.91
0.86
0.83
0.77
0.64
0.43
0.19
-0.01
-0.11
-0.12
-0.08
-0.09
-0.22
-0.45
-0.72
-0.90
-0.91
-0.76
-0.56
-0.45
-0.56
-0.89
-1.30
-1.58
-1.56
-1.22
-0.72
-0.25
-0.02
-0.04
-0.17
-0.21
-0.01
0.40
0.83
1.08
1.01
0.72
0.39
0.23
0.32
0.56
0.74
0.70
0.41
0.00
-0.33
-0.43
-0.26
0.09
0.46
0.70
0.71
0.50
0.14
-0.24
-0.48
-0.53
-0.41
-0.24
-0.13
-0.16
-0.27
-0.37
-0.38
-0.30
-0.22
-0.23
-0.37
-0.57
-0.70
-0.66
-0.42
-0.05
0.35
0.68
0.89
0.99
1.00
0.96
0.90
0.83
0.75
0.64
0.49
0.31
0.11
-0.06
-0.19
-0.29
-0.40
-0.55
-0.76
-1.00
-1.20
-1.27
-1.17
-0.92
-0.60
-0.31
-0.16
-0.18
-0.33
-0.55
-0.77
-0.98
-1.21
-1.46
-1.67
-1.77
-1.69
-1.41
-0.98
-0.50
-0.08
0.21
0.35
0.35
0.22
-0.00
-0.28
-0.54
-0.72
-0.75
-0.64
-0.44
-0.24
-0.17
-0.28
-0.56
-0.89
-1.15
-1.24
-1.19
-1.15
-1.28
-1.67
-2.30
-2.97
-3.50
-3.74
-3.71
-3.53
-3.35
-3.25
-3.25
-3.28
-3.28
-3.21
-3.07
-2.87
-2.58
-2.16
-1.52
-0.64
0.45
1.60
2.66
3.46
3.93
4.11
4.07
3.93
3.75
3.59
3.47
3.41
3.44
3.54
3.68
3.76
3.73
3.52
3.14
2.64
2.09
1.56
1.14
0.87
0.79
0.89
1.10
1.33
1.48
1.53
1.47
1.34
1.12
0.81
0.37
-0.14
-0.64
-0.99
-1.10
-0.95
-0.63
-0.28
-0.06
-0.02
-0.18
-0.43
-0.69
-0.83
-0.83
-0.69
-0.51
-0.37
-0.30
-0.25
-0.13
0.10
0.40
0.66
0.78
0.75
0.68
0.72
0.96
1.35
1.71
1.83
1.59
1.04
0.37
-0.22
-0.55
-0.60
-0.42
-0.11
0.19
0.40
0.47
0.41
0.24
0.01
-0.23
-0.42
-0.52
-0.54
-0.50
-0.46
-0.50
-0.69
-1.03
-1.43
-1.72
-1.74
-1.39
-0.69
0.18
0.96
1.40
1.43
1.12
0.63
0.17
-0.15
-0.31
-0.36
-0.31
-0.16
0.11
0.51
0.98
1.39
1.64
1.65
1.47
1.18
0.86
0.57
0.31
0.06
-0.15
-0.28
-0.30
-0.19
-0.04
0.06
0.02
-0.19
-0.48
-0.72
-0.78
-0.62
-0.33
-0.06
0.04
-0.13
-0.51
-0.99
-1.42
-1.69
-1.74
-1.61
-1.37
-1.07
-0.76
-0.44
-0.09
0.29
0.67
1.00
1.21
1.26
1.15
0.97
0.81
0.77
0.89
1.15
1.47
1.73
1.86
1.81
1.60
1.29
0.96
0.72
0.60
0.59
0.64
0.69
0.68
0.61
0.51
0.42
0.30
0.11
-0.22
-0.65
-1.09
-1.38
-1.41
-1.18
-0.78
-0.37
-0.08
0.05
0.04
-0.07
-0.21
-0.36
-0.50
-0.58
-0.58
-0.47
-0.29
-0.10
0.05
0.16
0.26
0.42
0.63
0.84
0.95
0.91
0.74
0.52
0.35
0.30
0.33
0.40
0.47
0.53
0.62
0.75
0.91
0.99
0.94
0.73
0.44
0.20
0.08
0.08
0.12
0.10
-0.01
-0.17
-0.30
-0.35
-0.33
-0.30
-0.32
-0.40
-0.48
-0.47
-0.35
-0.16
0.01
0.03
-0.14
-0.45
-0.81
-1.12
-1.31
-1.38
-1.37
-1.30
-1.20
-1.06
-0.89
-0.70
-0.52
-0.42
-0.44
-0.63
-0.98
-1.44
-1.95
-2.42
-2.79
-3.03
-3.12
-3.08
-2.95
-2.76
-2.56
-2.41
-2.33
-2.35
-2.41
-2.42
-2.30
-1.99
-1.50
-0.88
-0.21
0.44
1.02
1.50
1.86
2.11
2.28
2.44
2.64
2.93
3.29
3.65
3.93
4.05
3.97
3.66
3.14
2.50
1.84
1.32
1.04
1.05
1.27
1.57
1.77
1.76
1.50
1.09
0.68
0.43
0.42
0.64
0.96
1.20
1.23
1.00
0.58
0.13
-0.19
-0.28
-0.14
0.15
0.49
0.80
1.00
1.10
1.11
1.03
0.89
0.71
0.50
0.28
0.06
-0.16
-0.37
-0.57
-0.71
-0.77
-0.74
-0.63
-0.46
-0.24
0.00
0.24
0.43
0.54
0.56
0.48
0.32
0.11
-0.13
-0.39
-0.61
-0.75
-0.82
-0.84
-0.87
-0.97
-1.13
-1.29
-1.32
-1.17
-0.85
-0.47
-0.18
-0.06
-0.09
-0.15
-0.12
0.06
0.33
0.61
0.77
0.81
0.74
0.65
0.59
0.53
0.45
0.30
0.14
0.03
0.05
0.20
0.38
0.48
0.37
0.08
-0.29
-0.61
-0.75
-0.70
-0.48
-0.18
0.12
0.35
0.48
0.52
0.50
0.47
0.46
0.47
0.48
0.44
0.28
0.00
-0.37
-0.78
-1.20
-1.55
-1.80
-1.89
-1.80
-1.56
-1.25
-0.98
-0.82
-0.74
-0.67
-0.50
-0.21
0.15
0.45
0.57
0.52
0.40
0.33
0.38
0.54
0.68
0.69
0.53
0.29
0.10
0.07
0.23
0.50
0.76
0.90
0.89
0.72
0.47
0.21
0.00
-0.11
-0.12
-0.03
0.13
0.29
0.41
0.45
0.42
0.33
0.24
0.15
0.02
-0.17
-0.47
-0.84
-1.22
-1.52
-1.68
-1.67
-1.52
-1.27
-0.96
-0.62
-0.30
-0.04
0.09
0.08
-0.07
-0.29
-0.52
-0.68
-0.71
-0.59
-0.31
0.07
0.47
0.79
0.94
0.90
0.73
0.53
0.41
0.39
0.45
0.56
0.67
0.82
1.00
1.22
1.40
1.47
1.34
1.01
0.57
0.12
-0.27
-0.53
-0.70
-0.81
-0.90
-0.96
-0.98
-0.96
-0.92
-0.86
-0.80
-0.73
-0.64
-0.52
-0.38
-0.26
-0.20
-0.22
-0.30
-0.42
-0.53
-0.61
-0.66
-0.66
-0.64
-0.63
-0.64
-0.67
-0.69
-0.65
-0.50
-0.24
0.12
0.46
0.72
0.81
0.76
0.62
0.46
0.33
0.24
0.18
0.15
0.15
0.18
0.22
0.24
0.20
0.09
-0.01
-0.03
0.10
0.38
0.70
0.90
0.88
0.60
0.19
-0.21
-0.46
-0.57
-0.59
-0.67
-0.85
-1.10
-1.31
-1.35
-1.16
-0.82
-0.48
-0.28
-0.31
-0.55
-0.88
-1.16
-1.30
-1.31
-1.27
-1.33
-1.57
-2.01
-2.55
-3.04
-3.32
-3.30
-3.00
-2.49
-1.92
-1.39
-0.99
-0.80
-0.83
-1.12
-1.65
-2.36
-3.07
-3.59
-3.76
-3.51
-2.86
-1.93
-0.87
0.19
1.11
1.77
2.11
2.14
1.95
1.70
1.56
1.66
2.02
2.56
3.13
3.57
3.78
3.72
3.43
3.05
2.74
2.61
2.72
3.00
3.30
3.52
3.57
3.47
3.26
2.95
2.55
2.03
1.43
0.84
0.35
0.02
-0.16
-0.30
-0.49
-0.75
-1.03
-1.19
-1.14
-0.84
-0.39
0.07
0.38
0.49
0.45
0.36
0.34
0.38
0.42
0.35
0.09
-0.30
-0.67
-0.87
-0.84
-0.62
-0.34
-0.15
-0.14
-0.32
-0.66
-1.08
-1.48
-1.78
-1.92
-1.85
-1.61
-1.26
-0.87
-0.47
-0.05
0.36
0.73
0.92
0.82
0.39
-0.29
-1.04
-1.67
-2.03
-2.12
-1.96
-1.66
-1.29
-0.89
-0.50
-0.18
0.02
0.05
-0.04
-0.19
-0.29
-0.25
-0.07
0.19
0.43
0.58
0.62
0.58
0.54
0.53
0.57
0.63
0.67
0.66
0.62
0.57
0.55
0.54
0.55
0.53
0.50
0.43
0.35
0.26
0.15
0.02
-0.14
-0.32
-0.50
-0.68
-0.82
-0.93
-0.99
-1.00
-0.97
-0.90
-0.79
-0.62
-0.39
-0.08
0.31
0.73
1.12
1.42
1.57
1.55
1.42
1.27
1.16
1.09
1.03
0.91
0.76
0.62
0.58
0.69
0.93
1.26
1.61
1.91
2.18
2.42
2.65
2.87
3.07
3.25
3.41
3.59
3.80
4.07
4.46
4.99
5.61
6.26
6.81
7.21
7.53
7.96
8.72
9.94
11.53
13.23
14.64
15.43
15.41
14.63
13.26
11.54
9.64
7.58
5.28
2.64
-0.41
-3.82
-7.44
-11.04
-14.41
-17.39
-19.94
-22.10
-23.96
-25.59
-27.09
-28.59
-30.15
-31.80
-33.53
-35.20
-36.51
-37.06
-36.41
-34.19
-30.26
-24.68
-17.77
-10.12
-2.52
4.31
9.97
14.40
17.74
20.20
22.18
24.01
25.76
27.21
27.92
27.76
26.73
25.04
22.95
21.12
20.16
20.32
21.23
22.18
22.86
23.31
23.88
24.94
27.33
31.83
38.74
47.69
57.72
67.88
76.90
83.12
82.59
72.68
54.10
31.16
9.67
-8.58
-23.30
-34.97
-42.99
-47.23
-47.63
-44.65
-39.56
-34.24
-30.67
-29.74
-31.33
-34.64
-38.73
-42.35
-44.51
-44.84
-43.72
-41.99
-40.22
-38.70
-37.52
-36.68
-35.77
-34.31
-32.03
-29.04
-25.74
-22.41
-19.28
-16.50
-14.20
-12.27
-10.42
-8.36
-5.95
-3.26
-0.56
1.79
3.40
4.12
4.18
4.16
4.63
6.00
8.22
10.76
12.79
13.60
12.94
11.20
9.24
7.98
8.12
9.77
12.19
14.20
14.68
13.08
9.65
5.27
0.84
-2.72
-4.74
-4.81
-2.84
0.58
3.83
4.13
-0.11
-10.17
-24.69
-38.93
-47.01
-45.07
-33.02
-14.13
6.73
25.26
39.00
47.38
51.07
50.93
47.63
41.81
34.60
27.61
22.51
20.26
20.51
22.05
23.36
23.31
21.50
18.28
14.30
10.01
6.54
3.44
-0.14
-4.70
-9.96
-15.08
-19.13
-21.44
-21.81
-20.66
-19.89
-21.39
-25.80
-32.25
-39.01
-44.50
-47.84
-49.01
-48.79
-49.54
-53.50
-61.51
-73.15
-87.54
-103.66
-119.76
-132.72
-131.56
-108.69
-65.76
-14.01
32.48
64.03
77.95
77.54
69.29
59.51
51.55
44.18
36.16
27.74
20.51
16.36
16.47
20.66
27.50
33.96
36.68
34.63
29.03
22.33
16.92
14.19
14.19
15.92
17.34
16.63
13.43
8.75
4.10
0.75
-0.81
-0.83
-0.13
0.12
-1.09
-3.84
-7.56
-11.35
-14.39
-16.24
-16.84
-16.39
-15.39
-14.31
-13.32
-12.40
-11.40
-10.19
-8.74
-7.12
-5.44
-3.81
-2.34
-1.00
0.21
1.31
2.31
3.21
4.01
4.73
5.36
5.89
6.28
6.44
6.33
5.93
5.26
4.37
3.34
2.20
1.01
-0.16
-1.18
-1.90
-2.23
-2.13
-1.69
-1.10
-0.56
-0.20
-0.06
-0.06
-0.11
-0.18
-0.30
-0.52
-0.84
-1.14
-1.22
-0.93
-0.28
0.57
1.36
1.88
2.09
2.12
2.17
2.36
2.70
3.08
3.37
3.49
3.50
3.49
3.55
3.73
4.02
4.40
4.82
5.20
5.41
5.36
4.98
4.33
3.58
2.97
2.69
2.81
3.29
3.98
4.72
5.40
5.95
6.36
6.65
6.80
6.81
6.71
6.53
6.34
6.21
6.14
6.12
6.12
6.09
6.05
6.04
6.09
6.20
6.32
6.34
6.22
5.95
5.57
5.17
4.82
4.57
4.39
4.26
4.13
3.95
3.68
3.29
2.78
2.19
1.56
0.92
0.29
-0.34
-0.88
-1.25
-1.32
-1.00
-0.35
0.52
1.42
2.23
2.91
3.48
4.01
4.53
5.02
5.43
5.70
5.75
5.52
5.02
4.32
3.55
2.84
2.28
1.91
1.69
1.59
1.58
1.70
1.95
2.29
2.62
2.85
2.91
2.81
2.59
2.31
1.97
1.56
1.06
0.55
0.10
-0.21
-0.37
-0.46
-0.57
-0.79
-1.11
-1.49
-1.83
-2.05
-2.10
-1.92
-1.50
-0.88
-0.13
0.67
1.43
2.12
2.72
3.22
3.59
3.79
3.80
3.64
3.40
3.20
3.09
3.07
3.04
2.92
2.65
2.32
2.04
1.93
2.02
2.23
2.42
2.49
2.42
2.26
2.13
2.09
2.11
2.08
1.87
1.44
0.85
0.25
-0.19
-0.42
-0.47
-0.47
-0.54
-0.77
-1.18
-1.76
-2.45
-3.15
-3.73
-4.01
-3.87
-3.29
-2.36
-1.28
-0.24
0.57
1.10
1.39
1.50
1.52
1.52
1.53
1.58
1.68
1.82
2.00
2.19
2.34
2.45
2.51
2.53
2.52
2.45
2.32
2.10
1.82
1.54
1.33
1.21
1.19
1.21
1.22
1.18
1.08
0.94
0.78
0.58
0.30
-0.10
-0.63
-1.25
-1.88
-2.43
-2.82
-3.00
-2.95
-2.69
-2.23
-1.63
-0.93
-0.23
0.42
0.94
1.30
1.48
1.50
1.43
1.32
1.24
1.21
1.23
1.26
1.25
1.22
1.19
1.20
1.26
1.31
1.24
0.96
0.42
-0.28
-0.97
-1.47
-1.68
-1.64
-1.50
-1.45
-1.58
-1.87
-2.18
-2.36
-2.34
-2.15
-1.91
-1.76
-1.75
-1.84
-1.93
-1.97
-1.96
-1.94
-1.93
-1.83
-1.53
-0.88
0.07
1.15
2.05
2.53
2.51
2.16
1.76
1.59
1.76
2.17
2.61
2.89
2.97
2.91
2.85
2.88
3.01
3.15
3.20
3.14
2.97
2.76
2.57
2.42
2.30
2.19
2.07
1.92
1.74
1.52
1.25
0.94
0.62
0.33
0.11
-0.04
-0.10
-0.11
-0.12
-0.20
-0.42
-0.80
-1.29
-1.80
-2.22
-2.42
-2.34
-1.97
-1.34
-0.56
0.20
0.82
1.20
1.34
1.32
1.25
1.19
1.14
1.03
0.83
0.55
0.30
0.22
0.38
0.78
1.32
1.85
2.25
2.45
2.45
2.25
1.91
1.49
1.07
0.75
0.58
0.58
0.69
0.82
0.89
0.88
0.82
0.76
0.73
0.71
0.63
0.45
0.18
-0.14
-0.44
-0.69
-0.89
-1.09
-1.29
-1.50
-1.67
-1.73
-1.65
-1.41
-1.02
-0.52
0.05
0.62
1.09
1.39
1.48
1.40
1.28
1.21
1.26
1.41
1.55
1.58
1.41
1.05
0.60
0.20
-0.06
-0.11
0.03
0.26
0.49
0.61
0.51
0.18
-0.38
-1.07
-1.78
-2.40
-2.86
-3.10
-3.11
-2.91
-2.50
-1.97
-1.41
-1.00
-0.86
-1.07
-1.57
-2.16
-2.66
-2.89
-2.82
-2.54
-2.16
-1.77
-1.42
-1.08
-0.76
-0.49
-0.30
-0.21
-0.17
-0.10
0.04
0.24
0.42
0.51
0.50
0.44
0.42
0.51
0.66
0.79
0.85
0.84
0.85
0.99
1.29
1.71
2.16
2.55
2.84
3.02
3.17
3.33
3.59
4.04
4.73
5.65
6.63
7.42
7.72
7.29
6.05
4.13
1.75
-0.80
-3.28
-5.49
-7.29
-8.51
-9.03
-8.79
-7.90
-6.57
-5.13
-3.89
-2.99
-2.40
-1.92
-1.30
-0.41
0.68
1.75
2.54
2.94
3.10
3.38
4.18
5.72
7.88
10.24
12.24
13.45
13.73
13.30
12.58
11.98
11.75
11.95
12.45
13.13
13.94
14.99
16.50
18.76
21.95
26.09
30.92
35.93
40.42
43.54
44.33
41.86
35.42
24.87
10.87
-5.06
-20.83
-34.40
-44.42
-50.51
-53.17
-53.37
-51.98
-49.51
-46.16
-42.08
-37.60
-33.24
-29.48
-26.55
-24.31
-22.36
-20.30
-17.94
-15.35
-12.78
-10.47
-8.51
-6.83
-5.22
-3.50
-1.56
0.57
2.71
4.62
6.05
6.83
6.98
6.66
6.11
5.55
5.12
4.81
4.57
4.34
4.08
3.81
3.52
3.17
2.66
1.95
1.06
0.09
-0.81
-1.53
-2.02
-2.31
-2.44
-2.45
-2.35
-2.17
-1.91
-1.64
-1.43
-1.32
-1.34
-1.44
-1.57
-1.68
-1.72
-1.67
-1.54
-1.33
-1.02
-0.60
-0.05
0.58
1.23
1.77
2.08
2.12
1.92
1.63
1.39
1.27
1.29
1.38
1.47
1.51
1.52
1.55
1.59
1.62
1.58
1.37
0.99
0.49
-0.04
-0.51
-0.90
-1.21
-1.48
-1.73
-1.97
-2.18
-2.36
-2.49
-2.58
-2.64
-2.66
-2.63
-2.51
-2.27
-1.87
-1.31
-0.61
0.11
0.74
1.16
1.29
1.14
0.80
0.40
0.05
-0.15
-0.16
0.02
0.36
0.80
1.26
1.66
1.97
2.18
2.35
2.53
2.76
3.00
3.17
3.19
3.06
2.85
2.70
2.72
3.00
3.57
4.39
5.43
6.63
7.89
9.01
9.73
9.81
9.07
7.55
5.42
2.99
0.50
-1.87
-4.05
-6.00
-7.68
-8.98
-9.77
-9.95
-9.51
-8.55
-7.21
-5.62
-3.87
-2.01
-0.14
1.65
3.25
4.60
5.71
6.63
7.43
8.09
8.50
8.54
8.18
7.47
6.56
5.56
4.53
3.42
2.16
0.75
-0.71
-2.05
-3.12
-3.86
-4.34
-4.71
-5.11
-5.59
-6.09
-6.50
-6.75
-6.81
-6.78
-6.75
-6.80
-6.89
-6.90
-6.64
-5.97
-4.80
-3.14
-1.02
1.56
4.60
8.08
11.85
15.62
19.05
21.85
23.86
25.08
25.62
25.56
24.93
23.58
21.36
18.22
14.31
10.02
5.87
2.31
-0.39
-2.26
-3.53
-4.49
-5.39
-6.33
-7.27
-8.14
-8.93
-9.67
-10.44
-11.26
-12.12
-12.91
-13.54
-13.95
-14.12
-14.08
-13.85
-13.48
-13.03
-12.57
-12.19
-11.90
-11.70
-11.53
-11.32
-11.05
-10.68
-10.22
-9.65
-8.95
-8.10
-7.11
-6.05
-4.99
-4.03
-3.28
-2.78
-2.54
-2.49
-2.52
-2.47
-2.23
-1.77
-1.16
-0.59
-0.22
-0.16
-0.35
-0.66
-0.93
-1.05
-1.02
-0.92
-0.82
-0.77
-0.74
-0.71
-0.64
-0.54
-0.44
-0.37
-0.31
-0.28
-0.24
-0.19
-0.15
-0.16
-0.24
-0.42
-0.68
-0.94
-1.15
-1.22
-1.17
-1.03
-0.87
-0.70
-0.50
-0.22
0.15
0.52
0.81
0.91
0.82
0.64
0.50
0.49
0.62
0.80
0.95
1.01
0.99
0.97
0.99
1.08
1.22
1.36
1.46
1.43
1.27
0.99
0.68
0.44
0.37
0.48
0.70
0.91
0.98
0.91
0.76
0.65
0.68
0.84
1.08
1.29
1.41
1.40
1.27
1.06
0.80
0.51
0.20
-0.09
-0.34
-0.50
-0.55
-0.52
-0.44
-0.41
-0.47
-0.67
-0.96
-1.23
-1.34
-1.22
-0.89
-0.48
-0.17
-0.09
-0.29
-0.70
-1.18
-1.60
-1.84
-1.88
-1.69
-1.32
-0.81
-0.23
0.31
0.73
0.93
0.91
0.67
0.26
-0.24
-0.73
-1.10
-1.24
-1.12
-0.80
-0.39
-0.07
0.07
-0.01
-0.24
-0.50
-0.71
-0.82
-0.81
-0.71
-0.54
-0.35
-0.21
-0.19
-0.30
-0.51
-0.73
-0.84
-0.82
-0.71
-0.61
-0.59
-0.67
-0.75
-0.73
-0.54
-0.23
0.09
0.29
0.31
0.19
0.06
0.06
0.24
0.57
0.92
1.19
1.28
1.20
1.02
0.81
0.63
0.52
0.46
0.42
0.38
0.32
0.21
0.08
-0.07
-0.19
-0.23
-0.18
-0.05
0.09
0.18
0.19
0.13
0.02
-0.11
-0.24
-0.34
-0.37
-0.30
-0.09
0.22
0.50
0.65
0.61
0.40
0.19
0.14
0.34
0.73
1.13
1.36
1.30
0.99
0.58
0.23
0.04
0.04
0.13
0.22
0.24
0.16
0.01
-0.19
-0.38
-0.54
-0.64
-0.66
-0.59
-0.44
-0.22
0.04
0.28
0.46
0.55
0.57
0.57
0.59
0.64
0.68
0.63
0.47
0.20
-0.08
-0.27
-0.33
-0.25
-0.11
0.00
0.04
0.01
-0.07
-0.17
-0.30
-0.45
-0.61
-0.67
-0.56
-0.23
0.26
0.77
1.15
1.30
1.23
1.04
0.83
0.66
0.52
0.37
0.21
0.05
-0.01
0.06
0.27
0.53
0.73
0.77
0.64
0.41
0.20
0.10
0.20
0.45
0.77
1.01
1.08
0.93
0.62
0.24
-0.11
-0.37
-0.50
-0.53
-0.47
-0.38
-0.33
-0.39
-0.61
-1.00
-1.47
-1.87
-2.08
-2.03
-1.75
-1.32
-0.84
-0.37
0.05
0.41
0.68
0.83
0.82
0.70
0.51
0.32
0.19
0.14
0.18
0.34
0.59
0.89
1.15
1.30
1.30
1.15
0.91
0.62
0.35
0.11
-0.08
-0.20
-0.21
-0.10
0.07
0.25
0.37
0.38
0.31
0.22
0.14
0.13
0.20
0.33
0.48
0.58
0.55
0.37
0.06
-0.30
-0.61
-0.78
-0.83
-0.81
-0.84
-0.96
-1.17
-1.36
-1.42
-1.26
-0.88
-0.38
0.11
0.43
0.52
0.37
0.08
-0.24
-0.47
-0.54
-0.45
-0.23
0.10
0.51
0.98
1.44
1.79
1.96
1.85
1.49
0.98
0.43
-0.04
-0.36
-0.51
-0.52
-0.43
-0.26
-0.09
0.05
0.10
0.04
-0.08
-0.21
-0.30
-0.33
-0.37
-0.46
-0.61
-0.78
-0.89
-0.89
-0.77
-0.65
-0.63
-0.77
-1.04
-1.31
-1.41
-1.25
-0.83
-0.29
0.21
0.55
0.66
0.62
0.53
0.47
0.50
0.58
0.65
0.64
0.56
0.45
0.41
0.52
0.77
1.12
1.42
1.54
1.41
1.03
0.48
-0.08
-0.52
-0.74
-0.68
-0.39
0.04
0.48
0.85
1.06
1.10
0.95
0.65
0.24
-0.21
-0.61
-0.90
-1.04
-1.03
-0.93
-0.80
-0.71
-0.68
-0.69
-0.72
-0.76
-0.81
-0.86
-0.87
-0.82
-0.65
-0.38
-0.08
0.17
0.31
0.33
0.32
0.34
0.45
0.62
0.73
0.71
0.51
0.23
0.00
-0.01
0.23
0.66
1.14
1.49
1.61
1.51
1.29
1.04
0.85
0.74
0.68
0.60
0.48
0.34
0.21
0.12
0.05
-0.02
-0.14
-0.32
-0.53
-0.73
-0.89
-0.98
-1.00
-0.98
-0.93
-0.86
-0.74
-0.54
-0.29
-0.05
0.08
0.02
-0.22
-0.56
-0.83
-0.89
-0.70
-0.37
-0.04
0.15
0.17
0.11
0.11
0.24
0.47
0.68
0.74
0.60
0.28
-0.10
-0.44
-0.67
-0.77
-0.76
-0.63
-0.41
-0.11
0.19
0.43
0.54
0.48
0.30
0.08
-0.07
-0.08
0.07
0.34
0.65
0.91
1.03
0.97
0.72
0.34
-0.08
-0.49
-0.83
-1.09
-1.21
-1.21
-1.06
-0.79
-0.44
-0.05
0.30
0.52
0.53
0.28
-0.22
-0.82
-1.32
-1.52
-1.31
-0.76
-0.08
0.50
0.80
0.81
0.66
0.48
0.37
0.35
0.38
0.42
0.44
0.43
0.40
0.30
0.13
-0.13
-0.42
-0.72
-0.95
-1.07
-1.03
-0.82
-0.46
0.01
0.48
0.85
1.04
0.99
0.75
0.41
0.09
-0.09
-0.09
0.07
0.34
0.60
0.75
0.72
0.50
0.18
-0.15
-0.37
-0.40
-0.28
-0.08
0.08
0.12
0.05
-0.05
-0.11
-0.10
-0.06
-0.08
-0.25
-0.55
-0.83
-0.91
-0.67
-0.12
0.54
1.07
1.25
1.03
0.54
0.01
-0.33
-0.36
-0.14
0.19
0.47
0.60
0.58
0.46
0.29
0.09
-0.13
-0.36
-0.55
-0.68
-0.69
-0.61
-0.45
-0.27
-0.12
-0.05
-0.10
-0.24
-0.40
-0.51
-0.45
-0.22
0.14
0.47
0.66
0.63
0.40
0.04
-0.34
-0.68
-0.96
-1.15
-1.24
-1.20
-1.02
-0.74
-0.44
-0.17
0.02
0.14
0.20
0.26
0.34
0.45
0.59
0.72
0.80
0.78
0.64
0.43
0.20
0.05
0.01
0.06
0.17
0.28
0.37
0.44
0.49
0.51
0.51
0.46
0.39
0.30
0.22
0.17
0.12
0.03
-0.12
-0.32
-0.53
-0.69
-0.72
-0.62
-0.42
-0.21
-0.05
0.03
0.07
0.11
0.13
0.10
-0.06
-0.39
-0.82
-1.19
-1.35
-1.19
-0.75
-0.17
0.36
0.71
0.85
0.85
0.77
0.67
0.56
0.43
0.26
0.08
-0.07
-0.18
-0.23
-0.24
-0.25
-0.27
-0.29
-0.30
-0.25
-0.15
0.00
0.19
0.38
0.54
0.63
0.62
0.50
0.31
0.08
-0.10
-0.20
-0.18
-0.07
0.09
0.21
0.25
0.19
0.06
-0.11
-0.28
-0.43
-0.57
-0.66
-0.70
-0.69
-0.64
-0.56
-0.49
-0.41
-0.33
-0.22
-0.08
0.09
0.25
0.41
0.55
0.66
0.71
0.64
0.42
0.10
-0.24
-0.46
-0.49
-0.32
-0.04
0.23
0.40
0.42
0.32
0.16
0.02
-0.07
-0.11
-0.14
-0.20
-0.29
-0.39
-0.44
-0.41
-0.27
-0.08
0.08
0.18
0.19
0.16
0.15
0.20
0.26
0.28
0.20
0.01
-0.20
-0.33
-0.34
-0.25
-0.20
-0.31
-0.63
-1.09
-1.51
-1.72
-1.64
-1.30
-0.86
-0.48
-0.24
-0.11
-0.01
0.15
0.37
0.61
0.80
0.90
0.92
0.91
0.91
0.95
1.02
1.09
1.11
1.06
0.96
0.83
0.70
0.57
0.44
0.30
0.14
0.01
-0.03
0.04
0.23
0.48
0.72
0.89
0.95
0.91
0.78
0.57
0.30
-0.01
-0.32
-0.55
-0.65
-0.59
-0.44
-0.32
-0.33
-0.50
-0.79
-1.06
-1.21
-1.18
-1.03
-0.86
-0.76
-0.71
-0.65
-0.51
-0.27
-0.05
0.02
-0.14
-0.50
-0.94
-1.28
-1.42
-1.34
-1.10
-0.80
-0.48
-0.17
0.12
0.36
0.52
0.55
0.46
0.30
0.15
0.10
0.18
0.38
0.58
0.68
0.62
0.39
0.06
-0.28
-0.56
-0.74
-0.81
-0.78
-0.70
-0.63
-0.60
-0.64
-0.70
-0.76
-0.77
-0.70
-0.57
-0.46
-0.45
-0.57
-0.80
-1.02
-1.18
-1.24
-1.23
-1.23
-1.32
-1.54
-1.86
-2.10
-2.12
-1.94
-1.69
-1.48
-1.45
-1.62
-1.92
-2.21
-2.19
-1.64
-0.64
0.68
2.32
4.18
6.23
8.43
10.83
13.71
17.32
21.44
25.80
30.27
34.70
39.02
43.23
47.32
51.45
55.66
59.42
62.54
65.37
68.47
72.17
76.20
77.99
75.11
68.68
59.44
47.65
34.62
21.60
9.19
-2.79
-14.94
-27.38
-39.67
-51.31
-61.55
-69.67
-75.39
-78.59
-79.04
-76.35
-70.16
-61.00
-50.85
-42.30
-37.57
-37.67
-41.93
-48.31
-54.26
-57.67
-57.64
-54.66
-49.80
-43.93
-37.63
-31.10
-24.52
-18.18
-12.44
-7.59
-3.82
-0.93
1.49
3.82
6.21
8.54
10.45
11.57
11.62
10.55
8.61
6.25
3.97
2.14
0.86
0.02
-0.64
-1.31
-2.04
-2.74
-3.29
-3.59
-3.67
-3.64
-3.64
-3.75
-3.99
-4.29
-4.55
-4.70
-4.70
-4.59
-4.41
-4.21
-4.01
-3.78
-3.47
-3.01
-2.40
-1.71
-1.04
-0.49
-0.09
0.18
0.42
0.70
1.05
1.45
1.85
2.18
2.37
2.40
2.29
2.09
1.90
1.80
1.81
1.90
2.02
2.10
2.13
2.17
2.26
2.40
2.52
2.54
2.38
2.08
1.74
1.51
1.45
1.50
1.55
1.46
1.18
0.77
0.37
0.08
-0.03
0.01
0.12
0.21
0.24
0.24
0.25
0.30
0.38
0.45
0.45
0.36
0.22
0.08
-0.00
-0.05
-0.11
-0.27
-0.55
-0.93
-1.31
-1.59
-1.74
-1.76
-1.75
-1.75
-1.78
-1.83
-1.82
-1.73
-1.54
-1.28
-1.00
-0.72
-0.46
-0.18
0.15
0.60
1.17
1.82
2.47
2.99
3.30
3.34
3.15
2.82
2.48
2.24
2.17
2.30
2.58
2.92
3.19
3.28
3.14
2.80
2.37
1.99
1.75
1.69
1.73
1.77
1.72
1.56
1.34
1.15
1.05
1.08
1.16
1.22
1.17
0.98
0.66
0.25
-0.19
-0.56
-0.80
-0.87
-0.75
-0.47
-0.10
0.28
0.58
0.79
0.92
1.04
1.21
1.42
1.61
1.65
1.45
1.01
0.43
-0.09
-0.39
-0.36
-0.06
0.37
0.76
1.03
1.17
1.26
1.35
1.45
1.52
1.48
1.33
1.10
0.89
0.80
0.83
0.95
1.05
1.04
0.85
0.52
0.15
-0.17
-0.36
-0.43
-0.47
-0.55
-0.70
-0.88
-0.99
-0.96
-0.79
-0.56
-0.37
-0.26
-0.19
-0.05
0.19
0.53
0.87
1.10
1.20
1.19
1.20
1.31
1.55
1.84
2.07
2.16
2.08
1.90
1.68
1.51
1.45
1.51
1.66
1.84
1.98
2.01
1.87
1.56
1.12
0.63
0.16
-0.22
-0.47
-0.56
-0.53
-0.43
-0.31
-0.25
-0.29
-0.41
-0.55
-0.64
-0.63
-0.47
-0.20
0.14
0.48
0.78
1.01
1.21
1.41
1.64
1.90
2.11
2.22
2.16
1.98
1.75
1.59
1.56
1.66
1.82
1.95
2.01
2.01
1.97
1.93
1.90
1.87
1.83
1.80
1.78
1.75
1.67
1.47
1.16
0.79
0.45
0.25
0.20
0.25
0.27
0.13
-0.23
-0.73
-1.23
-1.56
-1.62
-1.40
-0.98
-0.48
-0.01
0.38
0.70
0.98
1.23
1.46
1.66
1.84
2.02
2.19
2.35
2.45
2.43
2.24
1.94
1.63
1.48
1.56
1.85
2.21
2.46
2.48
2.27
1.93
1.63
1.46
1.45
1.54
1.62
1.63
1.53
1.37
1.17
0.98
0.77
0.51
0.16
-0.28
-0.72
-1.10
-1.33
-1.41
-1.40
-1.40
-1.43
-1.44
-1.31
-0.91
-0.17
0.80
1.81
2.62
3.07
3.11
2.80
2.25
1.57
0.86
0.18
-0.35
-0.62
-0.53
-0.05
0.70
1.49
2.04
2.14
1.76
1.05
0.29
-0.30
-0.59
-0.62
-0.57
-0.60
-0.80
-1.14
-1.50
-1.74
-1.77
-1.62
-1.38
-1.19
-1.16
-1.34
-1.69
-2.11
-2.49
-2.73
-2.78
-2.66
-2.40
-2.04
-1.61
-1.11
-0.57
-0.07
0.29
0.43
0.36
0.16
-0.06
-0.18
-0.14
0.03
0.28
0.56
0.85
1.16
1.50
1.85
2.11
2.21
2.10
1.80
1.40
0.98
0.61
0.31
0.10
-0.04
-0.08
-0.03
0.08
0.20
0.27
0.25
0.16
0.03
-0.13
-0.32
-0.55
-0.81
-1.05
-1.15
-0.99
-0.56
0.06
0.69
1.15
1.31
1.19
0.89
0.56
0.34
0.29
0.39
0.56
0.74
0.86
0.93
0.96
0.98
1.01
1.10
1.24
1.48
1.80
2.16
2.46
2.60
2.50
2.14
1.64
1.14
0.77
0.58
0.53
0.50
0.39
0.14
-0.18
-0.49
-0.70
-0.77
-0.75
-0.69
-0.65
-0.66
-0.67
-0.63
-0.49
-0.25
0.04
0.31
0.51
0.66
0.79
0.99
1.29
1.65
1.95
2.06
1.87
1.39
0.75
0.16
-0.15
-0.06
0.43
1.13
1.82
2.26
2.36
2.13
1.71
1.27
0.92
0.72
0.66
0.68
0.72
0.76
0.81
0.87
0.91
0.89
0.78
0.56
0.30
0.09
-0.01
0.03
0.11
0.14
0.03
-0.21
-0.49
-0.68
-0.69
-0.52
-0.24
0.04
0.24
0.34
0.35
0.33
0.34
0.41
0.58
0.81
1.07
1.31
1.47
1.52
1.44
1.23
0.94
0.61
0.33
0.15
0.12
0.25
0.48
0.69
0.77
0.65
0.37
0.01
-0.27
-0.42
-0.42
-0.35
-0.28
-0.25
-0.23
-0.19
-0.12
-0.08
-0.15
-0.35
-0.67
-0.98
-1.19
-1.24
-1.19
-1.17
-1.29
-1.60
-2.02
-2.46
-2.77
-2.85
-2.69
-2.32
-1.83
-1.31
-0.85
-0.48
-0.17
0.13
0.48
0.93
1.46
1.97
2.30
2.31
1.94
1.26
0.47
-0.19
-0.52
-0.41
0.10
0.86
1.66
2.25
2.43
2.16
1.58
0.99
0.77
1.35
3.04
5.96
10.07
15.10
20.80
26.78
32.49
37.31
40.60
41.90
41.06
38.38
34.39
29.88
25.61
22.08
19.57
18.15
17.73
18.16
19.28
20.73
22.35
24.03
25.69
27.36
29.13
30.99
32.90
34.69
33.89
28.43
17.46
1.98
-15.53
-32.01
-44.68
-52.68
-55.78
-54.55
-50.19
-44.56
-39.65
-37.17
-36.86
-38.37
-40.67
-42.19
-41.58
-37.93
-31.17
-22.04
-11.89
-2.18
5.69
10.84
13.08
12.58
9.95
6.07
1.92
-1.58
-3.69
-4.18
-3.10
-0.68
2.75
6.97
12.08
18.34
25.92
34.50
42.92
49.41
52.13
49.75
41.97
29.58
14.07
-2.95
-20.18
-36.69
-51.64
-64.03
-72.84
-77.48
-78.29
-76.71
-74.89
-74.92
-77.97
-83.90
-91.48
-98.95
-104.67
-107.50
-106.92
-102.83
-95.42
-85.10
-72.53
-58.71
-44.84
-32.12
-21.50
-13.51
-8.17
-4.99
-3.21
-1.91
-0.29
2.14
5.55
9.78
14.52
19.47
24.43
29.34
34.21
39.05
43.82
48.42
52.63
56.20
58.86
60.34
60.47
59.27
56.95
53.86
50.41
46.94
43.66
40.64
37.90
35.45
33.32
31.61
30.37
29.65
29.40
29.50
29.79
30.14
30.44
30.62
30.61
30.30
29.52
28.12
26.08
23.56
20.91
18.52
16.66
15.28
14.03
12.42
10.05
6.87
3.12
-0.75
-4.34
-7.33
-9.63
-11.33
-12.62
-13.76
-15.01
-16.60
-18.53
-20.58
-22.23
-22.95
-22.50
-21.15
-19.59
-18.65
-18.90
-20.37
-22.58
-24.64
-25.78
-25.71
-24.69
-23.12
-21.25
-19.00
-16.05
-12.07
-6.65
0.31
8.41
16.75
24.52
31.18
36.49
40.53
43.48
46.11
49.27
53.25
57.52
61.30
63.93
64.87
64.01
61.30
57.48
53.52
50.02
47.04
44.67
42.92
40.84
36.21
23.92
1.03
-30.47
-63.46
-91.67
-112.04
-123.78
-128.59
-126.39
-119.54
-110.22
-99.85
-89.31
-79.40
-70.72
-63.64
-58.37
-54.55
-51.64
-48.14
-42.56
-34.40
-24.48
-14.11
-4.35
4.41
12.55
20.52
29.04
38.28
47.51
55.25
60.21
61.96
60.98
58.39
55.27
52.57
50.74
49.59
48.57
47.09
44.86
41.87
38.29
34.31
30.21
26.25
22.56
19.02
15.37
11.28
6.57
1.35
-3.92
-8.45
-11.51
-12.80
-12.76
-12.62
-14.01
-18.45
-26.79
-38.85
-53.34
-68.10
-80.63
-88.61
-90.50
-85.90
-75.68
-61.78
-46.70
-32.85
-21.97
-14.79
-11.04
-9.76
-9.73
-9.90
-9.52
-8.26
-6.04
-2.96
0.78
4.93
9.30
13.78
18.42
23.39
28.82
34.60
40.18
44.67
46.98
46.24
42.15
35.11
26.21
16.87
8.53
2.21
-1.62
-3.08
-2.73
-1.31
0.49
2.20
3.65
4.92
6.22
7.79
9.73
11.97
14.30
16.41
18.00
18.92
19.15
18.87
18.38
18.03
18.04
18.48
19.22
19.95
20.30
19.89
18.51
16.10
12.83
9.02
5.09
1.51
-1.29
-2.92
-3.03
-1.35
2.36
8.10
15.61
24.17
32.58
39.34
42.92
42.24
37.13
28.54
18.45
9.41
3.86
3.39
8.37
17.83
29.89
42.31
53.21
61.49
66.98
70.10
71.45
71.29
69.41
65.27
58.46
49.00
37.45
24.78
12.04
0.16
-9.98
-17.55
-21.64
-21.57
-17.26
-9.58
-0.32
8.26
14.14
16.14
14.25
9.33
2.65
-4.76
-12.35
-19.98
-27.58
-34.75
-40.67
-44.25
-44.74
-42.12
-37.45
-32.35
-28.30
-26.12
-25.73
-26.39
-27.07
-26.81
-24.97
-21.52
-16.83
-11.56
-6.64
-3.14
-2.13
-4.16
-8.99
-15.57
-22.73
-29.09
-33.42
-34.93
-33.33
-29.11
-22.88
-15.24
-6.66
1.52
8.38
13.86
18.40
22.52
25.52
26.57
25.10
21.16
13.68
3.17
-7.98
-16.73
-20.89
-21.80
-22.08
-24.41
-30.51
-43.77
-64.87
-91.06
-117.80
-140.67
-159.55
-175.56
-189.94
-203.68
-221.28
-245.07
-273.32
-301.09
-321.92
-333.14
-332.97
-320.36
-272.14
-183.64
-72.10
34.65
110.02
159.71
191.49
210.97
221.23
223.83
216.79
200.46
178.61
156.62
139.20
125.53
113.77
102.89
92.98
81.84
68.58
54.40
41.79
33.46
28.88
27.35
28.76
33.09
38.14
41.87
43.51
43.56
43.30
42.59
41.49
40.35
39.52
38.21
35.74
32.16
28.14
24.57
21.24
17.78
13.88
9.53
4.75
0.05
-3.72
-5.74
-5.59
-3.60
-0.28
4.06
9.42
16.09
24.30
33.94
44.23
53.71
60.58
63.24
60.95
54.27
44.93
35.20
27.17
22.19
20.79
23.10
29.20
39.21
52.87
69.00
85.14
97.90
103.91
100.87
88.39
68.04
42.89
16.68
-7.15
-26.11
-39.12
-46.48
-49.58
-50.32
-50.46
-51.22
-53.08
-55.91
-59.19
-62.30
-64.74
-66.24
-66.81
-66.76
-66.59
-66.81
-67.82
-69.82
-72.79
-76.63
-81.19
-86.22
-91.24
-95.53
-98.27
-98.79
-96.77
-92.34
-85.92
-77.99
-68.93
-59.04
-48.60
-37.99
-27.68
-18.02
-9.22
-1.27
5.91
12.40
18.25
23.52
28.37
33.00
37.64
42.36
47.08
51.62
55.81
59.54
62.80
65.62
67.95
69.61
70.34
69.89
68.15
65.17
61.09
56.10
50.30
43.84
36.92
29.93
23.45
18.14
14.55
13.00
13.49
15.66
18.75
21.70
23.14
21.76
16.56
7.36
-5.03
-18.87
-32.10
-43.00
-50.81
-55.86
-59.13
-61.62
-63.71
-64.98
-64.43
-61.10
-54.70
-45.85
-35.96
-26.66
-19.25
-14.27
-11.48
-10.08
-9.15
-7.91
-5.88
-2.94
0.72
4.67
8.33
11.00
12.11
11.34
8.86
5.32
1.73
-0.92
-1.88
-0.95
1.56
5.01
8.66
11.93
14.61
16.89
19.30
22.43
26.58
31.45
35.93
38.42
37.46
32.54
24.58
15.81
8.84
5.54
6.17
9.39
13.01
15.17
15.01
12.96
10.18
8.02
7.49
9.20
13.42
20.16
29.10
39.44
49.85
58.75
64.77
67.31
66.81
64.55
62.07
60.44
59.51
57.73
52.54
41.28
22.22
-4.63
-37.37
-72.45
-105.52
-132.23
-149.12
-154.23
-147.57
-131.04
-108.07
-82.82
-59.33
-40.70
-28.61
-23.17
-23.18
-26.53
-30.96
-34.59
-36.47
-36.64
-35.88
-35.16
-35.04
-35.42
-35.63
-34.91
-32.82
-29.50
-25.51
-21.50
-17.86
-14.61
-11.50
-8.22
-4.59
-0.67
3.36
7.35
11.22
14.96
18.47
21.56
23.85
24.97
24.73
23.29
21.20
19.27
18.37
19.28
22.45
27.92
35.27
43.73
52.30
60.06
66.33
70.84
73.66
75.05
75.24
74.31
72.20
68.77
63.95
57.83
50.65
42.79
34.62
26.43
18.45
10.79
3.56
-3.13
-9.11
-14.10
-17.80
-19.99
-20.59
-19.74
-17.76
-15.05
-11.99
-8.83
-5.71
-2.67
0.25
2.95
5.30
7.08
8.02
7.83
6.29
3.29
-1.00
-6.17
-11.60
-16.59
-20.63
-23.46
-25.09
-25.74
-25.71
-25.27
-24.65
-24.02
-23.51
-23.18
-22.98
-22.77
-22.38
-21.67
-20.60
-19.27
-17.87
-16.63
-15.75
-15.36
-15.49
-16.10
-17.08
-18.28
-19.52
-20.60
-21.36
-21.64
-21.36
-20.47
-18.98
-16.97
-14.53
-11.77
-8.85
-5.90
-3.10
-0.60
1.48
3.09
4.22
4.95
5.35
5.52
5.59
5.71
6.12
7.06
8.78
11.35
14.76
18.84
23.38
28.16
33.05
37.92
42.65
47.06
50.93
54.01
56.14
57.27
57.48
56.96
55.87
54.28
52.11
49.17
45.26
40.32
34.50
28.09
21.49
15.02
8.91
3.27
-1.84
-6.39
-10.29
-13.52
-16.06
-17.98
-19.38
-20.37
-21.05
-21.47
-21.66
-21.65
-21.43
-21.01
-20.42
-19.73
-19.00
-18.30
-17.61
-16.86
-15.91
-14.59
-12.80
-10.58
-8.06
-5.45
-2.93
-0.60
1.53
3.49
5.26
6.76
7.91
8.67
9.08
9.25
9.26
9.18
9.01
8.71
8.34
7.99
7.78
7.76
7.84
7.82
7.52
6.85
5.88
4.81
3.81
2.97
2.21
1.42
0.48
-0.60
-1.72
-2.76
-3.70
-4.62
-5.67
-6.96
-8.43
-9.85
-10.86
-11.20
-10.79
-9.75
-8.40
-7.03
-5.83
-4.86
-4.03
-3.25
-2.47
-1.72
-1.09
-0.62
-0.33
-0.13
0.07
0.35
0.68
1.00
1.25
1.40
1.44
1.42
1.32
1.14
0.85
0.46
0.06
-0.25
-0.39
-0.34
-0.18
-0.05
-0.05
-0.23
-0.62
-1.16
-1.82
-2.51
-3.18
-3.77
-4.26
-4.64
-4.97
-5.31
-5.66
-5.97
-6.15
-6.08
-5.67
-4.89
-3.80
-2.49
-1.06
0.38
1.73
2.89
3.79
4.37
4.61
4.56
4.32
4.01
3.76
3.61
3.57
3.58
3.57
3.49
3.34
3.15
2.97
2.82
2.68
2.53
2.35
2.16
1.96
1.72
1.44
1.07
0.64
0.18
-0.22
-0.53
-0.77
-0.98
-1.25
-1.62
-2.11
-2.74
-3.47
-4.26
-5.03
-5.68
-6.08
-6.17
-5.94
-5.46
-4.82
-4.07
-3.23
-2.29
-1.23
-0.12
0.90
1.66
1.99
1.87
1.40
0.76
0.17
-0.21
-0.28
-0.08
0.28
0.70
1.05
1.27
1.35
1.32
1.25
1.16
1.05
0.89
0.63
0.28
-0.14
-0.53
-0.82
-0.97
-1.03
-1.12
-1.32
-1.69
-2.21
-2.81
-3.42
-3.98
-4.54
-5.13
-5.74
-6.29
-6.65
-6.69
-6.34
-5.62
-4.64
-3.52
-2.37
-1.27
-0.24
0.70
1.57
2.34
2.99
3.53
3.94
4.22
4.36
4.33
4.13
3.81
3.47
3.21
3.08
3.05
3.03
2.89
2.58
2.16
1.76
1.49
1.39
1.38
1.30
1.04
0.59
0.01
-0.59
-1.12
-1.58
-1.98
-2.39
-2.88
-3.45
-4.08
-4.71
-5.25
-5.66
-5.92
-6.08
-6.16
-6.15
-5.99
-5.60
-4.90
-3.95
-2.84
-1.74
-0.75
0.06
0.71
1.23
1.61
1.86
1.95
1.92
1.81
1.72
1.72
1.85
2.11
2.39
2.60
2.68
2.59
2.38
2.13
1.89
1.68
1.48
1.27
1.09
0.97
0.93
0.93
0.85
0.58
0.08
-0.56
-1.20
-1.67
-1.96
-2.15
-2.35
-2.65
-3.00
-3.29
-3.44
-3.48
-3.55
-3.81
-4.35
-5.05
-5.71
-6.07
-5.99
-5.45
-4.60
-3.62
-2.64
-1.71
-0.84
-0.01
0.77
1.44
1.98
2.37
2.61
2.73
2.75
2.68
2.53
2.32
2.10
1.93
1.85
1.88
1.99
2.15
2.33
2.48
2.59
2.62
2.55
2.35
2.02
1.60
1.11
0.58
0.04
-0.46
-0.91
-1.25
-1.48
-1.65
-1.82
-2.09
-2.50
-3.02
-3.55
-3.96
-4.17
-4.19
-4.13
-4.13
-4.31
-4.71
-5.26
-5.80
-6.13
-6.07
-5.54
-4.53
-3.21
-1.78
-0.46
0.58
1.27
1.66
1.84
1.91
1.93
1.92
1.92
1.95
2.07
2.31
2.69
3.22
3.88
4.59
5.25
5.71
5.87
5.69
5.21
4.55
3.84
3.15
2.48
1.80
1.10
0.44
-0.11
-0.48
-0.69
-0.84
-1.07
-1.48
-2.05
-2.66
-3.17
-3.45
-3.50
-3.37
-3.20
-3.11
-3.17
-3.38
-3.71
-4.05
-4.27
-4.25
-3.89
-3.16
-2.16
-1.02
0.07
0.99
1.68
2.22
2.72
3.23
3.78
4.30
4.69
4.90
4.94
4.88
4.78
4.68
4.54
4.28
3.86
3.29
2.69
2.17
1.86
1.77
1.84
1.96
2.05
2.06
2.03
2.02
2.08
2.16
2.22
2.19
2.04
1.80
1.51
1.21
0.92
0.65
0.39
0.14
-0.07
-0.23
-0.33
-0.41
-0.52
-0.68
-0.91
-1.22
-1.59
-1.98
-2.37
-2.75
-3.08
-3.37
-3.62
-3.85
-4.06
-4.22
-4.25
-4.04
-3.52
-2.69
-1.66
-0.58
0.44
1.31
2.03
2.65
3.20
3.67
4.05
4.31
4.49
4.62
4.73
4.85
4.93
4.94
4.88
4.74
4.55
4.32
4.06
3.81
3.63
3.54
3.53
3.52
3.43
3.18
2.76
2.26
1.78
1.40
1.12
0.86
0.52
0.04
-0.55
-1.14
-1.58
-1.78
-1.72
-1.48
-1.18
-0.94
-0.85
-0.91
-1.08
-1.34
-1.65
-1.97
-2.28
-2.52
-2.70
-2.84
-3.00
-3.27
-3.70
-4.30
-5.02
-5.75
-6.38
-6.82
-7.06
-7.15
-7.18
-7.23
-7.27
-7.21
-6.89
-6.23
-5.24
-4.03
-2.78
-1.58
-0.42
0.78
2.11
3.56
4.99
6.22
7.08
7.52
7.60
7.47
7.29
7.14
7.07
6.99
6.83
6.48
5.92
5.17
4.33
3.52
2.84
2.34
1.98
1.76
1.63
1.55
1.51
1.47
1.36
1.12
0.67
-0.02
-0.93
-1.98
-3.05
-4.01
-4.73
-5.14
-5.26
-5.16
-4.97
-4.81
-4.77
-4.85
-5.06
-5.38
-5.79
-6.26
-6.73
-7.08
-7.18
-6.93
-6.36
-5.59
-4.81
-4.18
-3.75
-3.48
-3.26
-2.93
-2.37
-1.51
-0.36
0.99
2.37
3.55
4.35
4.69
4.62
4.31
4.00
3.88
4.04
4.40
4.79
5.02
4.94
4.50
3.78
2.95
2.16
1.53
1.12
0.91
0.88
0.96
1.13
1.33
1.54
1.73
1.84
1.84
1.68
1.40
1.05
0.74
0.58
0.59
0.70
0.77
0.68
0.43
0.11
-0.15
-0.25
-0.22
-0.18
-0.25
-0.46
-0.73
-0.90
-0.83
-0.48
0.04
0.55
0.86
0.88
0.58
0.04
-0.65
-1.39
-2.11
-2.81
-3.48
-4.10
-4.65
-5.15
-5.61
-6.07
-6.53
-7.00
-7.41
-7.73
-7.89
-7.89
-7.71
-7.31
-6.70
-5.91
-5.02
-4.13
-3.30
-2.54
-1.78
-0.94
0.01
0.98
1.83
2.43
2.76
2.90
3.00
3.14
3.35
3.55
3.66
3.70
3.73
3.87
4.16
4.53
4.83
4.89
4.64
4.11
3.50
2.97
2.66
2.54
2.52
2.48
2.33
2.09
1.83
1.65
1.58
1.58
1.58
1.50
1.29
0.97
0.57
0.17
-0.16
-0.37
-0.47
-0.51
-0.51
-0.50
-0.46
-0.39
-0.32
-0.30
-0.42
-0.71
-1.15
-1.68
-2.16
-2.50
-2.64
-2.58
-2.35
-1.99
-1.51
-0.97
-0.44
0.03
0.35
0.51
0.54
0.52
0.54
0.67
0.96
1.40
1.90
2.36
2.68
2.79
2.71
2.49
2.22
2.04
2.02
2.17
2.39
2.56
2.57
2.43
2.19
2.03
2.12
2.54
3.20
3.83
4.20
4.19
3.86
3.44
3.18
3.40
4.17
5.22
6.07
6.36
6.04
5.39
4.88
4.87
5.82
7.73
10.03
11.84
12.53
12.05
10.87
9.73
9.34
10.58
13.64
17.80
21.63
23.89
24.20
23.05
21.54
20.98
23.03
28.51
36.92
46.48
55.10
60.82
61.89
56.78
40.93
13.85
-19.11
-48.94
-68.72
-76.70
-75.47
-69.37
-62.16
-55.63
-48.90
-40.89
-30.70
-19.28
-8.57
-0.32
4.62
6.57
6.75
7.07
8.69
11.50
13.90
14.56
13.03
9.92
6.50
3.95
3.05
3.55
4.34
4.02
1.99
-1.25
-4.42
-6.17
-5.66
-2.70
2.23
8.20
14.11
19.20
23.04
25.54
26.78
26.87
25.99
24.27
21.82
18.71
15.09
11.26
7.60
4.49
2.25
1.03
0.73
1.10
1.71
2.17
2.17
1.48
-0.05
-2.61
-6.38
-11.49
-17.85
-25.10
-32.59
-39.60
-45.50
-49.97
-52.96
-54.68
-55.45
-55.60
-55.48
-55.39
-55.62
-56.37
-57.69
-59.48
-61.54
-63.64
-65.59
-67.20
-68.24
-68.38
-67.17
-64.11
-58.86
-51.27
-41.55
-30.11
-17.51
-4.39
8.57
20.69
31.30
39.81
45.81
49.13
49.76
47.72
43.05
35.88
26.65
16.28
6.11
-2.51
-8.65
-12.08
-13.28
-13.03
-12.08
-10.85
-9.51
-8.16
-6.96
-6.04
-5.38
-4.70
-3.50
-1.37
1.78
5.61
9.50
12.82
15.19
16.60
17.35
17.83
18.35
19.04
19.80
20.36
20.45
19.84
18.44
16.29
13.56
10.46
7.20
3.96
0.84
-2.02
-4.52
-6.48
-7.72
-8.10
-7.62
-6.40
-4.71
-2.83
-0.97
0.75
2.32
3.77
5.10
6.31
7.41
8.38
9.21
9.82
10.12
10.00
9.39
8.35
6.97
5.35
3.54
1.58
-0.48
-2.51
-4.30
-5.65
-6.38
-6.45
-5.91
-4.89
-3.49
-1.80
0.09
2.14
4.29
6.50
8.68
10.72
12.46
13.76
14.52
14.78
14.65
14.25
13.68
12.96
12.08
11.05
9.98
8.99
8.22
7.73
7.44
7.21
6.86
6.27
5.43
4.42
3.39
2.46
1.74
1.25
0.95
0.77
0.63
0.50
0.33
0.07
-0.31
-0.84
-1.54
-2.31
-3.04
-3.57
-3.74
-3.52
-2.94
-2.13
-1.24
-0.44
0.20
0.65
0.98
1.26
1.56
1.94
2.42
2.97
3.58
4.23
4.90
5.55
6.07
6.33
6.22
5.73
5.02
4.34
3.96
4.03
4.47
5.07
5.58
5.88
5.94
5.90
5.86
5.88
5.90
5.84
5.66
5.37
5.06
4.80
4.64
4.55
4.45
4.23
3.83
3.27
2.63
2.01
1.53
1.19
0.96
0.75
0.47
0.06
-0.47
-1.08
-1.70
-2.30
-2.86
-3.41
-3.99
-4.56
-5.07
-5.39
-5.47
-5.29
-4.92
-4.45
-3.96
-3.50
-3.07
-2.65
-2.24
-1.86
-1.51
-1.19
-0.85
-0.46
-0.06
0.30
0.54
0.65
0.64
0.57
0.51
0.47
0.46
0.45
0.45
0.44
0.42
0.38
0.31
0.19
0.04
-0.13
-0.33
-0.52
-0.68
-0.77
-0.78
-0.71
-0.57
-0.43
-0.30
-0.23
-0.21
-0.22
-0.17
-0.03
0.24
0.61
0.98
1.19
1.13
0.76
0.20
-0.38
-0.79
-0.98
-1.02
-1.06
-1.23
-1.55
-1.95
-2.31
-2.58
-2.84
-3.17
-3.66
-4.30
-4.99
-5.57
-5.98
-6.21
-6.31
-6.39
-6.54
-6.79
-7.14
-7.49
-7.75
-7.77
-7.47
-6.86
-6.04
-5.17
-4.37
-3.66
-2.94
-2.09
-1.03
0.21
1.48
2.60
3.46
4.10
4.63
5.19
5.81
6.43
6.93
7.17
7.13
6.90
6.62
6.40
6.26
6.14
5.96
5.73
5.49
5.31
5.25
5.27
5.27
5.16
4.88
4.47
4.01
3.62
3.34
3.20
3.16
3.17
3.18
3.10
2.86
2.43
1.87
1.27
0.78
0.49
0.38
0.37
0.35
0.22
-0.05
-0.43
-0.86
-1.29
-1.73
-2.17
-2.59
-2.95
-3.23
-3.40
-3.43
-3.33
-3.07
-2.68
-2.20
-1.71
-1.32
-1.07
-0.94
-0.80
-0.53
-0.05
0.61
1.32
1.93
2.29
2.40
2.33
2.20
2.15
2.22
2.41
2.62
2.78
2.83
2.79
2.69
2.56
2.39
2.13
1.75
1.27
0.79
0.43
0.28
0.36
0.58
0.84
1.04
1.19
1.31
1.44
1.57
1.67
1.65
1.49
1.20
0.83
0.44
0.06
-0.29
-0.57
-0.75
-0.80
-0.73
-0.58
-0.47
-0.49
-0.72
-1.13
-1.66
-2.17
-2.55
-2.74
-2.78
-2.73
-2.68
-2.71
-2.82
-2.97
-3.12
-3.24
-3.30
-3.34
-3.39
-3.48
-3.62
-3.73
-3.71
-3.45
-2.93
-2.23
-1.50
-0.86
-0.36
0.08
0.60
1.27
2.04
2.73
3.15
3.22
3.06
2.90
2.93
3.19
3.56
3.84
3.90
3.74
3.50
3.35
3.39
3.61
3.93
4.22
4.37
4.30
4.02
3.55
2.98
2.44
2.04
1.86
1.92
2.11
2.32
2.45
2.45
2.36
2.23
2.08
1.89
1.58
1.11
0.50
-0.17
-0.73
-1.11
-1.30
-1.39
-1.51
-1.73
-2.01
-2.26
-2.41
-2.46
-2.49
-2.57
-2.73
-2.95
-3.17
-3.35
-3.44
-3.44
-3.35
-3.17
-2.92
-2.67
-2.49
-2.41
-2.39
-2.35
-2.18
-1.81
-1.23
-0.48
0.39
1.36
2.42
3.47
4.36
4.88
4.91
4.47
3.75
3.03
2.59
2.51
2.71
2.96
3.04
2.82
2.35
1.75
1.19
0.76
0.43
0.13
-0.25
-0.74
-1.31
-1.86
-2.31
-2.60
-2.73
-2.72
-2.59
-2.38
-2.16
-2.01
-2.02
-2.18
-2.46
-2.73
-2.89
-2.90
-2.77
-2.57
-2.37
-2.19
-2.03
-1.87
-1.72
-1.60
-1.54
-1.53
-1.55
-1.56
-1.58
-1.65
-1.82
-2.11
-2.45
-2.78
-3.03
-3.14
-3.11
-2.93
-2.61
-2.17
-1.60
-0.94
-0.24
0.40
0.88
1.13
1.18
1.09
1.00
1.01
1.16
1.40
1.63
1.73
1.63
1.34
0.94
0.56
0.29
0.19
0.23
0.36
0.51
0.68
0.91
1.23
1.66
2.16
2.63
2.96
3.12
3.12
3.06
3.07
3.26
3.65
4.16
4.62
4.85
4.71
4.18
3.39
2.54
1.78
1.20
0.77
0.45
0.26
0.25
0.46
0.83
1.17
1.24
0.90
0.16
-0.76
-1.57
-2.06
-2.17
-2.01
-1.77
-1.66
-1.77
-2.11
-2.59
-3.07
-3.44
-3.66
-3.73
-3.74
-3.76
-3.81
-3.85
-3.79
-3.55
-3.14
-2.63
-2.12
-1.64
-1.13
-0.52
0.23
1.04
1.73
2.11
2.11
1.78
1.29
0.84
0.51
0.31
0.17
0.04
-0.10
-0.20
-0.22
-0.20
-0.18
-0.21
-0.29
-0.37
-0.35
-0.18
0.11
0.46
0.75
0.91
0.95
0.90
0.81
0.67
0.47
0.15
-0.28
-0.76
-1.21
-1.54
-1.72
-1.77
-1.78
-1.84
-2.02
-2.34
-2.78
-3.35
-4.00
-4.68
-5.31
-5.75
-5.87
-5.63
-5.08
-4.36
-3.70
-3.26
-3.11
-3.13
-3.13
-2.92
-2.35
-1.42
-0.25
0.97
2.05
2.85
3.31
3.47
3.42
3.24
3.01
2.78
2.55
2.30
2.08
1.91
1.86
1.99
2.25
2.56
2.79
2.86
2.75
2.55
2.32
2.10
1.84
1.46
0.94
0.36
-0.07
-0.21
-0.04
0.30
0.58
0.61
0.37
-0.00
-0.34
-0.55
-0.65
-0.78
-1.03
-1.37
-1.70
-1.88
-1.84
-1.63
-1.38
-1.20
-1.12
-1.12
-1.19
-1.28
-1.42
-1.59
-1.76
-1.88
-1.93
-1.95
-1.99
-2.07
-2.16
-2.16
-2.01
-1.69
-1.27
-0.83
-0.40
0.08
0.70
1.49
2.39
3.24
3.90
4.28
4.40
4.32
4.10
3.78
3.40
2.97
2.59
2.32
2.20
2.20
2.24
2.23
2.16
2.03
1.89
1.78
1.67
1.52
1.32
1.09
0.88
0.77
0.77
0.87
0.99
1.06
1.04
0.91
0.68
0.35
-0.10
-0.64
-1.21
-1.73
-2.17
-2.50
-2.80
-3.13
-3.52
-3.91
-4.22
-4.35
-4.31
-4.19
-4.09
-4.05
-4.06
-4.03
-3.88
-3.60
-3.27
-2.98
-2.79
-2.68
-2.58
-2.39
-2.03
-1.50
-0.82
-0.08
0.60
1.13
1.45
1.59
1.64
1.69
1.78
1.89
1.95
1.91
1.77
1.56
1.36
1.22
1.18
1.24
1.37
1.52
1.68
1.80
1.89
1.93
1.95
1.94
1.89
1.75
1.44
0.97
0.41
-0.13
-0.50
-0.65
-0.61
-0.48
-0.40
-0.46
-0.68
-1.01
-1.35
-1.61
-1.71
-1.64
-1.45
-1.21
-0.97
-0.80
-0.73
-0.76
-0.88
-1.08
-1.32
-1.59
-1.88
-2.18
-2.49
-2.80
-3.11
-3.39
-3.62
-3.77
-3.83
-3.78
-3.62
-3.31
-2.80
-2.07
-1.12
-0.02
1.13
2.21
3.13
3.80
4.18
4.27
4.09
3.74
3.33
2.96
2.70
2.55
2.49
2.46
2.47
2.49
2.56
2.65
2.73
2.74
2.66
2.51
2.35
2.24
2.19
2.18
2.17
2.13
2.04
1.89
1.65
1.31
0.89
0.44
0.05
-0.20
-0.27
-0.20
-0.07
0.05
0.11
0.11
0.09
0.03
-0.04
-0.14
-0.25
-0.33
-0.37
-0.37
-0.33
-0.30
-0.30
-0.36
-0.49
-0.70
-1.04
-1.48
-2.01
-2.57
-3.09
-3.51
-3.79
-3.95
-3.98
-3.89
-3.72
-3.50
-3.28
-3.09
-2.94
-2.75
-2.47
-2.05
-1.48
-0.83
-0.19
0.36
0.79
1.10
1.29
1.37
1.34
1.20
0.98
0.72
0.46
0.23
0.06
-0.05
-0.06
0.05
0.31
0.68
1.10
1.46
1.68
1.74
1.69
1.58
1.47
1.35
1.15
0.81
0.33
-0.21
-0.69
-1.04
-1.25
-1.34
-1.37
-1.36
-1.27
-1.10
-0.86
-0.64
-0.55
-0.69
-1.07
-1.60
-2.15
-2.58
-2.82
-2.89
-2.82
-2.71
-2.62
-2.58
-2.58
-2.62
-2.69
-2.80
-2.95
-3.11
-3.22
-3.24
-3.12
-2.89
-2.55
-2.14
-1.66
-1.14
-0.57
0.01
0.59
1.14
1.64
2.05
2.36
2.55
2.67
2.80
3.01
3.34
3.77
4.19
4.51
4.68
4.78
4.92
5.19
5.61
6.15
6.72
7.31
7.93
8.60
9.34
10.07
10.74
11.33
11.92
12.69
13.80
15.28
16.99
18.63
19.94
20.88
21.69
22.84
24.78
27.68
31.32
35.19
38.82
42.19
45.84
50.67
57.37
65.89
75.21
83.60
89.30
91.30
89.75
85.99
82.06
80.01
81.35
86.65
95.43
106.12
116.03
121.73
119.61
107.08
83.66
51.65
15.85
-17.88
-44.55
-61.79
-70.45
-73.82
-75.86
-79.26
-84.49
-90.09
-93.87
-94.34
-91.43
-86.35
-80.67
-75.50
-71.08
-67.04
-62.99
-58.99
-55.60
-53.57
-53.26
-54.33
-55.76
-56.25
-54.70
-50.68
-44.60
-37.47
-30.40
-24.21
-19.08
-14.69
-10.64
-6.87
-3.79
-2.13
-2.38
-4.43
-7.46
-10.36
-12.18
-12.60
-12.00
-11.14
-10.77
-11.26
-12.53
-14.09
-15.33
-15.64
-14.64
-12.23
-8.66
-4.43
-0.23
3.18
5.14
5.13
2.84
-1.78
-8.37
-16.17
-24.07
-30.89
-35.65
-37.87
-37.61
-35.37
-31.79
-27.46
-22.84
-18.23
-13.83
-9.73
-5.97
-2.41
1.19
5.19
9.92
15.40
21.08
25.72
27.54
24.78
16.51
3.27
-12.84
-28.71
-41.29
-48.57
-50.16
-47.08
-41.00
-33.48
-25.41
-17.06
-8.42
0.45
9.15
17.10
23.79
28.94
32.54
34.56
34.68
32.17
26.13
16.01
2.21
-13.59
-28.73
-40.30
-46.18
-45.76
-40.03
-31.13
-21.42
-12.67
-5.66
-0.24
4.30
8.71
13.47
18.64
24.03
29.32
34.26
38.70
42.56
45.67
47.61
47.66
45.02
39.14
30.00
18.26
5.09
-8.25
-20.76
-31.79
-40.93
-47.82
-52.07
-53.50
-52.44
-49.82
-46.97
-45.02
-44.48
-45.00
-45.73
-45.89
-45.26
-44.26
-43.61
-43.69
-44.13
-43.76
-41.03
-34.70
-24.43
-11.15
3.19
16.18
25.70
30.55
30.80
27.60
22.66
17.54
13.11
9.28
5.20
-0.15
-7.37
-16.22
-25.53
-33.67
-39.13
-41.09
-39.67
-35.83
-31.00
-26.50
-23.02
-20.35
-17.50
-13.07
-5.98
4.02
16.14
28.71
39.58
46.61
48.19
43.75
34.03
21.05
7.55
-3.88
-11.64
-15.53
-16.46
-15.58
-13.46
-9.73
-3.50
5.74
17.50
30.18
41.64
50.06
54.56
55.27
53.02
48.77
43.30
36.96
29.72
21.42
11.99
1.66
-8.94
-18.93
-27.32
-33.26
-36.23
-36.21
-33.59
-29.24
-24.24
-19.75
-16.77
-15.93
-17.32
-20.47
-24.35
-27.54
-28.57
-26.32
-20.46
-11.65
-1.40
8.34
15.79
19.84
20.28
17.73
13.29
8.17
3.38
-0.34
-2.59
-3.26
-2.44
-0.46
2.24
5.15
7.80
9.91
11.37
12.29
12.86
13.26
13.59
13.80
13.81
13.54
13.00
12.33
11.72
11.33
11.23
11.36
11.55
11.66
11.58
11.34
11.05
10.81
10.68
10.61
10.51
10.32
10.03
9.71
9.40
9.13
8.84
8.47
7.98
7.35
6.58
5.69
4.66
3.53
2.37
1.36
0.72
0.68
1.35
2.68
4.48
6.40
8.09
9.23
9.67
9.39
8.52
7.22
5.64
3.85
1.94
0.03
-1.68
-2.96
-3.67
-3.79
-3.50
-3.01
-2.50
-1.99
-1.40
-0.58
0.50
1.78
3.06
4.16
4.99
5.55
5.92
6.19
6.41
6.53
6.54
6.45
6.33
6.31
6.47
6.82
7.28
7.73
8.06
8.25
8.35
8.40
8.41
8.32
8.10
7.73
7.26
6.80
6.38
6.02
5.68
5.36
5.07
4.89
4.84
4.85
4.79
4.51
3.96
3.23
2.53
2.02
1.76
1.63
1.46
1.09
0.50
-0.24
-0.94
-1.46
-1.75
-1.81
-1.65
-1.26
-0.57
0.46
1.80
3.32
4.83
6.13
7.12
7.82
8.32
8.77
9.25
9.77
10.30
10.75
11.11
11.33
11.42
11.35
11.11
10.71
10.19
9.63
9.11
8.67
8.29
7.95
7.58
7.11
6.50
5.78
5.03
4.34
3.83
3.54
3.44
3.41
3.34
3.12
2.74
2.23
1.66
1.07
0.46
-0.17
-0.85
-1.55
-2.24
-2.86
-3.40
-3.86
-4.29
-4.73
-5.21
-5.75
-6.34
-6.94
-7.54
-8.12
-8.70
-9.25
-9.74
-10.10
-10.20
-9.95
-9.30
-8.35
-7.27
-6.31
-5.67
-5.43
-5.54
-5.80
-5.96
-5.86
-5.44
-4.80
-4.07
-3.40
-2.82
-2.34
-1.88
-1.38
-0.81
-0.09
0.79
1.88
3.14
4.43
5.54
6.28
6.51
6.22
5.53
4.64
3.78
3.10
2.73
2.70
2.99
3.49
4.10
4.73
5.34
5.97
6.66
7.38
8.02
8.40
8.35
7.79
6.79
5.56
4.35
3.37
2.71
2.32
2.04
1.71
1.26
0.74
0.25
-0.11
-0.33
-0.49
-0.72
-1.07
-1.54
-2.04
-2.50
-2.88
-3.20
-3.47
-3.64
-3.62
-3.33
-2.76
-1.97
-1.12
-0.38
0.14
0.34
0.25
-0.10
-0.64
-1.32
-2.08
-2.85
-3.53
-4.00
-4.15
-3.92
-3.35
-2.60
-1.90
-1.43
-1.23
-1.18
-1.07
-0.76
-0.21
0.49
1.17
1.74
2.18
2.54
2.90
3.30
3.72
4.12
4.46
4.70
4.79
4.66
4.30
3.71
3.01
2.31
1.77
1.48
1.45
1.65
2.02
2.44
2.78
2.86
2.52
1.68
0.42
-1.09
-2.57
-3.84
-4.83
-5.58
-6.18
-6.71
-7.17
-7.48
-7.59
-7.43
-6.99
-6.29
-5.34
-4.21
-3.00
-1.85
-0.87
-0.15
0.34
0.68
0.99
1.38
1.86
2.38
2.85
3.17
3.28
3.22
3.07
2.92
2.85
2.84
2.85
2.83
2.80
2.80
2.88
3.01
3.10
3.04
2.77
2.33
1.85
1.42
1.08
0.77
0.39
-0.14
-0.82
-1.57
-2.26
-2.77
-3.03
-3.04
-2.84
-2.52
-2.22
-2.04
-2.04
-2.21
-2.44
-2.62
-2.64
-2.49
-2.20
-1.89
-1.68
-1.64
-1.79
-2.06
-2.33
-2.49
-2.45
-2.21
-1.88
-1.56
-1.38
-1.39
-1.56
-1.82
-2.06
-2.22
-2.27
-2.20
-2.02
-1.76
-1.42
-1.01
-0.55
-0.05
0.48
1.01
1.55
2.09
2.61
3.09
3.47
3.71
3.78
3.67
3.46
3.20
2.97
2.80
2.71
2.72
2.83
3.01
3.19
3.29
3.26
3.08
2.83
2.58
2.38
2.21
2.02
1.77
1.48
1.23
1.11
1.13
1.24
1.34
1.37
1.31
1.21
1.11
1.02
0.88
0.64
0.30
-0.07
-0.36
-0.50
-0.49
-0.43
-0.40
-0.49
-0.69
-0.97
-1.31
-1.69
-2.13
-2.63
-3.15
-3.63
-3.99
-4.20
-4.25
-4.17
-3.97
-3.71
-3.41
-3.09
-2.78
-2.50
-2.26
-2.05
-1.86
-1.68
-1.48
-1.23
-0.93
-0.57
-0.18
0.22
0.59
0.90
1.15
1.36
1.56
1.73
1.86
1.93
1.92
1.85
1.76
1.71
1.74
1.82
1.91
1.93
1.86
1.73
1.62
1.59
1.63
1.66
1.59
1.35
0.97
0.51
0.10
-0.20
-0.40
-0.54
-0.70
-0.91
-1.13
-1.32
-1.42
-1.44
-1.42
-1.45
-1.59
-1.86
-2.23
-2.63
-3.03
-3.37
-3.67
-3.94
-4.18
-4.43
-4.68
-4.96
-5.27
-5.62
-5.99
-6.30
-6.45
-6.37
-6.02
-5.42
-4.64
-3.77
-2.90
-2.07
-1.32
-0.64
0.02
0.66
1.29
1.87
2.37
2.79
3.17
3.58
4.05
4.56
5.00
5.27
5.28
5.05
4.67
4.28
3.99
3.81
3.71
3.64
3.59
3.56
3.54
3.53
3.45
3.25
2.94
2.60
2.35
2.30
2.49
2.85
3.21
3.38
3.25
2.82
2.17
1.47
0.85
0.41
0.15
0.02
-0.05
-0.13
-0.27
-0.46
-0.67
-0.85
-0.95
-0.96
-0.90
-0.83
-0.82
-0.92
-1.14
-1.44
-1.76
-2.01
-2.14
-2.14
-2.06
-1.95
-1.83
-1.71
-1.57
-1.40
-1.23
-1.07
-0.91
-0.71
-0.38
0.08
0.62
1.12
1.43
1.53
1.46
1.36
1.36
1.46
1.59
1.61
1.44
1.11
0.76
0.51
0.44
0.51
0.55
0.44
0.14
-0.26
-0.54
-0.54
-0.19
0.37
0.90
1.17
1.09
0.72
0.27
-0.07
-0.21
-0.19
-0.16
-0.23
-0.42
-0.69
-0.94
-1.14
-1.31
-1.53
-1.83
-2.17
-2.44
-2.50
-2.32
-1.98
-1.65
-1.51
-1.62
-1.92
-2.31
-2.64
-2.87
-2.96
-2.93
-2.79
-2.54
-2.17
-1.71
-1.20
-0.71
-0.27
0.08
0.30
0.36
0.26
0.04
-0.17
-0.26
-0.12
0.28
0.81
1.33
1.65
1.69
1.45
1.01
0.53
0.15
-0.02
0.06
0.37
0.83
1.31
1.71
1.96
2.03
1.96
1.79
1.51
1.15
0.72
0.26
-0.11
-0.29
-0.24
0.03
0.40
0.74
0.99
1.10
1.13
1.15
1.18
1.24
1.28
1.28
1.22
1.13
1.00
0.84
0.62
0.34
-0.01
-0.41
-0.79
-1.10
-1.29
-1.35
-1.31
-1.22
-1.13
-1.08
-1.06
-1.05
-1.01
-0.92
-0.76
-0.56
-0.37
-0.23
-0.14
-0.08
0.01
0.19
0.50
0.87
1.22
1.43
1.39
1.10
0.66
0.22
-0.10
-0.22
-0.18
-0.09
-0.02
-0.03
-0.08
-0.09
0.01
0.22
0.52
0.82
1.08
1.23
1.25
1.14
0.90
0.56
0.15
-0.26
-0.59
-0.81
-0.89
-0.89
-0.86
-0.88
-0.96
-1.07
-1.12
-1.06
-0.89
-0.65
-0.46
-0.39
-0.45
-0.61
-0.78
-0.92
-1.01
-1.11
-1.23
-1.41
-1.58
-1.69
-1.69
-1.57
-1.38
-1.22
-1.15
-1.19
-1.30
-1.42
-1.51
-1.55
-1.55
-1.56
-1.56
-1.54
-1.46
-1.28
-0.99
-0.65
-0.29
-0.01
0.15
0.17
0.08
-0.06
-0.18
-0.19
-0.05
0.23
0.60
0.96
1.25
1.44
1.51
1.48
1.38
1.21
0.99
0.75
0.54
0.40
0.35
0.39
0.50
0.67
0.89
1.11
1.26
1.24
1.02
0.63
0.25
0.03
0.10
0.44
0.90
1.29
1.44
1.36
1.10
0.78
0.50
0.28
0.09
-0.08
-0.25
-0.46
-0.71
-1.04
-1.44
-1.85
-2.18
-2.38
-2.40
-2.30
-2.14
-2.00
-1.93
-1.95
-2.01
-2.07
-2.11
-2.07
-1.92
-1.64
-1.21
-0.67
-0.11
0.46
0.99
1.45
1.84
2.18
2.58
3.14
3.89
4.81
5.79
6.59
6.90
6.55
5.72
4.86
4.57
5.20
6.71
8.77
10.63
11.48
10.92
9.36
7.79
7.47
9.10
12.71
17.85
23.34
27.72
29.88
29.67
27.83
25.85
24.97
26.15
30.01
36.04
42.56
47.11
47.39
41.62
29.23
10.30
-14.26
-39.66
-59.22
-68.53
-68.11
-61.47
-54.67
-49.12
-44.94
-41.89
-39.75
-39.11
-39.64
-41.40
-43.60
-44.68
-42.57
-36.16
-25.38
-11.15
4.51
19.11
30.55
38.12
42.43
44.98
46.89
48.77
50.71
52.26
52.75
51.67
49.16
45.84
42.52
39.51
36.73
33.91
30.66
26.67
21.85
16.43
10.81
5.51
0.79
-3.19
-6.35
-8.80
-10.79
-12.76
-15.12
-18.17
-21.97
-26.43
-31.28
-36.17
-40.68
-44.42
-47.07
-48.42
-48.40
-47.14
-44.89
-41.98
-38.79
-35.65
-32.86
-30.64
-29.09
-28.16
-27.61
-27.11
-26.33
-25.03
-23.12
-20.70
-17.97
-15.22
-12.73
-10.71
-9.31
-8.56
-8.39
-8.61
-8.98
-9.22
-9.11
-8.56
-7.67
-6.73
-6.12
-6.12
-6.82
-8.08
-9.57
-10.92
-11.81
-12.05
-11.57
-10.38
-8.58
-6.32
-3.77
-1.15
1.37
3.65
5.63
7.29
8.61
9.56
10.07
10.13
9.84
9.39
9.01
8.92
9.20
9.83
10.69
11.73
13.01
14.68
16.92
19.75
23.00
26.27
29.06
31.00
31.93
31.92
31.24
30.12
28.76
27.22
25.51
23.73
22.05
20.72
19.92
19.68
19.84
20.06
19.95
19.13
17.31
14.34
10.21
5.05
-0.80
-6.78
-12.24
-16.50
-19.11
-19.88
-19.03
-17.00
-14.39
-11.67
-9.15
-6.94
-5.03
-3.39
-2.02
-0.95
-0.17
0.39
0.88
1.45
2.15
2.94
3.63
4.02
3.94
3.39
2.55
1.70
1.10
0.92
1.11
1.41
1.50
1.10
0.16
-1.17
-2.58
-3.78
-4.64
-5.23
-5.76
-6.47
-7.50
-8.85
-10.43
-12.14
-13.90
-15.69
-17.46
-19.10
-20.45
-21.31
-21.59
-21.28
-20.54
-19.55
-18.50
-17.50
-16.48
-15.33
-13.90
-12.09
-9.87
-7.26
-4.38
-1.35
1.62
4.32
6.61
8.51
10.20
12.01
14.24
17.02
20.24
23.63
26.85
29.68
32.02
33.91
35.44
36.73
37.91
39.16
40.70
42.69
45.07
47.45
49.13
49.20
46.85
41.60
33.42
22.87
10.87
-1.45
-13.03
-23.10
-31.19
-37.25
-41.50
-44.35
-46.28
-47.68
-48.77
-49.54
-49.83
-49.38
-48.01
-45.73
-42.75
-39.46
-36.32
-33.72
-31.92
-31.03
-30.97
-31.53
-32.45
-33.42
-34.21
-34.67
-34.69
-34.20
-33.01
-30.83
-27.26
-21.99
-14.94
-6.34
3.29
13.24
22.79
31.29
38.18
43.03
45.58
45.83
44.10
41.05
37.59
34.60
32.80
32.55
33.82
36.30
39.47
42.74
45.60
47.70
48.85
49.04
48.38
46.98
44.98
42.53
39.73
36.67
33.35
29.71
25.59
20.88
15.59
9.89
4.13
-1.31
-6.13
-10.23
-13.72
-16.77
-19.58
-22.19
-24.55
-26.56
-28.15
-29.40
-30.45
-31.46
-32.52
-33.60
-34.53
-35.16
-35.38
-35.20
-34.73
-34.07
-33.29
-32.38
-31.31
-30.08
-28.72
-27.31
-25.88
-24.33
-22.52
-20.29
-17.59
-14.54
-11.44
-8.64
-6.43
-4.92
-4.02
-3.51
-3.13
-2.62
-1.86
-0.84
0.26
1.17
1.63
1.54
1.02
0.41
0.09
0.25
0.76
1.22
1.17
0.32
-1.21
-2.90
-4.00
-3.82
-2.08
1.03
4.86
8.54
11.24
12.46
12.18
10.87
9.51
9.34
11.49
16.64
24.56
33.97
42.65
48.13
48.55
43.60
34.76
24.88
16.98
12.94
12.71
14.47
15.62
14.17
9.72
3.52
-2.20
-5.37
-4.90
-0.90
5.54
13.06
20.39
26.59
30.96
32.95
32.15
28.41
22.05
14.05
5.88
-0.88
-5.09
-6.41
-5.41
-3.09
-0.19
3.23
7.77
14.08
22.12
30.85
38.43
42.84
42.58
37.03
26.50
11.95
-5.28
-23.73
-41.78
-57.74
-70.03
-77.46
-79.63
-77.05
-71.14
-63.74
-56.64
-51.01
-47.11
-44.42
-42.06
-39.38
-36.32
-33.39
-31.24
-30.20
-30.05
-30.11
-29.62
-28.06
-25.33
-21.67
-17.49
-13.14
-8.79
-4.45
-0.11
4.21
8.40
12.27
15.69
18.62
21.11
23.29
25.29
27.27
29.44
32.04
35.31
39.48
44.57
50.36
56.25
61.30
64.33
64.13
59.85
51.18
38.60
23.25
6.69
-9.47
-23.89
-35.72
-44.52
-50.22
-53.01
-53.25
-51.48
-48.38
-44.73
-41.16
-38.06
-35.45
-33.04
-30.42
-27.22
-23.35
-18.98
-14.48
-10.23
-6.55
-3.52
-1.07
0.97
2.76
4.43
6.02
7.53
8.88
10.01
10.83
11.30
11.44
11.39
11.33
11.44
11.82
12.40
12.97
13.26
13.09
12.46
11.55
10.68
10.10
9.97
10.24
10.76
11.39
12.01
12.62
13.27
14.01
14.82
15.59
16.15
16.33
15.97
15.07
13.76
12.34
11.19
10.62
10.76
11.44
12.31
12.93
12.97
12.32
11.12
9.65
8.27
7.30
6.96
7.37
8.50
10.07
11.60
12.43
11.94
9.77
5.91
0.72
-5.24
-11.51
-17.80
-24.04
-30.19
-36.06
-41.21
-45.10
-47.24
-47.41
-45.76
-42.71
-38.83
-34.65
-30.57
-26.75
-23.22
-19.85
-16.55
-13.31
-10.25
-7.61
-5.65
-4.50
-4.11
-4.17
-4.18
-3.64
-2.25
-0.02
2.65
5.10
6.69
7.06
6.31
4.95
3.66
2.92
2.88
3.29
3.78
4.06
4.12
4.10
4.24
4.66
5.31
6.05
6.70
7.15
7.34
7.19
6.63
5.51
3.69
1.11
-2.20
-6.01
-9.97
-13.62
-16.57
-18.58
-19.61
-19.85
-19.62
-19.29
-19.18
-19.40
-19.92
-20.53
-20.95
-20.91
-20.24
-18.88
-16.88
-14.39
-11.53
-8.42
-5.14
-1.82
1.38
4.27
6.68
8.52
9.87
11.01
12.31
14.24
17.21
21.43
26.90
33.37
40.41
47.52
54.19
60.07
65.10
69.50
73.71
78.10
82.64
86.61
88.55
86.61
79.18
65.54
46.32
23.45
-0.38
-22.48
-40.80
-54.29
-62.79
-66.72
-66.78
-63.68
-58.18
-51.12
-43.49
-36.26
-30.19
-25.65
-22.49
-20.25
-18.35
-16.38
-14.20
-11.92
-9.73
-7.80
-6.14
-4.66
-3.29
-2.05
-1.06
-0.57
-0.78
-1.77
-3.45
-5.46
-7.36
-8.69
-9.21
-8.97
-8.32
-7.71
-7.49
-7.77
-8.41
-9.14
-9.75
-10.19
-10.54
-10.93
-11.38
-11.75
-11.83
-11.49
-10.74
-9.77
-8.84
-8.12
-7.61
-7.13
-6.45
-5.40
-3.98
-2.36
-0.73
0.71
1.88
2.72
3.23
3.40
3.24
2.81
2.25
1.76
1.54
1.75
2.48
3.71
5.36
7.27
9.29
11.22
12.92
14.31
15.39
16.19
16.82
17.36
17.89
18.47
19.16
19.97
20.83
21.58
21.98
21.77
20.74
18.80
16.02
12.60
8.84
5.09
1.68
-1.07
-2.91
-3.68
-3.34
-1.98
0.19
2.91
5.92
8.98
11.90
14.51
16.69
18.34
19.40
19.94
20.02
19.77
19.29
18.66
17.91
17.06
16.14
15.19
14.27
13.43
12.73
12.21
11.87
11.62
11.27
10.63
9.50
7.80
5.54
2.79
-0.27
-3.44
-6.47
-9.10
-11.12
-12.47
-13.29
-13.92
-14.77
-16.04
-17.64
-19.31
-20.68
-21.47
-21.63
-21.34
-21.01
-21.07
-21.54
-22.22
-22.75
-22.86
-22.39
-21.46
-20.25
-19.10
-18.38
-18.03
-18.04
-18.48
-19.40
-20.33
-20.27
-17.69
-11.52
-1.80
10.54
23.64
35.33
44.09
49.69
52.83
54.79
56.30
54.43
47.41
36.01
23.21
12.01
4.83
0.26
-3.46
-7.78
-13.37
-19.72
-25.53
-29.64
-31.53
-31.23
-29.19
-25.72
-21.23
-16.34
-11.41
-6.88
-3.27
-0.91
0.27
0.61
0.81
1.29
2.05
3.10
4.34
5.66
6.97
8.27
9.50
10.72
11.82
12.63
13.06
13.10
12.69
11.80
10.41
8.65
6.85
5.45
4.84
5.37
7.16
10.06
13.75
17.73
21.53
24.71
26.92
27.86
27.29
25.05
21.16
15.83
9.49
2.66
-4.21
-10.75
-16.77
-22.12
-26.59
-29.89
-31.66
-31.64
-29.89
-26.84
-23.23
-20.00
-17.97
-17.68
-19.27
-22.34
-26.17
-29.80
-32.23
-32.61
-30.39
-25.44
-18.18
-9.68
-1.45
4.94
8.46
8.92
7.10
4.34
1.97
0.81
0.91
1.83
2.95
3.92
4.76
5.73
7.15
9.12
11.44
13.64
15.15
15.50
14.67
13.04
11.36
10.45
10.83
12.50
14.99
17.53
19.39
20.15
19.80
18.74
17.56
16.86
17.05
18.15
19.89
21.73
23.22
24.14
24.66
25.29
26.65
29.24
33.36
39.01
45.74
52.58
57.86
59.58
55.98
46.43
31.91
14.86
-1.79
-15.82
-26.60
-35.11
-43.04
-51.61
-60.72
-68.99
-74.43
-75.45
-71.57
-63.49
-52.62
-40.46
-28.16
-16.27
-4.92
5.92
16.23
25.78
34.26
41.31
46.68
50.18
51.57
50.47
46.34
38.57
26.85
11.43
-6.72
-25.97
-44.37
-60.07
-71.75
-78.80
-81.17
-79.10
-72.87
-62.73
-49.10
-32.74
-14.88
2.98
19.38
33.19
43.65
50.33
52.95
51.32
45.50
35.96
23.62
9.67
-4.77
-18.86
-32.13
-44.30
-54.94
-63.30
-68.34
-69.06
-64.96
-56.31
-44.36
-30.95
-18.04
-7.11
1.28
7.54
12.75
18.13
24.43
31.65
38.98
45.14
48.88
49.42
46.63
40.98
33.29
24.43
15.15
6.14
-1.90
-8.22
-12.21
-13.63
-12.72
-10.21
-7.00
-3.69
-0.40
3.15
7.30
12.05
16.83
20.61
22.25
20.93
16.45
9.34
0.71
-8.10
-15.83
-21.61
-25.06
-26.28
-25.75
-24.15
-22.39
-21.53
-22.80
-27.36
-36.01
-48.75
-64.48
-81.08
-95.79
-105.98
-109.84
-106.91
-98.12
-85.36
-70.84
-56.40
-43.18
-31.57
-21.48
-12.72
-5.13
1.35
6.87
11.79
16.64
21.95
27.98
34.59
41.27
47.35
52.24
55.60
57.38
57.78
57.09
55.57
53.40
50.71
47.50
43.80
39.65
35.16
30.53
26.05
21.98
18.53
15.75
13.58
11.89
10.55
9.49
8.66
7.97
7.23
6.18
4.56
2.21
-0.80
-4.22
-7.69
-10.88
-13.61
-15.85
-17.66
-19.15
-20.35
-21.30
-21.98
-22.43
-22.64
-22.59
-22.25
-21.61
-20.73
-19.72
-18.67
-17.62
-16.48
-15.13
-13.47
-11.51
-9.32
-7.04
-4.72
-2.31
0.25
2.97
5.71
8.29
10.54
12.47
14.26
16.15
18.38
21.04
24.10
27.45
31.02
34.77
38.75
43.04
47.66
52.53
57.39
61.84
65.32
67.34
67.50
65.71
62.23
57.62
52.69
48.32
45.32
44.22
45.31
48.57
53.75
60.39
67.78
74.96
80.68
83.68
82.90
77.87
68.87
56.83
43.09
28.92
15.31
2.82
-8.32
-18.02
-26.23
-32.89
-37.99
-41.64
-44.01
-45.28
-45.68
-45.42
-44.80
-44.20
-44.07
-44.75
-46.42
-49.04
-52.39
-56.19
-60.23
-64.40
-68.64
-72.99
-77.58
-82.63
-88.53
-95.65
-104.13
-113.59
-123.16
-131.59
-137.66
-140.60
-140.19
-136.73
-130.79
-122.86
-113.24
-102.03
-89.28
-75.24
-60.40
-45.49
-31.38
-18.87
-8.57
-0.76
4.64
7.98
9.80
10.70
11.22
11.79
12.75
14.32
16.61
19.57
23.00
26.58
29.97
32.87
35.15
36.80
37.92
38.63
39.08
39.37
39.57
39.74
39.86
39.88
39.71
39.23
38.44
37.37
36.15
34.92
33.80
32.78
31.79
30.75
29.56
28.24
26.87
25.57
24.44
23.52
22.82
22.25
21.74
21.21
20.59
19.84
18.96
17.99
16.99
16.00
15.03
14.00
12.82
11.46
9.93
8.36
6.84
5.47
4.24
3.07
1.87
0.55
-0.92
-2.51
-4.11
-5.58
-6.70
-7.26
-7.16
-6.37
-5.06
-3.46
-1.79
-0.24
1.14
2.30
3.23
3.85
4.15
4.15
3.96
3.73
3.63
3.77
4.18
4.86
5.78
6.90
8.13
9.35
10.42
11.24
11.77
12.04
12.11
12.04
11.89
11.67
11.41
11.09
10.68
10.16
9.51
8.74
7.93
7.16
6.47
5.83
5.17
4.39
3.47
2.46
1.45
0.53
-0.28
-1.00
-1.71
-2.48
-3.36
-4.36
-5.47
-6.63
-7.80
-8.86
-9.66
-10.02
-9.79
-8.90
-7.43
-5.59
-3.64
-1.83
-0.27
1.05
2.26
3.43
4.59
5.65
6.49
7.09
7.53
7.98
8.56
9.27
10.00
10.59
10.95
11.10
11.14
11.19
11.28
11.35
11.26
10.92
10.32
9.50
8.59
7.66
6.79
6.06
5.52
5.25
5.29
5.59
6.01
6.35
6.41
6.08
5.37
4.40
3.33
2.29
1.33
0.41
-0.55
-1.59
-2.69
-3.80
-4.88
-5.93
-6.96
-7.93
-8.72
-9.13
-8.92
-7.94
-6.26
-4.12
-1.88
0.14
1.75
2.96
3.84
4.51
4.99
5.28
5.42
5.51
5.67
6.01
6.52
7.12
7.67
8.09
8.37
8.56
8.69
8.71
8.56
8.23
7.78
7.34
7.04
6.89
6.82
6.74
6.57
6.31
5.98
5.57
5.06
4.39
3.56
2.68
1.94
1.52
1.45
1.62
1.79
1.72
1.30
0.58
-0.25
-0.97
-1.49
-1.83
-2.15
-2.60
-3.28
-4.19
-5.23
-6.28
-7.27
-8.18
-9.01
-9.69
-10.11
-10.11
-9.57
-8.43
-6.76
-4.81
-2.85
-1.17
0.05
0.78
1.15
1.36
1.60
1.99
2.50
3.04
3.48
3.76
3.92
4.09
4.37
4.83
5.41
5.98
6.36
6.44
6.21
5.76
5.23
4.73
4.34
4.06
3.87
3.76
3.69
3.63
3.53
3.30
2.91
2.36
1.72
1.08
0.52
0.08
-0.29
-0.64
-1.02
-1.44
-1.90
-2.39
-2.92
-3.49
-4.09
-4.71
-5.33
-5.97
-6.59
-7.15
-7.55
-7.67
-7.41
-6.75
-5.76
-4.57
-3.33
-2.10
-0.93
0.18
1.20
2.05
2.62
2.85
2.81
2.63
2.49
2.55
2.83
3.27
3.72
4.04
4.17
4.13
4.00
3.86
3.73
3.60
3.40
3.10
2.72
2.31
1.99
1.83
1.84
1.96
2.10
2.16
2.11
1.95
1.71
1.44
1.17
0.88
0.57
0.25
-0.05
-0.32
-0.54
-0.77
-1.07
-1.47
-1.95
-2.46
-2.93
-3.36
-3.80
-4.33
-5.01
-5.85
-6.75
-7.59
-8.26
-8.76
-9.14
-9.41
-9.53
-9.38
-8.84
-7.87
-6.55
-5.11
-3.74
-2.60
-1.68
-0.93
-0.27
0.27
0.67
0.89
0.98
1.06
1.29
1.73
2.34
3.01
3.60
4.01
4.24
4.38
4.47
4.55
4.58
4.51
4.29
3.93
3.49
3.00
2.53
2.12
1.81
1.66
1.68
1.82
1.99
2.06
1.93
1.60
1.14
0.68
0.34
0.16
0.09
0.03
-0.11
-0.40
-0.83
-1.39
-2.01
-2.64
-3.23
-3.72
-4.08
-4.33
-4.51
-4.70
-4.96
-5.34
-5.89
-6.55
-7.27
-7.94
-8.42
-8.61
-8.43
-7.83
-6.84
-5.55
-4.10
-2.70
-1.50
-0.60
0.00
0.40
0.70
1.00
1.32
1.65
1.98
2.30
2.64
3.01
3.43
3.82
4.11
4.24
4.18
3.95
3.64
3.36
3.21
3.23
3.35
3.48
3.48
3.27
2.86
2.34
1.84
1.42
1.07
0.76
0.44
0.13
-0.13
-0.28
-0.38
-0.55
-0.91
-1.54
-2.35
-3.17
-3.80
-4.11
-4.14
-4.05
-4.05
-4.31
-4.88
-5.68
-6.54
-7.32
-7.91
-8.25
-8.34
-8.16
-7.66
-6.81
-5.62
-4.17
-2.62
-1.13
0.15
1.17
1.90
2.38
2.66
2.79
2.86
2.97
3.23
3.71
4.42
5.29
6.15
6.87
7.38
7.71
7.96
8.29
8.78
9.41
10.07
10.57
10.81
10.80
10.73
10.88
11.48
12.64
14.22
15.87
17.20
17.98
18.21
18.20
18.42
19.24
20.81
23.00
25.58
28.35
31.24
34.15
36.83
38.89
39.97
40.08
39.71
39.55
39.90
40.17
38.83
34.12
25.05
12.16
-2.55
-16.43
-27.42
-34.84
-39.39
-42.41
-44.96
-47.26
-48.90
-49.35
-48.65
-47.49
-46.83
-47.35
-48.98
-50.98
-52.38
-52.45
-51.06
-48.65
-45.85
-43.18
-40.82
-38.59
-36.12
-33.06
-29.23
-24.65
-19.51
-14.08
-8.60
-3.18
2.25
7.88
13.89
20.22
26.49
32.00
36.11
38.47
39.23
39.00
38.59
38.69
39.72
41.74
44.48
47.47
50.07
51.54
51.25
48.81
44.28
38.13
31.03
23.64
16.40
9.46
2.86
-3.30
-8.82
-13.51
-17.41
-20.90
-24.57
-28.93
-34.03
-39.29
-43.59
-45.72
-44.84
-40.81
-34.24
-26.22
-17.88
-10.13
-3.46
1.87
5.71
7.90
8.33
7.06
4.46
1.14
-2.16
-4.83
-6.51
-7.15
-6.89
-6.00
-4.80
-3.54
-2.44
-1.61
-1.01
-0.46
0.39
1.92
4.42
7.92
12.18
16.70
20.87
24.15
26.22
27.15
27.39
27.63
28.56
30.58
33.68
37.46
41.32
44.77
47.54
49.60
51.09
52.18
52.91
53.22
52.89
51.61
49.08
45.02
39.32
32.05
23.44
13.84
3.62
-6.82
-17.04
-26.46
-34.43
-40.27
-43.57
-44.25
-42.71
-39.67
-35.99
-32.35
-29.13
-26.43
-24.27
-22.86
-22.73
-24.55
-28.85
-35.60
-44.07
-52.98
-60.91
-66.82
-70.31
-71.54
-71.01
-69.23
-66.58
-63.21
-59.16
-54.45
-49.21
-43.66
-38.12
-32.95
-28.40
-24.49
-20.96
-17.40
-13.40
-8.75
-3.54
1.87
6.92
11.00
13.61
14.44
13.52
11.27
8.41
5.75
3.99
3.49
4.31
6.30
9.33
13.26
17.94
22.94
27.65
31.42
33.93
35.45
36.68
38.36
40.84
43.73
46.12
46.97
45.63
42.13
37.14
31.64
26.51
22.32
19.29
17.44
16.65
16.79
17.59
18.54
18.94
17.94
14.90
9.61
2.60
-4.97
-11.50
-15.50
-15.95
-12.68
-6.39
1.61
9.70
16.41
20.77
22.47
21.84
19.68
16.84
13.93
11.09
8.06
4.40
-0.12
-5.35
-10.71
-15.54
-19.37
-22.18
-24.40
-26.63
-29.33
-32.65
-36.46
-40.56
-44.88
-49.59
-54.93
-61.00
-67.63
-74.33
-80.50
-85.65
-89.52
-92.17
-93.91
-95.24
-96.77
-99.17
-102.92
-108.11
-114.07
-119.15
-120.99
-117.02
-105.37
-85.75
-59.88
-31.15
-3.69
19.05
35.30
45.29
50.77
54.00
56.75
59.84
63.21
66.30
68.50
69.34
68.53
65.92
61.55
55.69
48.85
41.70
34.79
28.32
22.04
15.46
8.24
0.64
-6.24
-10.65
-10.63
-4.88
6.61
22.22
39.02
53.54
62.80
65.19
60.83
51.44
39.63
28.01
18.35
11.14
5.73
0.94
-4.12
-9.59
-14.90
-19.32
-22.63
-25.38
-28.51
-32.68
-37.63
-42.19
-44.77
-44.31
-40.74
-34.91
-28.04
-21.06
-14.22
-7.26
0.16
8.07
16.07
23.54
29.91
34.96
38.95
42.41
45.93
49.80
53.76
56.92
58.06
56.02
50.37
41.64
31.31
21.26
13.12
7.75
5.08
4.44
4.91
5.64
5.79
4.49
0.86
-5.68
-14.88
-25.44
-35.26
-42.11
-44.58
-42.58
-37.38
-30.93
-25.03
-20.78
-18.38
-17.41
-17.11
-16.64
-15.17
-11.89
-6.19
2.13
12.68
24.44
36.00
45.82
52.52
55.10
53.15
46.96
37.59
26.66
16.01
7.10
0.60
-3.68
-6.57
-8.91
-11.10
-12.96
-13.96
-13.57
-11.56
-8.03
-3.19
2.82
9.92
17.99
26.59
34.92
41.94
46.73
48.82
48.34
45.92
42.38
38.46
34.62
31.03
27.66
24.33
20.82
16.81
11.98
6.09
-0.92
-8.88
-17.31
-25.61
-33.15
-39.44
-44.21
-47.38
-49.02
-49.18
-47.88
-45.01
-40.47
-34.27
-26.67
-18.23
-9.70
-1.81
4.98
10.53
14.97
18.53
21.29
23.10
23.68
22.85
20.71
17.67
14.37
11.40
9.07
7.33
5.88
4.25
2.09
-0.71
-4.00
-7.49
-10.85
-13.79
-16.14
-17.77
-18.60
-18.69
-18.27
-17.80
-17.88
-19.00
-21.35
-24.76
-28.74
-32.82
-36.70
-40.40
-44.10
-47.96
-51.94
-55.76
-59.04
-61.38
-62.55
-62.52
-61.50
-59.97
-58.55
-57.92
-58.52
-60.37
-62.84
-64.77
-64.69
-61.27
-53.67
-41.78
-26.27
-8.40
10.24
28.08
43.86
56.80
66.59
73.30
77.20
78.62
78.01
75.93
73.10
70.29
68.11
66.77
65.88
64.46
61.21
55.01
45.44
33.04
19.40
6.67
-2.97
-7.98
-7.91
-3.42
4.02
12.52
20.29
25.82
28.11
26.70
21.76
14.08
4.93
-4.31
-12.50
-19.01
-23.76
-27.09
-29.40
-30.98
-31.88
-32.06
-31.48
-30.26
-28.63
-26.95
-25.52
-24.57
-24.20
-24.36
-24.80
-25.16
-24.98
-23.88
-21.60
-18.07
-13.37
-7.68
-1.21
5.80
13.03
20.13
26.61
32.01
35.98
38.37
39.13
38.21
35.36
30.25
22.66
12.83
1.71
-9.12
-17.83
-22.86
-23.38
-19.45
-11.88
-1.91
9.19
20.29
30.49
39.07
45.50
49.47
50.96
50.22
47.78
44.25
40.28
36.40
33.04
30.47
28.74
27.51
26.02
23.20
17.98
9.69
-1.59
-14.82
-28.29
-39.99
-48.26
-52.14
-51.63
-47.53
-41.06
-33.50
-25.84
-18.77
-12.71
-8.03
-5.06
-3.97
-4.50
-5.85
-6.81
-6.23
-3.60
0.64
5.22
8.58
9.55
7.79
3.84
-1.18
-6.14
-10.21
-13.02
-14.56
-14.98
-14.35
-12.68
-9.97
-6.37
-2.21
1.98
5.68
8.50
10.35
11.31
11.55
11.13
9.94
7.87
4.92
1.38
-2.31
-5.78
-8.93
-11.97
-15.20
-18.69
-22.18
-25.08
-26.81
-27.06
-25.83
-23.30
-19.59
-14.69
-8.53
-1.22
6.84
15.08
23.04
30.67
38.25
46.13
54.34
62.37
69.34
74.40
77.07
77.25
75.01
70.25
62.68
52.13
39.02
24.68
11.08
0.29
-6.27
-8.34
-6.79
-3.19
0.74
3.60
4.57
3.42
0.43
-3.77
-8.40
-12.78
-16.57
-19.88
-23.14
-26.90
-31.55
-37.28
-44.11
-52.08
-61.19
-71.16
-81.15
-89.65
-94.71
-94.62
-88.58
-77.04
-61.66
-44.58
-27.79
-12.67
0.07
10.06
17.06
20.79
21.16
18.49
13.62
7.83
2.58
-0.79
-1.39
1.08
6.19
12.82
19.44
24.47
26.77
25.97
22.58
17.69
12.54
8.10
4.78
2.49
0.87
-0.53
-2.00
-3.64
-5.44
-7.33
-9.19
-10.89
-12.25
-13.03
-12.98
-11.91
-9.80
-6.80
-3.31
0.21
3.36
5.97
8.16
10.20
12.28
14.34
15.99
16.68
16.01
14.00
11.11
8.13
5.79
4.52
4.33
4.86
5.70
6.48
7.00
7.18
7.05
6.80
6.78
7.46
9.36
12.80
17.75
23.79
30.23
36.33
41.51
45.51
48.36
50.24
51.40
52.08
52.58
53.20
54.20
55.59
57.04
57.93
57.63
55.87
52.91
49.44
46.17
43.40
40.78
37.45
32.52
25.48
16.41
5.97
-4.93
-15.39
-24.69
-32.26
-37.70
-40.77
-41.50
-40.23
-37.52
-34.04
-30.36
-26.87
-23.73
-20.89
-18.24
-15.65
-13.02
-10.38
-7.89
-5.82
-4.53
-4.34
-5.41
-7.71
-10.91
-14.53
-18.09
-21.26
-23.95
-26.29
-28.47
-30.65
-32.88
-35.10
-37.24
-39.23
-41.00
-42.48
-43.53
-43.98
-43.75
-42.86
-41.52
-39.99
-38.55
-37.45
-36.87
-36.97
-37.80
-39.24
-40.88
-41.94
-41.38
-38.11
-31.34
-20.93
-7.58
7.20
21.51
33.61
42.45
47.83
50.19
50.16
48.10
44.04
37.86
29.82
20.73
11.83
4.35
-0.99
-4.20
-5.87
-6.85
-7.90
-9.56
-12.11
-15.59
-19.79
-24.13
-27.78
-29.88
-29.79
-27.42
-23.27
-18.31
-13.64
-10.20
-8.36
-7.84
-7.74
-6.88
-4.28
0.42
6.65
13.17
18.54
21.70
22.35
20.94
18.35
15.40
12.57
9.96
7.50
5.19
3.20
1.81
1.26
1.60
2.62
4.02
5.52
7.03
8.72
10.73
13.06
15.29
16.68
16.42
14.05
9.69
4.15
-1.37
-5.81
-8.53
-9.52
-9.18
-8.04
-6.49
-4.71
-2.75
-0.62
1.54
3.55
5.24
6.48
7.32
7.88
8.42
9.23
10.59
12.63
15.34
18.49
21.71
24.60
26.83
28.22
28.66
28.19
26.97
25.35
23.83
22.88
22.67
22.97
23.13
22.42
20.44
17.35
13.92
11.19
10.10
11.10
14.02
18.20
22.78
26.94
30.10
31.97
32.48
31.68
29.69
26.65
22.74
18.21
13.40
8.56
3.79
-1.06
-6.25
-11.95
-17.98
-23.78
-28.55
-31.65
-32.78
-32.19
-30.42
-28.12
-25.73
-23.45
-21.23
-19.04
-16.94
-15.12
-13.85
-13.35
-13.66
-14.65
-16.04
-17.53
-18.88
-20.02
-21.00
-21.90
-22.71
-23.29
-23.37
-22.70
-21.16
-18.90
-16.25
-13.66
-11.51
-10.03
-9.28
-9.20
-9.72
-10.81
-12.48
-14.71
-17.40
-20.32
-23.17
-25.68
-27.71
-29.38
-30.97
-32.82
-35.15
-37.98
-41.05
-44.00
-46.44
-48.08
-48.78
-48.51
-47.26
-45.01
-41.70
-37.19
-31.45
-24.55
-16.77
-8.56
-0.42
7.19
13.95
19.72
24.48
28.25
30.94
32.35
32.21
30.34
26.78
21.84
16.13
10.51
5.93
3.25
3.04
5.37
9.74
15.19
20.50
24.65
27.05
27.72
27.23
26.37
25.87
26.20
27.57
29.96
33.18
36.83
40.24
42.50
42.70
40.30
35.33
28.49
20.87
13.56
7.32
2.37
-1.42
-4.30
-6.36
-7.53
-7.63
-6.62
-4.73
-2.31
0.33
3.19
6.58
10.86
16.16
22.12
28.01
33.17
37.42
41.18
45.24
50.04
55.28
59.84
62.38
62.09
59.22
54.97
50.82
47.72
45.61
43.56
40.34
35.19
28.10
19.76
11.10
2.89
-4.53
-11.15
-17.04
-22.13
-26.17
-28.84
-29.98
-29.77
-28.77
-27.82
-27.73
-29.00
-31.68
-35.32
-39.19
-42.57
-45.06
-46.74
-48.07
-49.67
-52.01
-55.12
-58.55
-61.49
-63.09
-62.80
-60.61
-56.99
-52.77
-48.78
-45.61
-43.50
-42.33
-41.72
-41.10
-39.86
-37.44
-33.53
-28.20
-21.90
-15.25
-8.75
-2.49
3.86
10.82
18.70
27.25
35.57
42.26
45.83
45.30
40.49
32.16
21.75
10.97
1.40
-5.72
-9.63
-9.94
-6.57
0.10
9.14
19.09
28.10
34.43
37.00
35.72
31.52
25.90
20.43
16.18
13.53
12.17
11.28
9.93
7.35
3.12
-2.67
-9.52
-16.60
-22.97
-27.81
-30.65
-31.46
-30.63
-28.77
-26.48
-24.16
-21.94
-19.78
-17.57
-15.29
-13.06
-11.10
-9.63
-8.78
-8.61
-9.06
-10.07
-11.54
-13.36
-15.42
-17.59
-19.73
-21.67
-23.31
-24.58
-25.50
-26.13
-26.52
-26.70
-26.57
-25.96
-24.71
-22.72
-20.07
-17.00
-13.88
-11.04
-8.64
-6.60
-4.62
-2.27
0.85
4.99
10.23
16.48
23.57
31.22
39.07
46.59
53.19
58.32
61.59
62.93
62.58
60.99
58.68
56.11
53.58
51.14
48.61
45.67
42.02
37.71
33.22
29.49
27.58
28.08
30.74
34.39
37.35
38.06
35.69
30.31
22.65
13.63
3.93
-5.98
-15.64
-24.26
-30.76
-34.03
-33.52
-29.52
-23.21
-16.18
-9.84
-4.97
-1.66
0.51
2.02
3.14
3.80
3.76
2.79
0.90
-1.70
-4.60
-7.34
-9.54
-10.92
-11.44
-11.22
-10.55
-9.72
-8.97
-8.38
-7.93
-7.57
-7.35
-7.33
-7.54
-7.84
-7.90
-7.39
-6.13
-4.30
-2.41
-1.08
-0.74
-1.44
-2.83
-4.38
-5.67
-6.53
-7.07
-7.50
-7.95
-8.28
-8.17
-7.20
-5.10
-1.89
2.08
6.23
9.97
12.90
14.95
16.29
17.17
17.69
17.76
17.10
15.52
12.96
9.61
5.83
2.06
-1.30
-3.93
-5.70
-6.66
-7.07
-7.34
-7.91
-9.06
-10.80
-12.84
-14.74
-16.13
-16.87
-17.13
-17.27
-17.68
-18.59
-19.94
-21.24
-21.79
-20.81
-17.85
-13.06
-7.30
-1.85
1.98
3.28
1.79
-2.20
-8.04
-14.91
-21.87
-27.81
-31.53
-31.96
-28.55
-21.61
-12.32
-2.33
6.85
14.34
20.14
24.83
29.15
33.63
38.44
43.48
48.63
53.81
58.99
64.07
68.72
72.45
74.79
75.51
74.71
72.78
70.16
67.20
64.04
60.67
57.10
53.40
49.79
46.50
43.70
41.27
38.87
35.94
31.93
26.51
19.67
11.71
3.08
-5.77
-14.61
-23.33
-31.91
-40.21
-48.00
-54.94
-60.71
-65.04
-67.81
-68.94
-68.37
-66.03
-61.91
-56.11
-48.94
-40.82
-32.27
-23.76
-15.76
-8.66
-2.82
1.47
4.01
4.76
3.86
1.62
-1.60
-5.44
-9.54
-13.47
-16.67
-18.45
-18.12
-15.11
-9.19
-0.58
10.03
21.56
32.71
42.27
49.36
53.63
55.28
54.84
52.89
49.76
45.47
39.94
33.31
26.26
20.00
16.04
15.63
19.29
26.46
35.48
44.01
49.58
50.28
45.20
34.69
20.15
3.64
-12.75
-27.36
-39.31
-48.61
-55.79
-61.64
-66.78
-71.47
-75.59
-78.82
-80.87
-81.72
-81.55
-80.65
-79.24
-77.35
-74.87
-71.72
-67.98
-63.95
-59.97
-56.34
-53.11
-50.15
-47.29
-44.39
-41.55
-38.98
-36.93
-35.60
-34.98
-34.92
-35.13
-35.32
-35.27
-34.98
-34.69
-34.71
-35.27
-36.39
-37.78
-39.01
-39.79
-40.12
-40.29
-40.65
-41.35
-42.14
-42.42
-41.43
-38.57
-33.68
-27.05
-19.34
-11.36
-3.78
3.05
9.11
14.58
19.61
24.19
28.06
30.94
32.72
33.67
34.38
35.59
37.92
41.69
46.89
53.24
60.18
66.76
71.73
73.71
71.77
65.92
57.46
48.66
42.06
39.55
41.72
47.89
56.58
66.24
75.68
84.14
90.95
95.31
96.33
93.49
87.05
78.20
68.71
60.31
54.13
50.43
48.91
49.07
50.55
52.96
55.59
57.21
56.03
50.27
38.65
20.94
-1.99
-28.29
-55.52
-81.11
-102.82
-119.19
-129.77
-135.09
-136.32
-134.80
-131.59
-127.25
-121.95
-115.73
-108.66
-100.86
-92.49
-83.60
-74.28
-64.86
-55.96
-48.40
-42.88
-39.66
-38.35
-38.06
-37.72
-36.48
-33.95
-30.24
-25.78
-20.98
-16.13
-11.26
-6.31
-1.19
4.05
9.31
14.40
19.18
23.50
27.19
29.97
31.50
31.50
29.82
26.59
22.24
17.45
13.09
10.00
8.78
9.59
12.04
15.33
18.51
20.81
21.83
21.45
19.61
16.27
11.30
4.82
-2.64
-9.97
-15.75
-18.79
-18.74
-16.16
-12.20
-7.95
-4.01
-0.37
3.28
7.20
11.23
14.70
16.96
17.85
18.08
18.96
21.84
27.46
35.93
46.39
57.12
66.25
72.60
76.09
77.63
78.48
79.70
82.60
87.75
94.59
101.63
107.23
110.10
109.74
105.97
99.18
91.38
84.46
79.01
73.92
67.58
58.78
47.62
34.93
22.24
12.96
9.87
13.65
22.74
34.59
46.63
56.75
62.55
52.92
23.04
-20.73
-63.92
-94.32
-107.15
-107.17
-99.64
-89.31
-79.58
-71.08
-63.71
-57.56
-53.17
-50.79
-50.06
-49.81
-49.27
-48.16
-45.39
-40.43
-34.05
-28.19
-24.68
-24.39
-26.70
-30.55
-34.70
-37.31
-37.15
-34.23
-29.77
-25.31
-22.05
-20.36
-20.19
-21.11
-22.10
-22.23
-21.14
-19.26
-17.33
-16.02
-15.46
-15.39
-15.26
-14.39
-12.35
-9.22
-5.46
-1.64
1.80
4.70
6.99
8.69
9.81
10.37
10.47
10.18
9.58
8.73
7.82
7.09
6.75
6.86
7.19
7.39
7.16
6.43
5.50
4.85
4.89
5.70
6.93
8.07
8.59
8.17
6.62
3.90
0.17
-4.04
-8.02
-11.12
-12.84
-13.08
-12.22
-10.95
-9.95
-9.46
-8.93
-7.55
-4.83
-0.57
4.96
11.21
17.50
23.32
28.45
33.40
38.55
43.55
48.11
51.86
54.72
56.98
59.25
62.31
67.13
73.72
80.45
85.66
87.80
85.85
79.05
66.72
45.81
17.41
-12.96
-39.20
-57.18
-66.38
-68.45
-65.95
-61.37
-56.29
-50.77
-44.56
-40.63
-38.71
-38.78
-40.56
-43.57
-47.14
-50.53
-52.90
-49.10
-40.40
-29.11
-17.54
-6.84
2.49
10.64
18.15
25.73
33.72
41.24
47.97
53.72
58.76
63.10
66.98
70.77
74.88
78.71
82.18
85.40
88.48
91.28
93.29
94.95
97.08
100.25
104.64
109.85
115.58
121.71
127.86
133.01
137.24
140.98
144.40
147.17
148.33
146.28
138.24
126.88
112.31
95.98
80.00
65.87
54.26
45.23
38.47
33.60
26.56
14.63
-0.07
-13.27
-22.20
-26.41
-26.99
-25.85
-25.10
-34.24
-58.19
-92.04
-126.25
-154.22
-174.04
-186.92
-195.67
-203.60
-225.90
-269.81
-327.26
-383.08
-427.30
-457.57
-476.52
-488.98
-500.03
-529.90
-588.22
-666.05
-746.37
-818.55
-879.53
-928.03
-960.66
-870.18
-627.26
-306.75
-14.98
193.51
317.16
378.81
406.70
424.33
445.00
454.80
441.75
409.65
372.83
343.05
325.73
321.22
326.25
335.45
330.82
303.80
262.16
221.55
192.57
177.82
174.76
178.45
183.92
179.72
160.93
132.95
105.83
86.25
75.73
72.48
73.41
75.51
72.81
62.87
48.41
34.42
24.18
18.36
15.98
15.48
15.42
13.51
8.91
2.70
-3.22
-7.72
-10.63
-12.37
-13.51
-14.37
-15.05
-15.39
-15.18
-14.37
-13.07
-11.53
-9.99
-8.50
-6.63
-4.20
-0.89
3.28
7.89
12.18
15.30
16.71
16.49
15.40
14.56
15.06
17.33
20.90
24.49
26.62
26.31
23.66
20.00
17.26
17.23
20.54
26.26
32.23
36.06
36.16
32.55
26.93
21.89
19.85
22.39
29.81
40.88
52.81
61.34
61.29
47.94
19.20
-22.47
-69.53
-110.93
-135.85
-137.73
-116.86
-79.92
-36.98
2.85
34.33
56.68
71.85
81.78
86.70
85.30
76.43
60.82
41.69
23.68
10.46
2.87
-1.37
-6.31
-15.55
-30.30
-49.02
-67.36
-80.57
-85.46
-81.60
-71.20
-57.80
-44.81
-34.42
-27.17
-22.37
-18.95
-16.16
-13.78
-12.13
-11.69
-12.70
-14.93
-17.59
-19.56
-19.92
-18.35
-15.25
-11.53
-8.21
-5.91
-4.50
-3.29
-1.40
1.64
5.68
10.05
13.90
16.64
18.10
18.58
18.53
18.43
18.51
18.88
19.60
20.74
22.43
24.75
27.62
30.79
33.87
36.45
38.24
39.04
38.78
37.48
35.32
32.61
29.76
27.12
24.77
22.50
19.83
16.34
11.90
6.79
1.66
-2.82
-6.16
-8.19
-8.92
-8.40
-6.47
-2.93
2.35
9.18
16.96
24.83
31.87
37.43
41.13
42.88
42.76
40.98
38.01
34.67
32.02
31.06
32.20
34.93
37.93
39.60
38.82
35.38
30.05
24.10
18.66
14.31
10.96
8.05
4.78
0.42
-5.51
-13.16
-22.20
-31.82
-40.90
-48.27
-53.07
-54.90
-53.85
-50.22
-44.31
-36.34
-26.42
-14.75
-1.63
12.52
27.26
42.23
57.04
71.08
83.37
92.51
96.95
95.48
87.56
73.77
55.83
36.13
17.08
0.35
-13.34
-24.08
-32.46
-39.08
-44.27
-47.90
-49.61
-49.03
-46.09
-41.10
-34.74
-27.98
-22.13
-18.35
-17.34
-19.07
-22.93
-27.98
-33.06
-37.05
-39.18
-39.78
-39.58
-39.25
-39.07
-39.06
-39.20
-39.45
-39.72
-40.23
-42.33
-46.68
-52.23
-56.29
-56.11
-50.87
-42.01
-32.57
-26.59
-29.24
-43.46
-68.36
-99.44
-130.67
-157.11
-175.07
-181.91
-176.92
-163.44
-146.02
-128.93
-115.22
-107.31
-107.72
-117.22
-133.51
-137.15
-114.86
-67.55
-10.65
38.63
71.43
86.73
85.67
75.41
60.26
40.09
14.61
-13.96
-40.73
-54.29
-48.48
-22.44
20.18
71.61
121.23
160.01
182.88
189.19
181.08
161.06
133.12
103.60
79.64
66.85
68.16
82.32
103.82
124.21
134.36
129.14
109.72
82.08
53.64
30.04
13.28
1.96
-6.90
-16.25
-27.16
-38.87
-50.32
-61.14
-71.46
-81.11
-88.81
-92.27
-89.59
-80.47
-67.01
-53.30
-43.66
-40.66
-44.12
-51.11
-57.46
-59.81
-56.70
-48.93
-38.67
-28.19
-18.88
-11.34
-5.90
-3.38
-4.90
-10.91
-20.19
-29.52
-34.56
-31.76
-20.33
-3.04
14.57
26.45
28.56
20.40
4.81
-13.30
-28.92
-38.26
-39.49
-32.71
-19.75
-3.14
14.16
29.35
40.69
47.86
52.04
55.25
59.39
65.20
72.77
81.42
90.30
98.85
106.87
114.18
120.33
124.40
125.46
124.33
122.86
123.13
126.27
131.66
136.96
139.21
135.62
124.45
106.69
84.55
60.78
38.18
19.67
8.34
7.35
18.57
33.58
44.15
44.41
34.22
18.11
1.66
-11.18
-18.57
-21.46
-22.91
-25.32
-30.28
-38.02
-47.74
-56.77
-64.95
-71.85
-77.34
-81.42
-83.09
-81.21
-75.08
-65.09
-52.75
-40.37
-29.82
-22.32
-18.16
-16.41
-15.34
-13.15
-8.77
-2.14
5.78
13.77
20.38
24.56
26.36
26.85
27.53
29.59
33.29
37.84
42.01
44.63
45.19
44.16
42.73
42.10
42.97
45.29
48.36
51.43
54.06
56.43
59.26
63.51
69.79
77.89
86.81
95.08
101.42
105.11
106.09
104.36
99.54
90.45
75.42
52.83
21.83
-17.51
-64.57
-118.44
-177.67
-239.33
-298.26
-347.17
-378.33
-386.28
-370.26
-334.90
-288.53
-239.91
-195.07
-155.87
-120.89
-87.83
-55.97
-27.07
-4.38
9.43
14.06
11.86
6.82
2.74
1.67
3.27
5.45
5.80
3.16
-1.71
-6.69
-9.34
-8.09
-3.03
4.04
10.28
13.16
11.86
7.96
4.27
3.63
7.43
15.28
25.39
35.68
44.95
53.44
62.51
72.79
83.46
92.22
96.25
93.22
81.78
61.68
33.85
3.73
-21.65
-36.35
-39.08
-33.16
-23.45
-13.73
-5.87
0.18
5.72
11.56
17.56
22.68
25.67
25.88
23.49
19.46
15.32
12.78
12.45
13.89
15.67
16.11
13.90
8.51
0.44
-9.57
-19.30
-27.29
-32.95
-36.80
-40.03
-44.07
-50.28
-59.67
-72.59
-88.16
-103.92
-115.19
-116.49
-103.55
-75.50
-35.98
7.42
45.26
69.44
75.70
65.70
44.78
19.52
-4.52
-23.80
-36.82
-42.63
-41.76
-36.14
-26.80
-15.30
-3.09
8.67
19.75
30.56
41.82
54.12
67.88
84.97
105.55
127.29
146.21
158.95
164.57
165.23
165.28
157.77
140.90
117.41
91.98
67.45
44.75
24.37
7.02
-7.06
-18.37
-26.03
-29.80
-30.30
-28.72
-26.27
-23.86
-22.39
-22.48
-24.39
-26.40
-26.95
-25.35
-21.88
-17.33
-12.74
-8.99
-6.73
-6.14
-5.92
-4.74
-1.65
3.81
12.36
23.07
34.31
43.40
47.14
43.28
31.18
12.38
-9.63
-30.45
-46.41
-55.68
-58.69
-57.48
-54.25
-50.57
-47.10
-43.85
-40.62
-37.53
-34.81
-32.65
-31.06
-29.76
-28.30
-26.41
-24.23
-22.22
-21.05
-21.13
-22.42
-24.45
-26.58
-27.99
-28.15
-26.93
-24.62
-21.73
-18.75
-15.96
-13.41
-10.98
-8.48
-5.79
-3.01
-0.39
1.74
3.13
3.81
4.04
4.26
4.91
6.25
8.23
10.51
12.59
14.00
14.53
14.21
13.27
12.04
10.79
9.71
8.85
8.22
7.82
7.83
8.28
9.05
9.99
11.04
12.35
14.17
16.68
19.89
23.81
27.98
31.75
34.62
36.55
38.05
39.80
42.35
45.85
50.61
56.26
62.14
67.65
72.59
77.14
81.48
85.47
88.71
91.20
92.39
91.46
87.62
80.51
70.37
57.73
43.22
24.21
1.66
-21.08
-40.23
-54.11
-63.99
-72.09
-79.57
-86.58
-92.79
-95.50
-93.56
-87.56
-79.56
-72.09
-67.08
-65.36
-66.66
-70.03
-73.97
-77.86
-81.45
-84.16
-84.45
-80.21
-69.97
-54.29
-35.99
-19.00
-7.33
-3.25
-6.35
-13.93
-22.32
-28.51
-31.12
-30.27
-26.78
-21.69
-15.84
-9.71
-3.64
2.16
7.52
12.40
16.94
21.49
26.37
31.63
36.96
41.66
44.68
44.98
41.98
36.09
28.84
22.45
18.93
19.11
22.23
26.25
28.91
28.83
26.13
22.18
18.64
16.47
15.42
14.32
11.94
7.74
2.13
-3.81
-8.99
-12.83
-15.33
-16.88
-17.90
-18.58
-18.84
-18.51
-17.54
-16.11
-14.53
-13.07
-11.80
-10.54
-9.01
-7.00
-4.53
-1.94
0.32
1.87
2.58
2.55
2.03
1.22
0.14
-1.27
-3.10
-5.23
-7.39
-9.26
-10.69
-11.89
-13.43
-15.95
-19.94
-25.33
-31.47
-37.08
-40.44
-39.83
-33.99
-22.63
-6.82
11.14
28.21
41.39
48.49
48.73
42.97
33.49
23.38
15.56
11.84
12.31
15.36
18.37
18.85
15.51
8.66
-0.13
-8.88
-16.13
-21.20
-23.95
-24.25
-21.67
-15.66
-5.99
6.72
21.04
35.05
46.95
55.57
60.57
62.31
61.48
58.77
54.72
49.60
43.55
36.70
29.38
22.11
15.60
10.57
7.48
6.38
6.84
8.17
9.71
11.09
12.31
13.59
15.12
16.86
18.49
19.60
19.92
19.42
18.36
17.16
16.08
15.15
14.06
12.24
8.98
3.54
-4.70
-15.97
-29.94
-45.49
-60.89
-74.13
-83.54
-88.32
-88.73
-85.93
-81.38
-76.34
-71.53
-67.19
-63.37
-60.22
-58.04
-57.09
-57.36
-58.45
-59.67
-60.25
-59.57
-57.30
-53.42
-48.15
-41.88
-35.10
-28.27
-21.72
-15.57
-9.72
-4.02
1.63
7.11
12.22
16.80
20.80
24.34
27.60
30.60
33.22
35.31
36.75
37.56
37.64
36.69
34.17
29.50
22.42
13.28
3.02
-7.07
-15.71
-21.96
-25.23
-25.20
-21.75
-14.95
-5.20
6.61
19.15
30.86
40.31
46.54
49.25
48.78
45.94
41.81
37.39
33.36
30.05
27.45
25.37
23.61
22.06
20.74
19.70
18.96
18.43
18.01
17.60
17.18
16.78
16.42
16.08
15.68
15.08
14.20
13.01
11.56
9.97
8.38
6.93
5.72
4.80
4.10
3.50
2.86
2.06
1.07
-0.05
-1.23
-2.39
-3.49
-4.50
-5.36
-6.02
-6.39
-6.45
-6.19
-5.64
-4.84
-3.80
-2.56
-1.16
0.28
1.68
2.96
4.07
5.01
5.80
6.48
7.08
7.64
8.18
8.68
9.11
9.41
9.54
9.54
9.49
9.47
9.52
9.63
9.69
9.62
9.36
8.95
8.46
7.99
7.61
7.36
7.21
7.08
6.86
6.48
5.93
5.29
4.69
4.23
3.95
3.77
3.55
3.19
2.64
1.99
1.33
0.71
0.12
-0.53
-1.33
-2.28
-3.33
-4.34
-5.23
-5.99
-6.65
-7.28
-7.87
-8.36
-8.59
-8.46
-7.95
-7.14
-6.16
-5.16
-4.17
-3.14
-1.98
-0.65
0.79
2.17
3.28
4.00
4.38
4.55
4.73
5.05
5.54
6.10
6.56
6.82
6.81
6.58
6.24
5.89
5.60
5.40
5.27
5.19
5.11
5.02
4.90
4.76
4.61
4.43
4.21
3.89
3.45
2.87
2.19
1.51
0.93
0.53
0.31
0.18
0.01
-0.30
-0.79
-1.40
-2.04
-2.63
-3.24
-3.94
-4.82
-5.85
-6.84
-7.55
-7.77
-7.47
-6.77
-5.92
-5.13
-4.50
-3.96
-3.36
-2.60
-1.65
-0.61
0.35
1.10
1.61
1.92
2.12
2.27
2.39
2.46
2.47
2.49
2.59
2.83
3.20
3.62
3.99
4.22
4.32
4.32
4.26
4.16
4.00
3.79
3.57
3.38
3.27
3.18
3.02
2.68
2.13
1.42
0.69
0.06
-0.39
-0.68
-0.88
-1.09
-1.36
-1.71
-2.12
-2.62
-3.22
-3.95
-4.76
-5.57
-6.24
-6.67
-6.87
-6.90
-6.90
-6.98
-7.20
-7.51
-7.78
-7.86
-7.62
-6.96
-5.86
-4.40
-2.78
-1.19
0.17
1.22
1.99
2.60
3.16
3.78
4.54
5.45
6.51
7.64
8.75
9.73
10.49
11.04
11.51
12.06
12.90
14.11
15.63
17.28
18.83
20.09
21.04
21.79
22.62
23.83
25.67
28.18
31.19
34.30
37.00
38.85
39.80
40.26
41.07
43.14
47.01
52.47
58.50
63.55
65.92
64.37
58.33
48.10
34.66
19.45
4.02
-10.30
-22.57
-32.38
-39.73
-45.02
-48.85
-51.94
-55.06
-58.86
-63.90
-70.53
-79.00
-89.36
-101.33
-114.06
-125.87
-134.38
-137.05
-132.17
-119.74
-101.72
-81.41
-62.23
-46.43
-34.59
-25.87
-18.96
-12.92
-7.56
-3.24
-0.25
1.60
2.95
4.56
6.87
9.67
12.30
13.99
14.29
13.23
11.31
9.20
7.43
6.27
5.63
5.26
4.94
4.61
4.37
4.42
4.90
5.81
7.01
8.26
9.32
10.05
10.40
10.43
10.24
9.93
9.62
9.42
9.40
9.57
9.85
10.08
10.07
9.68
8.87
7.78
6.72
6.04
6.07
6.93
8.51
10.48
12.47
14.17
15.47
16.48
17.40
18.47
19.83
21.52
23.55
25.96
28.73
31.70
34.50
36.66
37.76
37.67
36.66
35.18
33.51
31.37
27.93
22.11
13.20
1.41
-12.10
-25.51
-37.03
-45.48
-50.55
-52.59
-52.24
-50.10
-46.62
-42.23
-37.42
-32.61
-27.92
-23.05
-17.38
-10.38
-2.09
6.79
15.10
21.71
26.02
28.03
28.15
26.84
24.37
20.91
16.81
12.71
9.50
7.92
8.27
10.23
13.10
16.12
18.88
21.39
23.97
26.99
30.61
34.69
38.77
42.26
44.60
45.44
44.78
42.94
40.50
38.05
36.00
34.40
32.94
31.10
28.28
24.03
18.10
10.45
1.31
-8.91
-19.64
-30.29
-40.40
-49.73
-58.31
-66.18
-73.22
-78.99
-82.73
-83.70
-81.43
-75.94
-67.68
-57.28
-45.32
-32.21
-18.34
-4.20
9.50
22.03
32.84
41.83
49.27
55.52
60.61
64.01
64.75
61.77
54.53
43.33
29.32
14.20
-0.39
-13.25
-23.93
-32.55
-39.58
-45.47
-50.51
-54.74
-58.02
-60.15
-60.93
-60.24
-58.06
-54.54
-49.92
-44.60
-39.08
-33.97
-29.90
-27.37
-26.46
-26.58
-26.41
-24.32
-19.01
-10.27
0.82
12.11
21.34
26.99
28.81
27.75
25.24
22.56
20.39
18.84
17.78
17.07
16.67
16.51
16.38
15.90
14.66
12.43
9.33
5.80
2.48
-0.03
-1.38
-1.57
-0.98
-0.17
0.36
0.33
-0.20
-0.95
-1.56
-1.81
-1.69
-1.35
-0.97
-0.63
-0.31
0.13
0.83
1.84
3.10
4.43
5.60
6.37
6.60
6.28
5.58
4.75
4.06
3.69
3.64
3.77
3.91
3.85
3.51
2.88
1.97
0.86
-0.37
-1.64
-2.89
-4.11
-5.35
-6.66
-8.09
-9.59
-11.03
-12.26
-13.12
-13.57
-13.62
-13.31
-12.63
-11.52
-9.97
-8.03
-5.92
-3.98
-2.48
-1.53
-1.02
-0.69
-0.27
0.36
1.12
1.82
2.30
2.47
2.44
2.39
2.52
2.95
3.64
4.46
5.17
5.55
5.51
5.09
4.49
3.95
3.68
3.72
3.99
4.26
4.32
4.02
3.38
2.50
1.60
0.86
0.36
0.08
-0.16
-0.57
-1.28
-2.27
-3.34
-4.27
-4.83
-4.94
-4.65
-4.11
-3.40
-2.58
-1.63
-0.56
0.58
1.68
2.61
3.27
3.69
3.99
4.30
4.70
5.14
5.50
5.66
5.55
5.23
4.82
4.45
4.16
3.95
3.81
3.70
3.63
3.63
3.67
3.72
3.72
3.61
3.40
3.12
2.84
2.59
2.35
2.10
1.80
1.45
1.11
0.86
0.76
0.77
0.77
0.62
0.20
-0.49
-1.37
-2.25
-2.98
-3.43
-3.54
-3.34
-2.86
-2.17
-1.30
-0.31
0.74
1.72
2.54
3.10
3.39
3.52
3.61
3.76
4.01
4.25
4.37
4.29
4.01
3.66
3.41
3.38
3.55
3.82
4.05
4.13
4.04
3.88
3.70
3.56
3.43
3.22
2.89
2.45
1.99
1.58
1.26
1.00
0.72
0.37
-0.07
-0.55
-1.04
-1.53
-2.09
-2.74
-3.48
-4.20
-4.73
-4.89
-4.59
-3.91
-2.99
-2.06
-1.26
-0.63
-0.09
0.49
1.21
2.03
2.82
3.39
3.62
3.50
3.12
2.62
2.19
1.95
1.94
2.15
2.53
2.94
3.27
3.45
3.45
3.34
3.19
3.07
2.98
2.87
2.71
2.51
2.32
2.19
2.09
1.96
1.69
1.26
0.71
0.16
-0.32
-0.71
-1.11
-1.60
-2.22
-2.91
-3.54
-3.98
-4.19
-4.20
-4.07
-3.80
-3.32
-2.53
-1.37
0.09
1.69
3.18
4.30
4.92
5.04
4.80
4.42
4.18
4.26
4.75
5.59
6.64
7.69
8.57
9.15
9.38
9.28
8.94
8.53
8.36
8.77
10.05
12.29
15.30
18.59
21.55
23.56
24.20
23.33
21.09
17.83
14.05
10.31
7.15
4.94
3.76
3.36
3.25
2.97
2.30
1.37
0.62
0.54
1.39
3.01
4.94
6.54
7.34
7.19
6.16
4.48
2.34
-0.14
-2.89
-5.83
-8.85
-11.88
-14.93
-18.07
-21.26
-24.27
-26.64
-27.81
-27.44
-25.64
-23.02
-20.48
-18.77
-18.17
-18.37
-18.66
-18.32
-17.02
-14.94
-12.69
-11.02
-10.42
-10.98
-12.38
-14.08
-15.57
-16.34
-15.88
-13.60
-8.93
-1.64
7.86
18.43
28.35
35.86
39.69
39.41
35.43
28.65
20.08
10.54
0.61
-9.19
-18.29
-26.10
-32.14
-36.22
-38.43
-39.06
-38.39
-36.54
-33.48
-29.25
-24.05
-18.35
-12.80
-7.92
-4.04
-1.13
0.99
2.55
3.67
4.38
4.70
4.71
4.64
4.77
5.33
6.41
7.92
9.60
11.15
12.31
12.90
12.87
12.21
10.96
9.23
7.20
5.15
3.36
2.10
1.42
1.19
1.10
0.77
-0.09
-1.59
-3.64
-5.94
-8.04
-9.51
-10.07
-9.72
-8.74
-7.60
-6.73
-6.35
-6.37
-6.42
-6.05
-4.96
-3.09
-0.71
1.76
3.93
5.57
6.72
7.62
8.53
9.61
10.83
12.00
12.94
13.57
14.01
14.45
15.03
15.72
16.36
16.75
16.76
16.37
15.63
14.63
13.42
12.08
10.73
9.50
8.55
7.95
7.66
7.53
7.40
7.14
6.66
5.96
5.08
4.16
3.38
2.92
2.90
3.26
3.78
4.22
4.41
4.33
4.13
3.99
4.00
4.17
4.41
4.62
4.80
4.99
5.31
5.79
6.41
7.03
7.48
7.62
7.40
6.91
6.40
6.18
6.59
7.81
9.83
12.45
15.38
18.30
21.05
23.60
26.00
28.33
30.57
32.61
34.25
35.25
35.43
34.71
33.15
31.04
28.85
27.13
26.33
26.65
27.87
29.43
30.63
30.80
29.55
26.82
22.79
17.78
12.19
6.44
0.98
-3.76
-7.47
-10.12
-11.92
-13.31
-14.67
-16.19
-17.80
-19.25
-20.29
-20.84
-21.03
-21.10
-21.28
-21.63
-22.04
-22.31
-22.22
-21.70
-20.80
-19.69
-18.54
-17.48
-16.57
-15.80
-15.15
-14.59
-14.09
-13.62
-13.17
-12.76
-12.49
-12.51
-12.99
-14.04
-15.56
-17.26
-18.60
-18.96
-17.83
-15.06
-11.04
-6.59
-2.76
-0.46
-0.13
-1.69
-4.61
-8.24
-12.02
-15.71
-19.27
-22.68
-25.87
-28.52
-30.28
-30.87
-30.31
-28.88
-27.05
-25.29
-23.87
-22.85
-22.13
-21.60
-21.26
-21.26
-21.71
-22.59
-23.62
-24.38
-24.40
-23.46
-21.64
-19.29
-16.95
-15.04
-13.77
-13.06
-12.58
-11.96
-10.97
-9.61
-8.08
-6.66
-5.49
-4.50
-3.47
-2.19
-0.61
1.05
2.46
3.37
3.79
4.02
4.49
5.45
6.86
8.39
9.64
10.41
10.84
11.31
12.21
13.71
15.76
18.16
20.78
23.62
26.59
29.33
31.03
30.68
27.49
21.42
13.31
4.73
-2.71
-7.92
-10.64
-11.33
-10.78
-9.63
-8.23
-6.74
-5.37
-4.49
-4.56
-5.86
-8.25
-11.12
-13.57
-14.84
-14.57
-12.96
-10.66
-8.52
-7.26
-7.27
-8.60
-10.92
-13.79
-16.70
-19.20
-20.99
-21.88
-21.82
-20.87
-19.15
-16.78
-13.96
-10.89
-7.79
-4.94
-2.66
-1.22
-0.81
-1.43
-2.88
-4.76
-6.63
-8.14
-9.18
-9.91
-10.67
-11.78
-13.37
-15.32
-17.33
-19.08
-20.39
-21.32
-22.02
-22.63
-23.12
-23.34
-23.16
-22.57
-21.72
-20.80
-19.94
-19.04
-17.89
-16.29
-14.21
-11.86
-9.56
-7.54
-5.79
-4.03
-1.90
0.79
3.95
7.20
10.06
12.12
13.25
13.53
13.22
12.54
11.57
10.19
8.15
5.21
1.32
-3.31
-8.19
-12.76
-16.53
-19.36
-21.34
-22.69
-23.46
-23.50
-22.45
-20.10
-16.59
-12.47
-8.53
-5.43
-3.49
-2.53
-2.12
-1.83
-1.40
-0.84
-0.26
0.21
0.54
0.79
1.02
1.30
1.65
2.05
2.51
3.00
3.51
3.99
4.39
4.71
5.00
5.38
5.93
6.72
7.65
8.54
9.18
9.41
9.16
8.50
7.58
6.60
5.77
5.27
5.25
5.72
6.64
7.87
9.25
10.61
11.76
12.61
13.08
13.19
13.03
12.72
12.44
12.31
12.37
12.60
12.93
13.30
13.69
14.12
14.62
15.15
15.62
15.92
15.97
15.75
15.32
14.77
14.17
13.54
12.81
11.93
10.89
9.76
8.66
7.70
6.87
6.06
5.08
3.78
2.19
0.55
-0.81
-1.55
-1.51
-0.76
0.45
1.85
3.27
4.71
6.24
7.88
9.56
11.06
12.16
12.70
12.73
12.44
12.13
12.06
12.37
13.04
13.87
14.63
15.10
15.20
15.00
14.67
14.35
14.09
13.82
13.46
12.94
12.26
11.51
10.74
9.95
9.07
8.04
6.84
5.47
3.99
2.45
0.88
-0.63
-1.96
-2.99
-3.61
-3.81
-3.60
-3.07
-2.23
-1.09
0.35
2.03
3.82
5.55
7.04
8.20
9.02
9.57
9.90
10.09
10.16
10.18
10.21
10.32
10.52
10.76
10.96
11.01
10.89
10.59
10.17
9.71
9.25
8.81
8.38
7.93
7.44
6.89
6.29
5.64
4.97
4.30
3.65
3.00
2.38
1.78
1.21
0.64
0.00
-0.76
-1.70
-2.77
-3.82
-4.62
-4.94
-4.65
-3.75
-2.37
-0.70
1.05
2.72
4.15
5.26
6.00
6.37
6.41
6.20
5.89
5.62
5.53
5.70
6.11
6.65
7.18
7.59
7.80
7.79
7.56
7.13
6.56
5.88
5.18
4.53
4.01
3.61
3.31
3.04
2.73
2.34
1.84
1.25
0.60
-0.08
-0.73
-1.33
-1.88
-2.38
-2.89
-3.41
-3.94
-4.52
-5.19
-6.03
-7.07
-8.23
-9.30
-10.00
-10.08
-9.41
-8.04
-6.17
-4.06
-1.93
0.02
1.65
2.91
3.72
4.09
4.07
3.79
3.43
3.16
3.12
3.35
3.76
4.24
4.63
4.86
4.96
4.99
5.04
5.13
5.20
5.15
4.90
4.45
3.89
3.37
3.01
2.83
2.73
2.58
2.24
1.67
0.98
0.31
-0.23
-0.61
-0.94
-1.33
-1.88
-2.53
-3.15
-3.58
-3.78
-3.86
-4.00
-4.42
-5.17
-6.18
-7.24
-8.08
-8.48
-8.36
-7.73
-6.70
-5.41
-3.99
-2.53
-1.15
0.06
1.00
1.57
1.78
1.72
1.57
1.48
1.57
1.82
2.17
2.51
2.81
3.08
3.36
3.64
3.87
3.94
3.77
3.38
2.86
2.34
1.93
1.68
1.56
1.49
1.38
1.17
0.88
0.58
0.34
0.19
0.08
-0.09
-0.42
-0.96
-1.66
-2.37
-2.97
-3.38
-3.64
-3.83
-4.07
-4.38
-4.77
-5.21
-5.68
-6.21
-6.81
-7.39
-7.81
-7.88
-7.50
-6.68
-5.56
-4.31
-3.12
-2.07
-1.18
-0.47
0.09
0.48
0.72
0.86
0.96
1.06
1.15
1.19
1.16
1.07
1.00
1.04
1.21
1.47
1.75
1.95
2.06
2.10
2.10
2.08
2.06
2.01
1.88
1.68
1.41
1.08
0.74
0.40
0.06
-0.24
-0.50
-0.69
-0.84
-0.94
-1.02
-1.12
-1.27
-1.53
-1.95
-2.57
-3.32
-4.10
-4.73
-5.11
-5.25
-5.26
-5.36
-5.71
-6.31
-7.00
-7.51
-7.62
-7.20
-6.30
-5.11
-3.82
-2.61
-1.56
-0.69
0.02
0.57
0.96
1.18
1.23
1.17
1.09
1.10
1.26
1.58
2.00
2.40
2.67
2.75
2.68
2.55
2.45
2.46
2.55
2.65
2.68
2.61
2.45
2.26
2.11
1.98
1.78
1.42
0.85
0.16
-0.49
-0.90
-0.98
-0.78
-0.49
-0.29
-0.32
-0.57
-0.95
-1.35
-1.69
-1.98
-2.25
-2.57
-2.96
-3.41
-3.93
-4.48
-5.02
-5.48
-5.76
-5.79
-5.53
-5.00
-4.28
-3.43
-2.55
-1.67
-0.85
-0.14
0.40
0.74
0.87
0.86
0.78
0.71
0.72
0.81
0.98
1.23
1.54
1.90
2.28
2.60
2.76
2.69
2.36
1.85
1.34
1.00
0.91
1.05
1.27
1.41
1.40
1.26
1.10
1.00
0.96
0.91
0.77
0.51
0.16
-0.21
-0.57
-0.97
-1.47
-2.08
-2.74
-3.33
-3.70
-3.83
-3.80
-3.74
-3.80
-4.08
-4.53
-5.07
-5.56
-5.87
-5.92
-5.68
-5.14
-4.32
-3.30
-2.21
-1.18
-0.35
0.19
0.45
0.51
0.51
0.57
0.75
0.99
1.17
1.18
0.99
0.63
0.26
0.04
0.08
0.38
0.87
1.38
1.74
1.85
1.70
1.38
1.05
0.82
0.77
0.87
1.04
1.16
1.14
0.95
0.61
0.17
-0.32
-0.79
-1.18
-1.45
-1.57
-1.57
-1.52
-1.52
-1.65
-1.92
-2.31
-2.72
-3.11
-3.43
-3.73
-4.04
-4.40
-4.79
-5.17
-5.44
-5.55
-5.43
-5.05
-4.40
-3.50
-2.40
-1.20
-0.04
0.94
1.64
2.01
2.08
1.91
1.64
1.40
1.26
1.28
1.42
1.64
1.89
2.13
2.31
2.41
2.40
2.30
2.16
2.03
1.97
2.01
2.14
2.26
2.26
2.06
1.61
1.01
0.41
-0.02
-0.16
-0.02
0.25
0.48
0.51
0.30
-0.05
-0.38
-0.56
-0.60
-0.55
-0.54
-0.66
-0.97
-1.46
-2.09
-2.82
-3.55
-4.17
-4.53
-4.55
-4.19
-3.51
-2.64
-1.71
-0.83
-0.06
0.55
0.98
1.22
1.31
1.27
1.16
0.99
0.83
0.70
0.67
0.77
1.00
1.32
1.67
1.94
2.10
2.13
2.06
1.95
1.89
1.90
1.98
2.08
2.10
1.96
1.60
1.06
0.41
-0.24
-0.78
-1.12
-1.25
-1.19
-1.02
-0.84
-0.75
-0.85
-1.18
-1.69
-2.27
-2.79
-3.15
-3.35
-3.45
-3.57
-3.77
-4.01
-4.18
-4.15
-3.83
-3.26
-2.54
-1.80
-1.11
-0.50
0.05
0.53
0.88
1.05
1.05
0.93
0.81
0.79
0.89
1.03
1.16
1.22
1.25
1.33
1.49
1.71
1.92
2.00
1.90
1.65
1.32
1.03
0.83
0.77
0.80
0.87
0.92
0.88
0.72
0.47
0.16
-0.13
-0.34
-0.45
-0.47
-0.50
-0.62
-0.88
-1.27
-1.71
-2.10
-2.39
-2.58
-2.77
-3.05
-3.42
-3.83
-4.11
-4.12
-3.81
-3.22
-2.45
-1.64
-0.90
-0.29
0.17
0.47
0.65
0.77
0.89
1.04
1.22
1.39
1.51
1.58
1.64
1.76
1.91
2.03
2.03
1.84
1.53
1.23
1.10
1.17
1.39
1.60
1.65
1.50
1.22
0.97
0.83
0.82
0.85
0.85
0.77
0.59
0.34
0.04
-0.31
-0.67
-1.01
-1.27
-1.45
-1.59
-1.78
-2.05
-2.41
-2.78
-3.04
-3.16
-3.15
-3.05
-2.92
-2.73
-2.43
-1.98
-1.41
-0.78
-0.21
0.23
0.49
0.61
0.67
0.76
0.94
1.20
1.47
1.66
1.70
1.60
1.42
1.29
1.27
1.37
1.50
1.58
1.53
1.37
1.15
0.94
0.78
0.66
0.56
0.48
0.45
0.50
0.65
0.85
1.01
1.05
0.90
0.58
0.14
-0.31
-0.66
-0.89
-0.97
-0.98
-0.97
-1.01
-1.13
-1.34
-1.64
-1.99
-2.34
-2.62
-2.71
-2.51
-1.98
-1.16
-0.20
0.70
1.39
1.76
1.85
1.75
1.56
1.39
1.28
1.26
1.34
1.50
1.74
2.01
2.23
2.36
2.40
2.35
2.27
2.17
2.05
1.92
1.80
1.72
1.70
1.74
1.77
1.71
1.50
1.12
0.66
0.23
-0.05
-0.13
-0.01
0.24
0.49
0.64
0.58
0.24
-0.38
-1.18
-2.02
-2.74
-3.22
-3.42
-3.38
-3.20
-2.97
-2.74
-2.52
-2.27
-1.95
-1.53
-1.02
-0.47
0.04
0.47
0.76
0.92
0.95
0.89
0.75
0.56
0.34
0.10
-0.18
-0.50
-0.84
-1.13
-1.30
-1.28
-1.08
-0.81
-0.64
-0.73
-1.12
-1.74
-2.42
-2.98
-3.36
-3.58
-3.73
-3.85
-3.96
-3.94
-3.74
-3.33
-2.76
-2.10
-1.41
-0.68
0.13
1.03
1.94
2.73
3.28
3.51
3.43
3.10
2.60
1.99
1.32
0.66
0.06
-0.41
-0.72
-0.86
-0.88
-0.81
-0.67
-0.49
-0.30
-0.17
-0.18
-0.38
-0.78
-1.33
-1.93
-2.47
-2.80
-2.84
-2.53
-1.92
-1.11
-0.22
0.65
1.46
2.22
2.95
3.66
4.30
4.76
4.96
4.85
4.53
4.14
3.87
3.81
3.93
4.04
3.93
3.46
2.63
1.61
0.63
-0.11
-0.60
-0.92
-1.26
-1.72
-2.31
-2.97
-3.58
-4.07
-4.44
-4.70
-4.87
-4.92
-4.82
-4.50
-3.97
-3.23
-2.36
-1.41
-0.43
0.57
1.56
2.49
3.29
3.87
4.19
4.27
4.20
4.06
3.91
3.72
3.45
3.08
2.62
2.16
1.77
1.51
1.35
1.22
1.06
0.84
0.56
0.24
-0.12
-0.52
-0.97
-1.46
-1.93
-2.30
-2.52
-2.54
-2.34
-1.92
-1.29
-0.49
0.42
1.36
2.26
3.08
3.82
4.46
4.99
5.41
5.71
5.87
5.94
5.93
5.89
5.84
5.80
5.81
5.93
6.19
6.62
7.18
7.76
8.28
8.68
9.00
9.31
9.68
10.15
10.70
11.24
11.74
12.15
12.49
12.79
13.07
13.31
13.47
13.44
13.10
12.27
10.82
8.66
5.80
2.40
-1.31
-4.99
-8.34
-11.16
-13.34
-14.96
-16.14
-17.03
-17.73
-18.25
-18.55
-18.60
-18.41
-18.04
-17.58
-17.09
-16.61
-16.13
-15.66
-15.21
-14.82
-14.52
-14.28
-14.02
-13.57
-12.74
-11.41
-9.59
-7.46
-5.28
-3.30
-1.67
-0.36
0.72
1.66
2.48
3.10
3.46
3.54
3.47
3.42
3.53
3.86
4.32
4.76
5.01
4.97
4.63
4.05
3.34
2.63
2.00
1.53
1.21
1.00
0.83
0.66
0.50
0.39
0.33
0.33
0.29
0.13
-0.19
-0.70
-1.35
-2.07
-2.78
-3.40
-3.93
-4.37
-4.77
-5.20
-5.67
-6.16
-6.57
-6.72
-6.46
-5.73
-4.56
-3.13
-1.64
-0.26
0.93
1.93
2.78
3.52
4.17
4.72
5.14
5.45
5.62
5.64
5.47
5.10
4.55
3.90
3.30
2.88
2.73
2.83
3.07
3.28
3.34
3.21
2.95
2.62
2.30
2.00
1.67
1.26
0.81
0.36
0.00
-0.20
-0.27
-0.29
-0.35
-0.55
-0.86
-1.24
-1.63
-2.01
-2.36
-2.70
-3.00
-3.20
-3.26
-3.17
-3.05
-3.02
-3.16
-3.43
-3.72
-3.87
-3.81
-3.61
-3.37
-3.22
-3.16
-3.11
-2.95
-2.57
-1.97
-1.15
-0.17
0.94
2.11
3.23
4.19
4.88
5.27
5.41
5.40
5.30
5.12
4.85
4.46
3.98
3.47
3.01
2.66
2.43
2.25
2.08
1.86
1.58
1.27
0.92
0.54
0.14
-0.25
-0.60
-0.85
-0.96
-0.93
-0.83
-0.71
-0.62
-0.54
-0.41
-0.15
0.23
0.71
1.18
1.55
1.74
1.75
1.60
1.29
0.89
0.46
0.07
-0.20
-0.29
-0.20
0.04
0.34
0.63
0.83
0.89
0.81
0.61
0.34
0.04
-0.27
-0.58
-0.87
-1.15
-1.42
-1.70
-2.02
-2.41
-2.87
-3.39
-3.88
-4.25
-4.48
-4.59
-4.64
-4.72
-4.86
-5.04
-5.19
-5.25
-5.16
-4.90
-4.39
-3.60
-2.47
-1.04
0.55
2.11
3.44
4.36
4.83
4.92
4.79
4.61
4.52
4.55
4.62
4.61
4.43
4.06
3.58
3.14
2.86
2.81
2.91
3.06
3.15
3.13
2.99
2.79
2.55
2.28
2.00
1.74
1.54
1.41
1.30
1.16
0.92
0.56
0.15
-0.21
-0.44
-0.50
-0.38
-0.15
0.10
0.26
0.22
-0.11
-0.71
-1.45
-2.15
-2.62
-2.74
-2.51
-2.06
-1.48
-0.88
-0.28
0.29
0.76
1.02
0.97
0.58
-0.07
-0.79
-1.36
-1.62
-1.50
-1.10
-0.60
-0.22
-0.10
-0.30
-0.74
-1.26
-1.71
-2.02
-2.24
-2.47
-2.80
-3.22
-3.65
-3.99
-4.22
-4.38
-4.53
-4.68
-4.75
-4.60
-4.10
-3.24
-2.13
-1.01
-0.08
0.54
0.86
1.02
1.18
1.45
1.83
2.24
2.58
2.83
3.04
3.27
3.59
3.98
4.31
4.50
4.48
4.29
4.02
3.73
3.44
3.14
2.82
2.52
2.29
2.18
2.18
2.24
2.29
2.28
2.21
2.09
1.95
1.77
1.55
1.28
0.95
0.61
0.30
0.06
-0.08
-0.14
-0.15
-0.18
-0.23
-0.31
-0.42
-0.56
-0.77
-1.07
-1.41
-1.72
-1.87
-1.78
-1.42
-0.94
-0.53
-0.40
-0.63
-1.16
-1.79
-2.31
-2.56
-2.48
-2.11
-1.56
-0.92
-0.27
0.33
0.83
1.16
1.30
1.24
1.00
0.61
0.16
-0.25
-0.56
-0.69
-0.65
-0.52
-0.42
-0.45
-0.61
-0.88
-1.14
-1.31
-1.37
-1.33
-1.20
-1.01
-0.78
-0.58
-0.47
-0.56
-0.87
-1.37
-1.95
-2.47
-2.83
-2.99
-2.97
-2.84
-2.70
-2.62
-2.68
-2.89
-3.24
-3.66
-4.11
-4.57
-5.02
-5.40
-5.60
-5.49
-4.96
-4.03
-2.83
-1.58
-0.46
0.46
1.23
1.92
2.58
3.18
3.66
3.98
4.17
4.33
4.51
4.76
5.02
5.18
5.16
4.93
4.56
4.17
3.91
3.87
4.01
4.22
4.30
4.11
3.61
2.90
2.13
1.46
0.95
0.55
0.23
-0.05
-0.25
-0.31
-0.23
-0.06
0.07
0.02
-0.29
-0.83
-1.47
-2.05
-2.44
-2.56
-2.48
-2.28
-2.09
-1.96
-1.87
-1.77
-1.58
-1.29
-0.89
-0.43
0.02
0.45
0.84
1.19
1.46
1.60
1.56
1.30
0.89
0.43
0.08
-0.08
-0.02
0.19
0.42
0.59
0.67
0.67
0.69
0.77
0.95
1.21
1.48
1.68
1.71
1.53
1.14
0.64
0.17
-0.16
-0.31
-0.32
-0.28
-0.27
-0.33
-0.44
-0.60
-0.80
-1.07
-1.43
-1.83
-2.18
-2.37
-2.34
-2.13
-1.89
-1.77
-1.86
-2.09
-2.32
-2.38
-2.23
-1.94
-1.67
-1.55
-1.58
-1.68
-1.70
-1.57
-1.32
-1.10
-1.07
-1.30
-1.75
-2.30
-2.80
-3.16
-3.40
-3.57
-3.71
-3.82
-3.82
-3.61
-3.15
-2.46
-1.64
-0.79
0.03
0.80
1.55
2.28
2.99
3.64
4.21
4.67
5.00
5.20
5.23
5.09
4.78
4.34
3.79
3.20
2.59
2.04
1.57
1.21
0.92
0.66
0.36
0.04
-0.22
-0.33
-0.22
0.09
0.53
0.97
1.33
1.54
1.57
1.45
1.21
0.93
0.72
0.67
0.83
1.15
1.55
1.87
2.01
1.95
1.74
1.48
1.23
1.01
0.79
0.55
0.31
0.16
0.19
0.42
0.81
1.22
1.51
1.61
1.52
1.33
1.12
0.93
0.76
0.58
0.41
0.29
0.26
0.34
0.48
0.62
0.70
0.66
0.52
0.29
0.03
-0.26
-0.56
-0.90
-1.24
-1.57
-1.83
-1.95
-1.91
-1.72
-1.41
-1.05
-0.75
-0.56
-0.50
-0.56
-0.69
-0.81
-0.89
-0.89
-0.78
-0.57
-0.27
0.09
0.42
0.64
0.64
0.41
0.01
