1530145803.00
64.000000
-0.00
-0.00
-0.00
-0.00
-0.00
-0.00
-0.00
-0.00
-0.00
-0.00
0.00
0.01
0.01
-0.00
-0.03
-0.05
-0.05
0.00
0.13
0.36
0.66
1.01
1.37
1.72
2.06
2.40
2.79
3.24
3.80
4.42
5.06
5.66
6.20
6.68
7.15
7.68
8.31
9.14
10.09
11.04
11.89
12.57
13.14
13.76
14.65
15.95
17.91
20.32
22.93
25.43
27.64
29.61
31.63
34.13
37.45
41.98
47.43
53.28
58.96
64.08
68.67
73.16
78.23
84.42
92.31
101.42
111.00
120.14
128.21
135.17
141.57
148.70
155.32
163.77
174.78
188.52
203.74
217.40
224.96
221.61
203.90
171.08
125.79
72.18
14.75
-43.31
-100.73
-157.69
-214.69
-271.57
-327.25
-379.76
-427.60
-469.69
-505.49
-534.59
-556.35
-569.65
-572.95
-564.83
-544.33
-511.82
-468.83
-417.97
-362.32
-304.89
-248.23
-194.35
-144.81
-100.46
-61.31
-26.06
7.78
43.10
81.90
124.15
167.46
207.83
241.25
265.09
278.92
284.10
282.82
277.00
267.88
256.15
242.44
227.54
212.40
197.80
184.07
171.01
158.09
144.79
130.96
116.91
103.34
90.97
80.35
71.53
64.06
57.25
50.41
43.19
35.68
28.43
21.96
16.65
12.59
9.57
7.16
4.92
2.57
0.06
-2.40
-4.50
-5.98
-6.76
-7.00
-7.01
-7.10
-7.45
-8.05
-8.74
-9.33
-9.64
-9.60
-9.25
-8.69
-8.04
-7.44
-6.97
-6.69
-6.59
-6.59
-6.58
-6.44
-6.08
-5.49
-4.71
-3.86
-3.14
-2.72
-2.70
-3.02
-3.51
-3.91
-4.04
-3.77
-3.12
-2.20
-1.14
-0.10
0.79
1.40
1.60
1.39
0.85
0.16
-0.47
-0.93
-1.17
-1.27
-1.31
-1.30
-1.24
-1.09
-0.89
-0.67
-0.52
-0.45
-0.47
-0.49
-0.46
-0.38
-0.25
-0.10
0.06
0.25
0.47
0.73
1.01
1.32
1.68
2.10
2.59
3.15
3.70
4.21
4.61
4.93
5.15
5.24
5.13
4.73
3.98
2.89
1.59
0.19
-1.16
-2.36
-3.41
-4.36
-5.26
-6.14
-6.95
-7.61
-8.08
-8.31
-8.30
-8.01
-7.40
-6.47
-5.28
-4.02
-2.93
-2.20
-1.90
-1.92
-2.09
-2.26
-2.37
-2.46
-2.56
-2.67
-2.71
-2.62
-2.40
-2.13
-1.90
-1.78
-1.72
-1.65
-1.51
-1.35
-1.20
-1.12
-1.10
-1.05
-0.87
-0.49
0.03
0.55
0.95
1.16
1.22
1.23
1.26
1.29
1.24
1.00
0.54
-0.08
-0.69
-1.11
-1.30
-1.34
-1.37
-1.52
-1.85
-2.30
-2.75
-3.12
-3.38
-3.57
-3.78
-4.10
-4.58
-5.22
-5.91
-6.50
-6.80
-6.62
-5.87
-4.58
-2.91
-1.06
0.77
2.43
3.84
4.95
5.71
6.09
6.10
5.84
5.45
5.10
4.90
4.86
4.93
5.02
5.06
5.03
4.94
4.79
4.62
4.46
4.35
4.33
4.38
4.45
4.43
4.20
3.67
2.86
1.87
0.86
0.02
-0.58
-0.93
-1.11
-1.23
-1.35
-1.50
-1.63
-1.70
-1.71
-1.69
-1.69
-1.75
-1.92
-2.21
-2.59
-3.06
-3.58
-4.11
-4.60
-5.05
-5.46
-5.88
-6.34
-6.84
-7.28
-7.56
-7.53
-7.12
-6.29
-5.11
-3.67
-2.11
-0.56
0.85
2.05
2.99
3.72
4.29
4.74
5.10
5.32
5.39
5.34
5.23
5.17
5.23
5.39
5.58
5.71
5.71
5.59
5.37
5.11
4.83
4.52
4.16
3.72
3.19
2.55
1.81
1.00
0.22
-0.44
-0.91
-1.22
-1.46
-1.75
-2.16
-2.66
-3.15
-3.54
-3.78
-3.93
-4.08
-4.30
-4.65
-5.09
-5.59
-6.11
-6.65
-7.21
-7.75
-8.11
-8.11
-7.57
-6.44
-4.83
-3.00
-1.27
0.20
1.34
2.25
3.03
3.75
4.34
4.72
4.86
4.82
4.73
4.72
4.83
5.00
5.07
4.94
4.56
4.01
3.46
3.03
2.80
2.74
2.73
2.67
2.54
2.36
2.20
2.08
1.94
1.66
1.14
0.41
-0.39
-1.03
-1.39
-1.47
-1.45
-1.49
-1.75
-2.22
-2.79
-3.33
-3.73
-4.00
-4.23
-4.49
-4.87
-5.37
-5.98
-6.63
-7.27
-7.81
-8.16
-8.21
-7.84
-6.99
-5.66
-3.99
-2.19
-0.51
0.86
1.87
2.58
3.14
3.67
4.19
4.67
5.04
5.29
5.46
5.63
5.84
6.04
6.14
6.03
5.69
5.18
4.63
4.18
3.90
3.76
3.64
3.41
2.98
2.35
1.60
0.88
0.28
-0.16
-0.51
-0.84
-1.20
-1.61
-2.02
-2.44
-2.88
-3.42
-4.05
-4.73
-5.33
-5.76
-6.01
-6.17
-6.40
-6.76
-7.24
-7.69
-7.96
-7.97
-7.77
-7.44
-7.09
-6.75
-6.37
-5.84
-5.08
-4.02
-2.66
-1.06
0.65
2.34
3.87
5.15
6.16
6.94
7.57
8.11
8.58
8.94
9.15
9.21
9.12
8.92
8.63
8.26
7.85
7.44
7.08
6.79
6.54
6.23
5.80
5.24
4.62
4.07
3.67
3.39
3.11
2.71
2.14
1.46
0.80
0.30
-0.03
-0.23
-0.42
-0.66
-1.01
-1.44
-1.92
-2.43
-2.94
-3.45
-3.95
-4.46
-4.97
-5.48
-5.97
-6.39
-6.73
-6.96
-7.09
-7.10
-6.95
-6.56
-5.88
-4.93
-3.76
-2.49
-1.21
0.00
1.12
2.11
2.92
3.51
3.84
3.92
3.81
3.60
3.37
3.20
3.17
3.29
3.54
3.85
4.12
4.26
4.27
4.16
4.01
3.87
3.74
3.58
3.34
2.98
2.50
1.93
1.30
0.68
0.12
-0.35
-0.69
-0.89
-0.97
-0.93
-0.80
-0.64
-0.49
-0.43
-0.48
-0.68
-1.00
-1.40
-1.80
-2.15
-2.46
-2.74
-3.08
-3.58
-4.30
-5.25
-6.37
-7.55
-8.63
-9.44
-9.87
-9.82
-9.26
-8.25
-6.89
-5.35
-3.80
-2.37
-1.17
-0.20
0.57
1.22
1.83
2.45
3.11
3.78
4.41
4.90
5.22
5.34
5.31
5.18
5.00
4.80
4.59
4.37
4.13
3.90
3.67
3.45
3.21
2.90
2.51
2.09
1.71
1.46
1.40
1.51
1.71
1.88
1.93
1.80
1.52
1.13
0.67
0.19
-0.27
-0.68
-0.97
-1.11
-1.10
-1.00
-0.91
-0.95
-1.21
-1.65
-2.18
-2.68
-3.09
-3.45
-3.86
-4.39
-5.06
-5.75
-6.30
-6.53
-6.34
-5.75
-4.84
-3.74
-2.54
-1.32
-0.10
1.07
2.14
3.07
3.79
4.28
4.52
4.49
4.23
3.79
3.30
2.91
2.74
2.82
3.06
3.29
3.36
3.20
2.87
2.50
2.24
2.11
2.02
1.85
1.46
0.86
0.15
-0.54
-1.06
-1.40
-1.62
-1.84
-2.11
-2.45
-2.77
-3.01
-3.13
-3.14
-3.10
-3.05
-3.02
-3.03
-3.13
-3.37
-3.79
-4.39
-5.09
-5.77
-6.30
-6.59
-6.58
-6.24
-5.58
-4.63
-3.50
-2.34
-1.29
-0.43
0.26
0.90
1.64
2.54
3.55
4.53
5.30
5.71
5.75
5.48
5.05
4.56
4.10
3.68
3.34
3.11
3.04
3.15
3.42
3.72
3.93
3.94
3.72
3.36
2.95
2.57
2.26
1.98
1.73
1.47
1.19
0.83
0.37
-0.22
-0.90
-1.57
-2.10
-2.41
-2.55
-2.66
-2.92
-3.42
-4.10
-4.82
-5.46
-5.98
-6.49
-7.09
-7.83
-8.68
-9.52
-10.28
-10.90
-11.40
-11.75
-11.85
-11.57
-10.80
-9.50
-7.77
-5.76
-3.62
-1.42
0.81
3.00
5.06
6.87
8.29
9.27
9.85
10.18
10.39
10.60
10.83
11.03
11.06
10.85
10.38
9.75
9.10
8.55
8.11
7.71
7.21
6.58
5.90
5.33
5.01
4.90
4.79
4.43
3.64
2.51
1.32
0.40
-0.04
-0.05
0.16
0.35
0.34
0.10
-0.29
-0.71
-1.09
-1.38
-1.57
-1.69
-1.81
-2.01
-2.39
-2.96
-3.66
-4.35
-4.89
-5.19
-5.23
-5.04
-4.67
-4.14
-3.50
-2.79
-2.08
-1.44
-0.90
-0.43
0.00
0.43
0.83
1.13
1.31
1.37
1.39
1.46
1.62
1.86
2.06
2.13
2.04
1.81
1.56
1.38
1.31
1.28
1.20
0.98
0.59
0.06
-0.51
-1.00
-1.33
-1.48
-1.47
-1.39
-1.34
-1.38
-1.53
-1.76
-2.00
-2.22
-2.39
-2.52
-2.65
-2.78
-2.92
-3.08
-3.27
-3.52
-3.84
-4.21
-4.60
-4.96
-5.27
-5.54
-5.74
-5.78
-5.56
-4.96
-3.93
-2.55
-0.99
0.48
1.62
2.32
2.66
2.80
2.94
3.18
3.46
3.67
3.68
3.48
3.17
2.89
2.81
2.96
3.30
3.71
4.07
4.28
4.28
4.04
3.62
3.10
2.63
2.30
2.13
2.02
1.87
1.61
1.30
1.03
0.91
0.93
0.98
0.88
0.50
-0.14
-0.90
-1.54
-1.91
-1.94
-1.72
-1.39
-1.13
-1.03
-1.10
-1.31
-1.60
-1.92
-2.30
-2.76
-3.32
-3.99
-4.69
-5.34
-5.86
-6.20
-6.29
-6.10
-5.62
-4.87
-3.90
-2.85
-1.83
-0.92
-0.15
0.54
1.19
1.83
2.43
2.94
3.32
3.55
3.69
3.78
3.88
4.01
4.17
4.31
4.33
4.21
3.94
3.59
3.28
3.10
3.06
3.12
3.18
3.16
3.04
2.84
2.56
2.17
1.63
0.95
0.22
-0.43
-0.84
-0.99
-0.92
-0.77
-0.67
-0.68
-0.77
-0.91
-1.05
-1.23
-1.46
-1.76
-2.14
-2.55
-2.97
-3.39
-3.83
-4.32
-4.89
-5.52
-6.10
-6.50
-6.52
-6.04
-5.08
-3.83
-2.56
-1.53
-0.87
-0.53
-0.34
-0.12
0.22
0.62
1.00
1.26
1.41
1.54
1.73
2.01
2.33
2.61
2.77
2.80
2.71
2.55
2.37
2.19
2.01
1.84
1.71
1.62
1.54
1.41
1.16
0.75
0.19
-0.42
-0.97
-1.40
-1.69
-1.86
-2.00
-2.14
-2.31
-2.48
-2.68
-2.92
-3.24
-3.69
-4.26
-4.90
-5.56
-6.15
-6.63
-7.01
-7.32
-7.70
-8.27
-9.11
-10.12
-11.07
-11.59
-11.39
-10.35
-8.62
-6.51
-4.34
-2.29
-0.39
1.44
3.24
4.95
6.44
7.58
8.36
8.86
9.22
9.54
9.81
10.00
10.06
9.94
9.67
9.26
8.74
8.11
7.43
6.77
6.21
5.79
5.50
5.31
5.12
4.83
4.39
3.77
3.05
2.35
1.81
1.53
1.50
1.64
1.82
1.97
2.05
2.05
1.96
1.74
1.31
0.64
-0.20
-1.06
-1.79
-2.25
-2.43
-2.39
-2.26
-2.18
-2.22
-2.41
-2.73
-3.15
-3.63
-4.14
-4.64
-5.07
-5.32
-5.30
-4.92
-4.17
-3.12
-1.94
-0.79
0.21
1.05
1.76
2.41
2.99
3.47
3.76
3.84
3.70
3.40
3.07
2.82
2.76
2.87
3.08
3.29
3.39
3.34
3.18
2.96
2.68
2.29
1.69
0.85
-0.14
-1.04
-1.62
-1.76
-1.55
-1.22
-1.05
-1.18
-1.57
-2.03
-2.38
-2.55
-2.59
-2.66
-2.86
-3.19
-3.52
-3.68
-3.62
-3.42
-3.28
-3.46
-4.05
-4.95
-5.91
-6.58
-6.73
-6.29
-5.37
-4.18
-2.90
-1.67
-0.52
0.51
1.37
2.02
2.43
2.63
2.69
2.71
2.76
2.89
3.12
3.43
3.77
4.06
4.21
4.17
3.96
3.68
3.44
3.31
3.29
3.28
3.22
3.08
2.89
2.69
2.52
2.37
2.17
1.90
1.54
1.14
0.75
0.40
0.09
-0.20
-0.53
-0.91
-1.35
-1.80
-2.21
-2.51
-2.65
-2.65
-2.56
-2.44
-2.36
-2.40
-2.61
-3.05
-3.71
-4.55
-5.43
-6.20
-6.69
-6.77
-6.41
-5.66
-4.61
-3.42
-2.22
-1.13
-0.24
0.48
1.08
1.66
2.31
3.02
3.70
4.23
4.49
4.46
4.19
3.83
3.55
3.49
3.68
4.05
4.46
4.73
4.77
4.56
4.21
3.85
3.60
3.48
3.39
3.25
3.00
2.66
2.33
2.06
1.88
1.71
1.48
1.13
0.70
0.28
-0.02
-0.16
-0.19
-0.22
-0.39
-0.79
-1.43
-2.20
-2.95
-3.53
-3.82
-3.84
-3.69
-3.52
-3.50
-3.73
-4.23
-4.89
-5.52
-5.92
-5.94
-5.53
-4.75
-3.73
-2.66
-1.68
-0.87
-0.26
0.17
0.48
0.73
0.96
1.18
1.37
1.49
1.54
1.53
1.52
1.57
1.66
1.73
1.67
1.42
1.04
0.63
0.29
0.04
-0.21
-0.59
-1.16
-1.86
-2.59
-3.20
-3.65
-3.99
-4.32
-4.75
-5.27
-5.81
-6.28
-6.58
-6.69
-6.65
-6.46
-6.13
-5.58
-4.76
-3.66
-2.39
-1.13
-0.11
0.52
0.72
0.57
0.19
-0.29
-0.77
-1.15
-1.31
-1.09
-0.43
0.62
1.87
3.04
3.92
4.43
4.69
4.90
5.23
5.72
6.27
6.72
6.92
6.86
6.59
6.26
5.98
5.81
5.73
5.69
5.66
5.57
5.43
5.22
4.93
4.58
4.19
3.76
3.32
2.87
2.39
1.90
1.43
1.00
0.68
0.45
0.29
0.18
0.09
0.03
0.03
0.11
0.21
0.27
0.17
-0.13
-0.63
-1.27
-1.93
-2.47
-2.80
-2.86
-2.70
-2.43
-2.24
-2.31
-2.74
-3.48
-4.38
-5.22
-5.82
-6.08
-5.99
-5.60
-4.95
-4.07
-3.04
-1.92
-0.83
0.13
0.93
1.58
2.15
2.67
3.14
3.54
3.87
4.11
4.31
4.47
4.58
4.60
4.52
4.36
4.17
4.03
3.95
3.91
3.84
3.68
3.37
2.97
2.54
2.21
2.03
1.99
2.00
1.94
1.73
1.34
0.83
0.28
-0.23
-0.66
-1.04
-1.40
-1.80
-2.27
-2.79
-3.27
-3.65
-3.88
-3.95
-3.94
-3.98
-4.15
-4.51
-5.00
-5.50
-5.92
-6.19
-6.32
-6.33
-6.20
-5.90
-5.35
-4.56
-3.58
-2.54
-1.55
-0.63
0.22
1.07
1.93
2.74
3.38
3.74
3.79
3.62
3.39
3.28
3.35
3.56
3.76
3.83
3.71
3.46
3.19
3.01
2.98
3.05
3.13
3.11
2.95
2.68
2.36
2.05
1.79
1.52
1.20
0.77
0.19
-0.49
-1.16
-1.73
-2.11
-2.31
-2.39
-2.44
-2.53
-2.68
-2.88
-3.10
-3.33
-3.58
-3.87
-4.23
-4.71
-5.30
-5.99
-6.73
-7.48
-8.23
-8.98
-9.73
-10.42
-10.92
-11.10
-10.85
-10.16
-9.12
-7.87
-6.51
-5.07
-3.56
-2.00
-0.47
0.91
2.07
3.05
3.98
5.01
6.21
7.53
8.80
9.85
10.56
10.89
10.91
10.67
10.24
9.69
9.05
8.40
7.79
7.28
6.88
6.59
6.38
6.20
5.96
5.60
5.03
4.25
3.31
2.35
1.52
0.95
0.67
0.60
0.59
0.49
0.21
-0.26
-0.82
-1.40
-1.92
-2.36
-2.76
-3.13
-3.45
-3.70
-3.84
-3.85
-3.77
-3.69
-3.72
-3.91
-4.24
-4.55
-4.66
-4.38
-3.67
-2.63
-1.45
-0.36
0.50
1.12
1.57
1.92
2.19
2.37
2.41
2.29
2.06
1.84
1.73
1.81
2.07
2.44
2.81
3.08
3.20
3.19
3.07
2.88
2.61
2.25
1.79
1.29
0.78
0.35
-0.01
-0.35
-0.70
-1.12
-1.54
-1.87
-2.03
-1.98
-1.78
-1.57
-1.51
-1.72
-2.20
-2.88
-3.60
-4.17
-4.48
-4.53
-4.38
-4.19
-4.13
-4.30
-4.71
-5.25
-5.78
-6.12
-6.14
-5.77
-5.03
-4.01
-2.85
-1.69
-0.61
0.33
1.14
1.85
2.47
2.99
3.36
3.57
3.66
3.70
3.79
3.99
4.31
4.67
4.94
5.06
4.99
4.79
4.53
4.27
4.01
3.72
3.36
2.94
2.51
2.16
1.91
1.74
1.57
1.33
1.01
0.66
0.35
0.13
-0.01
-0.10
-0.20
-0.31
-0.41
-0.47
-0.49
-0.52
-0.67
-0.97
-1.45
-2.02
-2.59
-3.08
-3.50
-3.89
-4.31
-4.78
-5.24
-5.61
-5.80
-5.83
-5.74
-5.61
-5.44
-5.18
-4.74
-4.06
-3.16
-2.16
-1.18
-0.34
0.34
0.91
1.45
2.05
2.76
3.51
4.21
4.73
4.99
5.00
4.86
4.72
4.72
4.91
5.21
5.48
5.57
5.43
5.06
4.56
4.00
3.49
3.05
2.72
2.49
2.39
2.38
2.39
2.32
2.07
1.58
0.90
0.18
-0.40
-0.74
-0.83
-0.79
-0.80
-1.02
-1.47
-2.11
-2.81
-3.44
-3.96
-4.36
-4.69
-5.01
-5.34
-5.71
-6.09
-6.40
-6.59
-6.56
-6.29
-5.76
-4.99
-4.02
-2.89
-1.68
-0.50
0.55
1.36
1.88
2.16
2.29
2.39
2.56
2.80
3.09
3.34
3.52
3.59
3.57
3.51
3.47
3.48
3.56
3.64
3.65
3.49
3.10
2.49
1.75
1.03
0.46
0.11
-0.05
-0.12
-0.21
-0.40
-0.68
-1.02
-1.36
-1.70
-2.02
-2.34
-2.64
-2.90
-3.08
-3.18
-3.22
-3.28
-3.44
-3.76
-4.30
-5.06
-6.02
-7.13
-8.28
-9.36
-10.26
-10.90
-11.24
-11.26
-10.94
-10.23
-9.14
-7.71
-6.05
-4.30
-2.57
-0.92
0.65
2.15
3.64
5.09
6.47
7.71
8.74
9.58
10.22
10.68
10.96
11.02
10.86
10.50
10.01
9.47
8.99
8.59
8.24
7.83
7.26
6.47
5.56
4.67
3.98
3.56
3.36
3.27
3.16
2.99
2.79
2.62
2.47
2.27
1.93
1.37
0.68
0.01
-0.48
-0.73
-0.84
-0.99
-1.32
-1.86
-2.47
-2.98
-3.23
-3.21
-3.04
-2.87
-2.85
-3.06
-3.46
-4.00
-4.57
-5.04
-5.31
-5.27
-4.88
-4.12
-3.05
-1.79
-0.52
0.56
1.30
1.62
1.56
1.27
0.92
0.70
0.74
1.07
1.64
2.33
3.00
3.54
3.86
3.94
3.80
3.52
3.18
2.88
2.65
2.49
2.34
2.15
1.84
1.41
0.86
0.28
-0.25
-0.61
-0.74
-0.63
-0.35
-0.03
0.17
0.15
-0.12
-0.54
-0.97
-1.28
-1.36
-1.24
-0.99
-0.74
-0.57
-0.53
-0.62
-0.80
-1.00
-1.14
-1.12
-0.86
-0.30
0.57
1.70
3.05
4.57
6.22
7.98
9.83
11.67
13.39
14.81
15.79
16.25
16.24
15.87
15.39
15.07
15.19
16.00
17.63
20.04
23.05
26.27
29.16
31.19
31.96
31.33
29.52
26.99
24.31
21.89
19.91
18.28
16.84
15.45
14.09
12.76
11.43
9.98
8.24
6.12
3.67
1.00
-1.87
-5.08
-8.93
-13.65
-19.22
-25.20
-30.85
-35.32
-37.93
-38.39
-36.81
-33.60
-29.36
-24.71
-20.24
-16.41
-13.46
-11.35
-9.74
-8.06
-5.73
-2.37
2.04
7.11
12.16
16.38
19.01
19.53
17.77
13.98
8.81
3.17
-2.06
-6.25
-9.21
-11.12
-12.38
-13.31
-14.07
-14.60
-14.80
-14.61
-14.12
-13.44
-12.68
-11.83
-10.81
-9.56
-8.07
-6.46
-4.89
-3.55
-2.58
-2.05
-1.92
-2.08
-2.37
-2.67
-2.92
-3.17
-3.52
-4.07
-4.82
-5.66
-6.43
-7.01
-7.39
-7.64
-7.92
-8.32
-8.85
-9.46
-10.10
-10.78
-11.55
-12.42
-13.33
-14.10
-14.53
-14.47
-13.90
-12.91
-11.68
-10.36
-9.04
-7.73
-6.43
-5.14
-3.91
-2.78
-1.83
-1.09
-0.54
-0.17
0.04
0.12
0.11
0.05
-0.02
-0.05
-0.07
-0.14
-0.32
-0.68
-1.14
-1.60
-1.86
-1.79
-1.35
-0.63
0.19
0.89
1.31
1.33
0.99
0.37
-0.39
-1.13
-1.75
-2.18
-2.44
-2.60
-2.75
-2.99
-3.38
-3.95
-4.68
-5.52
-6.36
-7.09
-7.65
-8.02
-8.23
-8.37
-8.48
-8.57
-8.50
-8.12
-7.30
-6.00
-4.31
-2.42
-0.56
1.09
2.44
3.48
4.25
4.83
5.29
5.70
6.16
6.71
7.42
8.24
9.06
9.75
10.18
10.29
10.13
9.84
9.60
9.58
9.86
10.40
11.08
11.73
12.17
12.27
11.98
11.27
10.19
8.83
7.30
5.75
4.27
2.94
1.73
0.63
-0.42
-1.39
-2.24
-2.87
-3.24
-3.37
-3.34
-3.26
-3.21
-3.26
-3.42
-3.76
-4.32
-5.13
-6.18
-7.39
-8.68
-9.95
-11.19
-12.36
-13.38
-14.05
-14.17
-13.59
-12.33
-10.64
-8.87
-7.34
-6.21
-5.40
-4.70
-3.88
-2.83
-1.64
-0.49
0.36
0.76
0.73
0.44
0.12
-0.05
-0.02
0.05
-0.06
-0.58
-1.54
-2.75
-3.89
-4.66
-4.92
-4.80
-4.62
-4.73
-5.32
-6.32
-7.44
-8.23
-8.31
-7.57
-6.20
-4.68
-3.62
-3.47
-4.38
-6.09
-8.09
-9.75
-10.62
-10.49
-9.52
-8.11
-6.95
-6.95
-9.09
-14.24
-22.72
-34.00
-46.62
-58.63
-68.33
-74.92
-78.77
-80.97
-82.44
-83.16
-82.09
-77.84
-69.60
-57.68
-43.33
-27.93
-12.28
3.66
20.24
37.57
55.14
71.99
87.23
100.37
111.15
119.15
123.40
122.72
116.31
104.50
88.89
71.77
55.18
40.25
27.08
15.30
4.73
-4.18
-10.49
-13.29
-12.38
-8.56
-3.42
1.26
4.15
4.76
3.37
0.70
-2.53
-5.67
-8.22
-9.58
-9.18
-6.63
-2.08
3.68
9.39
13.73
15.89
15.73
13.76
10.73
7.32
3.92
0.70
-2.26
-4.82
-6.79
-8.02
-8.46
-8.17
-7.27
-5.76
-3.53
-0.45
3.53
8.23
13.15
17.58
20.74
22.05
21.31
18.76
15.01
10.77
6.70
3.19
0.38
-1.80
-3.55
-5.07
-6.53
-8.11
-9.95
-12.10
-14.54
-17.08
-19.48
-21.50
-23.04
-24.08
-24.66
-24.80
-24.39
-23.23
-21.15
-18.08
-14.17
-9.74
-5.12
-0.44
4.45
9.84
15.96
22.70
29.59
35.99
41.29
45.10
47.25
47.69
46.50
44.03
41.09
39.00
39.39
43.58
51.97
63.66
76.62
88.21
96.05
98.62
95.63
87.91
76.97
64.58
52.21
40.75
30.37
20.62
10.79
0.30
-10.95
-22.37
-32.89
-41.26
-46.58
-48.65
-48.05
-45.93
-43.64
-42.37
-43.01
-46.05
-51.44
-58.42
-65.49
-70.61
-71.93
-68.52
-61.01
-51.52
-42.82
-37.25
-35.76
-37.70
-41.36
-44.84
-46.82
-46.72
-44.60
-40.70
-35.36
-29.04
-22.49
-16.66
-12.35
-9.82
-8.58
-7.58
-5.73
-2.56
1.45
5.05
6.80
5.88
2.63
-1.27
-3.34
-1.27
6.14
18.24
32.45
44.88
51.42
49.04
36.89
16.92
-6.34
-26.82
-38.75
-38.53
-26.07
-4.87
19.31
40.63
55.34
62.70
64.61
64.11
63.74
64.64
66.52
68.29
68.68
66.75
61.86
53.76
42.51
28.61
12.96
-3.24
-18.62
-32.03
-42.79
-51.02
-57.58
-63.70
-70.28
-77.26
-83.44
-86.82
-85.59
-79.03
-67.91
-54.08
-39.64
-26.15
-14.32
-4.38
3.57
9.26
12.45
13.30
12.62
11.62
11.52
12.99
15.89
19.29
21.78
21.99
18.94
12.36
2.62
-9.43
-22.71
-36.16
-48.93
-60.37
-70.04
-77.59
-82.73
-85.19
-84.80
-81.47
-75.26
-66.45
-55.57
-43.43
-31.06
-19.53
-9.77
-2.38
2.49
5.06
5.82
5.39
4.37
3.28
2.55
2.50
3.30
4.93
7.16
9.71
12.29
14.78
17.18
19.57
21.95
24.22
26.20
27.73
28.69
29.10
29.03
28.54
27.71
26.58
25.25
23.82
22.41
21.14
20.03
19.01
17.97
16.79
15.37
13.66
11.74
9.73
7.80
6.08
4.61
3.34
2.19
0.99
-0.42
-2.17
-4.34
-6.89
-9.61
-12.15
-14.08
-14.99
-14.60
-12.75
-9.50
-5.05
0.25
5.89
11.27
15.83
19.16
21.12
21.82
21.53
20.49
18.91
16.91
14.63
12.30
10.20
8.61
7.71
7.55
8.00
8.86
9.90
10.89
11.63
11.98
11.89
11.38
10.53
9.47
8.30
7.04
5.72
4.32
2.85
1.33
-0.17
-1.62
-2.99
-4.26
-5.45
-6.57
-7.66
-8.79
-9.99
-11.29
-12.59
-13.75
-14.52
-14.64
-13.92
-12.26
-9.74
-6.59
-3.16
0.18
3.10
5.37
6.91
7.73
7.95
7.74
7.31
6.83
6.48
6.32
6.37
6.54
6.74
6.93
7.06
7.16
7.26
7.40
7.60
7.90
8.31
8.82
9.35
9.74
9.88
9.71
9.27
8.70
8.11
7.55
6.99
6.32
5.47
4.43
3.27
2.09
1.00
0.04
-0.75
-1.38
-1.89
-2.30
-2.67
-3.11
-3.72
-4.59
-5.72
-7.02
-8.30
-9.26
-9.63
-9.22
-8.00
-6.11
-3.84
-1.50
0.62
2.35
3.61
4.42
4.83
4.92
4.78
4.54
4.31
4.16
4.16
4.30
4.53
4.79
4.97
5.05
4.99
4.84
4.65
4.46
4.29
4.14
4.00
3.86
3.69
3.47
3.14
2.70
2.20
1.72
1.36
1.14
1.01
0.87
0.62
0.26
-0.14
-0.48
-0.76
-1.01
-1.31
-1.74
-2.25
-2.75
-3.16
-3.45
-3.70
-4.00
-4.44
-5.06
-5.88
-6.87
-7.95
-8.99
-9.74
-9.96
-9.45
-8.19
-6.33
-4.14
-1.94
0.04
1.63
2.75
3.39
3.57
3.37
2.97
2.58
2.42
2.61
3.11
3.83
4.56
5.14
5.50
5.61
5.51
5.29
5.07
4.91
4.87
4.90
4.90
4.77
4.45
3.98
3.45
2.97
2.60
2.32
2.03
1.67
1.24
0.78
0.37
0.03
-0.28
-0.65
-1.15
-1.79
-2.52
-3.23
-3.85
-4.33
-4.67
-4.90
-5.05
-5.18
-5.38
-5.74
-6.33
-7.15
-8.03
-8.72
-8.96
-8.56
-7.47
-5.81
-3.79
-1.64
0.40
2.18
3.56
4.52
5.06
5.27
5.27
5.15
4.98
4.78
4.58
4.42
4.36
4.44
4.65
4.93
5.17
5.32
5.34
5.30
5.26
5.29
5.37
5.42
5.31
4.97
4.40
3.70
3.05
2.58
2.32
2.22
2.15
1.99
1.75
1.46
1.20
1.01
0.82
0.56
0.17
-0.34
-0.88
-1.38
-1.81
-2.18
-2.54
-2.90
-3.23
-3.49
-3.69
-3.87
-4.14
-4.58
-5.23
-6.07
-7.04
-8.02
-8.87
-9.36
-9.31
-8.57
-7.16
-5.28
-3.23
-1.34
0.19
1.28
1.99
2.44
2.71
2.85
2.90
2.89
2.88
2.94
3.17
3.56
4.07
4.57
4.90
4.98
4.80
4.44
4.05
3.72
3.48
3.31
3.13
2.92
2.66
2.36
2.03
1.66
1.23
0.75
0.25
-0.21
-0.61
-0.92
-1.17
-1.40
-1.59
-1.73
-1.78
-1.75
-1.68
-1.68
-1.84
-2.21
-2.76
-3.39
-3.99
-4.49
-4.87
-5.17
-5.48
-5.84
-6.22
-6.51
-6.57
-6.27
-5.56
-4.47
-3.12
-1.67
-0.26
1.00
2.02
2.79
3.28
3.55
3.66
3.71
3.77
3.89
4.04
4.17
4.24
4.25
4.22
4.17
4.15
4.14
4.15
4.16
4.18
4.20
4.20
4.14
3.96
3.63
3.13
2.52
1.88
1.33
0.95
0.76
0.72
0.74
0.69
0.49
0.12
-0.38
-0.96
-1.55
-2.12
-2.65
-3.08
-3.35
-3.44
-3.37
-3.25
-3.23
-3.44
-3.98
-4.81
-5.83
-6.87
-7.75
-8.30
-8.39
-7.97
-7.06
-5.78
-4.28
-2.76
-1.32
-0.06
1.03
1.94
2.67
3.22
3.60
3.81
3.90
3.90
3.85
3.80
3.78
3.84
4.02
4.32
4.67
5.01
5.25
5.33
5.23
4.97
4.60
4.17
3.71
3.27
2.85
2.46
2.10
1.77
1.49
1.28
1.13
1.01
0.84
0.57
0.17
-0.30
-0.74
-1.06
-1.21
-1.25
-1.28
-1.41
-1.73
-2.23
-2.82
-3.41
-3.93
-4.38
-4.80
-5.24
-5.73
-6.25
-6.78
-7.25
-7.61
-7.75
-7.55
-6.89
-5.72
-4.09
-2.20
-0.32
1.32
2.58
3.43
3.99
4.33
4.52
4.51
4.31
3.93
3.49
3.19
3.17
3.48
4.02
4.57
4.91
4.95
4.69
4.29
3.89
3.57
3.31
3.02
2.64
2.18
1.71
1.37
1.20
1.21
1.27
1.25
1.01
0.52
-0.19
-1.01
-1.76
-2.33
-2.69
-2.87
-2.99
-3.14
-3.36
-3.63
-3.90
-4.15
-4.37
-4.63
-4.99
-5.44
-5.95
-6.39
-6.62
-6.51
-5.99
-5.09
-3.91
-2.58
-1.23
0.08
1.30
2.43
3.41
4.17
4.64
4.77
4.60
4.26
3.91
3.73
3.82
4.13
4.53
4.81
4.83
4.53
4.01
3.48
3.11
3.00
3.12
3.30
3.34
3.08
2.52
1.79
1.08
0.59
0.40
0.49
0.70
0.88
0.92
0.77
0.46
0.06
-0.41
-0.92
-1.44
-1.95
-2.42
-2.86
-3.30
-3.76
-4.25
-4.73
-5.16
-5.53
-5.87
-6.25
-6.71
-7.16
-7.46
-7.41
-6.82
-5.67
-4.08
-2.29
-0.59
0.77
1.67
2.15
2.37
2.52
2.72
2.99
3.23
3.27
3.06
2.64
2.20
1.94
1.94
2.16
2.41
2.50
2.31
1.85
1.24
0.63
0.11
-0.30
-0.63
-0.94
-1.27
-1.64
-2.02
-2.38
-2.70
-2.96
-3.17
-3.31
-3.32
-3.14
-2.71
-2.02
-1.14
-0.20
0.68
1.39
1.92
2.27
2.47
2.53
2.43
2.20
1.85
1.41
0.87
0.21
-0.59
-1.49
-2.36
-3.00
-3.21
-2.85
-1.97
-0.72
0.65
1.91
2.94
3.73
4.30
4.69
4.89
4.92
4.78
4.57
4.40
4.37
4.49
4.70
4.86
4.87
4.69
4.33
3.87
3.36
2.81
2.23
1.63
1.04
0.52
0.14
-0.09
-0.20
-0.30
-0.47
-0.77
-1.16
-1.57
-1.93
-2.22
-2.46
-2.71
-2.97
-3.20
-3.38
-3.50
-3.58
-3.74
-4.04
-4.48
-5.00
-5.51
-5.94
-6.32
-6.66
-6.99
-7.21
-7.20
-6.83
-6.00
-4.74
-3.17
-1.46
0.19
1.63
2.72
3.45
3.83
3.92
3.82
3.63
3.46
3.38
3.46
3.73
4.19
4.79
5.39
5.85
6.01
5.78
5.22
4.45
3.67
3.01
2.53
2.22
2.03
1.91
1.87
1.87
1.83
1.64
1.17
0.41
-0.51
-1.34
-1.85
-1.95
-1.73
-1.42
-1.27
-1.39
-1.73
-2.15
-2.53
-2.81
-3.01
-3.21
-3.44
-3.72
-4.04
-4.43
-4.92
-5.58
-6.42
-7.35
-8.18
-8.61
-8.39
-7.39
-5.69
-3.54
-1.33
0.57
1.93
2.69
2.95
2.91
2.77
2.70
2.79
3.11
3.67
4.39
5.18
5.86
6.31
6.45
6.29
5.90
5.37
4.81
4.31
3.93
3.73
3.67
3.68
3.64
3.44
3.06
2.52
1.93
1.38
0.94
0.61
0.37
0.22
0.14
0.10
0.03
-0.18
-0.57
-1.12
-1.71
-2.20
-2.51
-2.67
-2.76
-2.89
-3.12
-3.43
-3.79
-4.18
-4.61
-5.08
-5.58
-6.06
-6.46
-6.73
-6.83
-6.75
-6.46
-5.88
-5.00
-3.83
-2.48
-1.12
0.10
1.05
1.73
2.17
2.44
2.56
2.57
2.53
2.55
2.73
3.16
3.81
4.55
5.16
5.47
5.41
5.07
4.60
4.16
3.80
3.49
3.15
2.69
2.11
1.42
0.71
0.05
-0.48
-0.81
-0.92
-0.83
-0.64
-0.46
-0.43
-0.60
-0.97
-1.44
-1.89
-2.21
-2.38
-2.44
-2.47
-2.52
-2.63
-2.78
-2.97
-3.21
-3.50
-3.87
-4.29
-4.76
-5.26
-5.81
-6.40
-7.02
-7.56
-7.85
-7.72
-7.07
-5.91
-4.40
-2.76
-1.20
0.14
1.22
2.04
2.66
3.15
3.54
3.85
4.12
4.36
4.60
4.86
5.14
5.42
5.61
5.66
5.49
5.13
4.68
4.27
3.99
3.87
3.86
3.84
3.72
3.45
3.05
2.60
2.17
1.81
1.51
1.23
0.91
0.56
0.22
-0.06
-0.19
-0.20
-0.16
-0.22
-0.51
-1.05
-1.73
-2.35
-2.73
-2.79
-2.66
-2.55
-2.66
-3.06
-3.66
-4.27
-4.71
-4.95
-5.07
-5.23
-5.52
-6.02
-6.69
-7.50
-8.42
-9.39
-10.34
-11.10
-11.56
-11.56
-11.06
-10.07
-8.66
-6.92
-4.96
-2.92
-0.91
0.94
2.60
4.08
5.43
6.73
7.96
9.06
9.93
10.48
10.65
10.49
10.06
9.46
8.81
8.18
7.61
7.10
6.63
6.16
5.71
5.31
4.98
4.71
4.44
4.07
3.53
2.83
2.06
1.35
0.81
0.48
0.35
0.34
0.35
0.31
0.16
-0.14
-0.58
-1.10
-1.65
-2.14
-2.52
-2.82
-3.10
-3.43
-3.85
-4.36
-4.93
-5.54
-6.18
-6.84
-7.44
-7.89
-8.05
-7.86
-7.32
-6.50
-5.54
-4.48
-3.36
-2.17
-0.95
0.20
1.18
1.92
2.42
2.76
3.06
3.36
3.69
4.00
4.27
4.45
4.56
4.58
4.50
4.35
4.17
4.01
3.92
3.90
3.91
3.90
3.82
3.64
3.35
2.94
2.43
1.85
1.22
0.60
0.05
-0.39
-0.69
-0.87
-0.99
-1.10
-1.24
-1.43
-1.64
-1.81
-1.90
-1.91
-1.87
-1.86
-1.97
-2.20
-2.54
-2.89
-3.19
-3.38
-3.48
-3.57
-3.77
-4.17
-4.78
-5.56
-6.40
-7.16
-7.68
-7.85
-7.58
-6.83
-5.67
-4.21
-2.59
-0.99
0.48
1.73
2.72
3.46
3.98
4.36
4.71
5.10
5.57
6.05
6.40
6.49
6.26
5.77
5.20
4.74
4.51
4.49
4.55
4.50
4.24
3.74
3.15
2.62
2.30
2.21
2.24
2.23
2.05
1.66
1.16
0.68
0.32
0.10
-0.06
-0.26
-0.53
-0.84
-1.11
-1.28
-1.37
-1.49
-1.73
-2.12
-2.59
-3.02
-3.28
-3.36
-3.32
-3.33
-3.49
-3.90
-4.53
-5.29
-6.07
-6.76
-7.26
-7.48
-7.37
-6.88
-6.03
-4.84
-3.40
-1.81
-0.21
1.27
2.52
3.51
4.23
4.71
4.98
5.01
4.80
4.36
3.80
3.29
3.01
3.03
3.31
3.66
3.88
3.83
3.51
3.02
2.50
2.04
1.64
1.26
0.87
0.48
0.17
0.00
-0.01
0.06
0.07
-0.06
-0.36
-0.78
-1.23
-1.64
-1.96
-2.17
-2.26
-2.24
-2.15
-2.09
-2.19
-2.51
-3.04
-3.63
-4.10
-4.35
-4.39
-4.39
-4.57
-5.07
-5.87
-6.78
-7.52
-7.87
-7.71
-7.05
-5.96
-4.58
-3.01
-1.38
0.18
1.56
2.66
3.50
4.13
4.64
5.05
5.33
5.41
5.29
5.08
4.94
5.00
5.29
5.69
6.02
6.12
5.98
5.66
5.29
4.95
4.66
4.36
3.97
3.48
2.91
2.33
1.77
1.23
0.68
0.07
-0.59
-1.24
-1.78
-2.10
-2.17
-1.96
-1.49
-0.86
-0.15
0.49
0.86
0.80
0.27
-0.66
-1.79
-2.85
-3.68
-4.25
-4.68
-5.13
-5.69
-6.36
-7.03
-7.58
-7.92
-7.98
-7.71
-7.08
-6.05
-4.61
-2.82
-0.80
1.27
3.19
4.80
5.97
6.68
6.97
6.94
6.70
6.33
5.85
5.26
4.56
3.83
3.19
2.74
2.54
2.58
2.76
2.93
2.96
2.76
2.26
1.51
0.56
-0.44
-1.38
-2.15
-2.69
-3.01
-3.15
-3.16
-3.06
-2.84
-2.48
-1.98
-1.37
-0.71
-0.08
0.51
1.10
1.75
2.48
3.27
4.00
4.52
4.74
4.60
4.16
3.52
2.77
2.00
1.29
0.76
0.52
0.68
1.21
1.93
2.53
2.68
2.18
1.08
-0.40
-1.91
-3.15
-4.02
-4.57
-4.98
-5.40
-5.86
-6.26
-6.43
-6.26
-5.73
-4.96
-4.10
-3.31
-2.64
-2.06
-1.51
-0.93
-0.31
0.27
0.73
1.00
1.05
0.86
0.49
-0.03
-0.60
-1.12
-1.50
-1.70
-1.78
-1.87
-2.05
-2.35
-2.67
-2.81
-2.68
-2.29
-1.85
-1.61
-1.75
-2.29
-3.09
-3.96
-4.73
-5.30
-5.62
-5.62
-5.23
-4.42
-3.23
-1.83
-0.43
0.75
1.60
2.13
2.44
2.66
2.88
3.12
3.36
3.52
3.55
3.43
3.18
2.93
2.80
2.91
3.28
3.82
4.37
4.76
4.91
4.84
4.65
4.48
4.39
4.41
4.47
4.53
4.55
4.47
4.27
3.90
3.32
2.56
1.75
1.06
0.65
0.56
0.74
0.99
1.17
1.16
0.96
0.63
0.24
-0.18
-0.62
-1.13
-1.72
-2.42
-3.21
-4.08
-4.95
-5.71
-6.22
-6.35
-6.01
-5.25
-4.19
-3.00
-1.82
-0.76
0.17
0.99
1.72
2.36
2.88
3.25
3.44
3.49
3.47
3.47
3.54
3.69
3.86
3.99
4.04
3.98
3.83
3.64
3.41
3.16
2.88
2.56
2.19
1.74
1.22
0.66
0.10
-0.39
-0.77
-1.05
-1.26
-1.44
-1.63
-1.80
-1.94
-2.05
-2.13
-2.21
-2.30
-2.41
-2.57
-2.82
-3.21
-3.74
-4.34
-4.89
-5.23
-5.25
-4.92
-4.28
-3.38
-2.24
-0.90
0.63
2.23
3.73
4.93
5.66
5.85
5.58
5.00
4.30
3.62
3.04
2.57
2.21
1.95
1.83
1.88
2.11
2.45
2.82
3.12
3.26
3.18
2.89
2.42
1.84
1.25
0.70
0.25
-0.15
-0.56
-1.01
-1.50
-1.95
-2.27
-2.39
-2.35
-2.23
-2.16
-2.23
-2.47
-2.84
-3.29
-3.77
-4.27
-4.76
-5.23
-5.62
-5.84
-5.81
-5.52
-4.99
-4.33
-3.64
-2.96
-2.26
-1.50
-0.64
0.28
1.16
1.87
2.31
2.45
2.35
2.14
1.92
1.78
1.75
1.82
1.99
2.24
2.55
2.84
3.06
3.13
3.01
2.77
2.50
2.32
2.26
2.29
2.31
2.20
1.93
1.50
0.98
0.42
-0.13
-0.68
-1.17
-1.59
-1.90
-2.14
-2.41
-2.80
-3.35
-4.00
-4.65
-5.14
-5.43
-5.59
-5.75
-6.08
-6.63
-7.33
-7.99
-8.38
-8.38
-7.93
-7.13
-6.14
-5.10
-4.10
-3.21
-2.46
-1.88
-1.48
-1.24
-1.08
-0.87
-0.48
0.16
1.02
2.01
2.99
3.88
4.67
5.35
5.98
6.55
7.05
7.42
7.64
7.73
7.70
7.56
7.28
6.81
6.12
5.23
4.25
3.36
2.71
2.39
2.34
2.40
2.38
2.14
1.66
1.04
0.44
-0.02
-0.32
-0.56
-0.90
-1.46
-2.26
-3.16
-3.99
-4.58
-4.87
-4.87
-4.68
-4.34
-3.83
-3.14
-2.27
-1.29
-0.33
0.51
1.18
1.68
2.08
2.38
2.55
2.54
2.38
2.12
1.88
1.75
1.72
1.73
1.70
1.64
1.61
1.70
1.93
2.23
2.48
2.53
2.32
1.90
1.36
0.82
0.35
-0.01
-0.25
-0.37
-0.36
-0.23
-0.02
0.16
0.21
0.02
-0.43
-1.10
-1.84
-2.51
-3.02
-3.36
-3.60
-3.85
-4.19
-4.65
-5.16
-5.65
-6.02
-6.19
-6.09
-5.70
-5.02
-4.14
-3.18
-2.27
-1.53
-0.96
-0.52
-0.12
0.32
0.86
1.48
2.15
2.84
3.47
3.98
4.28
4.31
4.11
3.79
3.52
3.47
3.66
4.02
4.37
4.55
4.52
4.36
4.18
4.07
3.98
3.82
3.48
2.96
2.36
1.81
1.39
1.07
0.76
0.34
-0.19
-0.74
-1.13
-1.21
-0.96
-0.50
-0.06
0.12
-0.08
-0.63
-1.35
-1.98
-2.32
-2.31
-2.07
-1.83
-1.81
-2.14
-2.82
-3.73
-4.69
-5.51
-6.03
-6.17
-5.92
-5.35
-4.55
-3.64
-2.72
-1.83
-0.98
-0.18
0.53
1.13
1.58
1.88
2.09
2.26
2.39
2.48
2.47
2.32
2.06
1.77
1.57
1.56
1.79
2.19
2.63
2.97
3.13
3.12
3.00
2.82
2.63
2.37
1.99
1.49
0.91
0.34
-0.17
-0.59
-0.94
-1.30
-1.68
-2.07
-2.41
-2.63
-2.69
-2.59
-2.39
-2.23
-2.24
-2.51
-3.06
-3.83
-4.69
-5.51
-6.14
-6.50
-6.52
-6.17
-5.47
-4.50
-3.37
-2.20
-1.10
-0.12
0.72
1.42
1.98
2.34
2.45
2.32
2.00
1.61
1.32
1.24
1.46
1.93
2.53
3.08
3.44
3.52
3.35
3.02
2.68
2.41
2.26
2.19
2.16
2.12
2.04
1.88
1.62
1.23
0.71
0.15
-0.33
-0.63
-0.73
-0.69
-0.62
-0.62
-0.75
-0.99
-1.32
-1.72
-2.21
-2.79
-3.45
-4.16
-4.83
-5.38
-5.77
-5.97
-6.01
-5.95
-5.83
-5.66
-5.39
-4.91
-4.15
-3.13
-1.95
-0.81
0.13
0.78
1.20
1.52
1.86
2.30
2.81
3.31
3.71
3.98
4.13
4.26
4.42
4.63
4.85
4.99
4.98
4.77
4.38
3.87
3.32
2.80
2.36
2.03
1.82
1.72
1.70
1.71
1.68
1.58
1.39
1.16
0.94
0.77
0.62
0.45
0.19
-0.18
-0.64
-1.13
-1.56
-1.86
-1.98
-1.94
-1.76
-1.54
-1.33
-1.21
-1.25
-1.47
-1.90
-2.55
-3.36
-4.27
-5.13
-5.74
-5.94
-5.61
-4.76
-3.54
-2.13
-0.74
0.47
1.41
2.06
2.44
2.62
2.69
2.72
2.75
2.77
2.76
2.71
2.66
2.65
2.75
2.96
3.25
3.52
3.70
3.76
3.69
3.50
3.20
2.81
2.38
1.96
1.61
1.32
1.07
0.79
0.45
0.06
-0.30
-0.57
-0.71
-0.78
-0.87
-1.07
-1.44
-1.96
-2.55
-3.15
-3.70
-4.21
-4.71
-5.24
-5.77
-6.28
-6.67
-6.88
-6.86
-6.59
-6.07
-5.30
-4.29
-3.09
-1.78
-0.44
0.83
1.96
2.88
3.55
3.93
4.01
3.88
3.66
3.51
3.53
3.71
3.95
4.10
4.08
3.90
3.67
3.50
3.47
3.52
3.56
3.46
3.17
2.71
2.20
1.75
1.45
1.32
1.28
1.18
0.94
0.54
0.02
-0.52
-0.97
-1.30
-1.54
-1.74
-1.96
-2.19
-2.42
-2.62
-2.80
-3.00
-3.26
-3.60
-4.03
-4.51
-5.01
-5.48
-5.87
-6.10
-6.08
-5.74
-5.04
-4.03
-2.84
-1.65
-0.60
0.28
1.02
1.72
2.45
3.19
3.84
4.30
4.54
4.60
4.60
4.64
4.74
4.86
4.93
4.92
4.87
4.84
4.90
5.02
5.09
4.96
4.54
3.84
2.96
2.10
1.41
0.98
0.80
0.77
0.78
0.77
0.72
0.66
0.59
0.48
0.29
-0.01
-0.40
-0.80
-1.11
-1.29
-1.40
-1.53
-1.75
-2.08
-2.47
-2.84
-3.18
-3.53
-3.96
-4.55
-5.23
-5.89
-6.34
-6.41
-6.02
-5.22
-4.15
-2.99
-1.88
-0.89
-0.01
0.79
1.54
2.22
2.77
3.14
3.33
3.37
3.31
3.24
3.19
3.21
3.28
3.36
3.40
3.33
3.14
2.87
2.62
2.49
2.50
2.60
2.67
2.60
2.31
1.82
1.20
0.54
-0.13
-0.80
-1.47
-2.12
-2.67
-3.06
-3.22
-3.17
-3.01
-2.87
-2.87
-3.05
-3.36
-3.75
-4.16
-4.59
-5.05
-5.50
-5.86
-6.03
-5.85
-5.28
-4.35
-3.19
-1.96
-0.78
0.29
1.25
2.11
2.85
3.44
3.85
4.08
4.19
4.26
4.34
4.44
4.52
4.52
4.41
4.19
3.90
3.61
3.40
3.32
3.39
3.51
3.55
3.33
2.78
1.95
0.99
0.14
-0.46
-0.75
-0.82
-0.77
-0.70
-0.67
-0.73
-0.95
-1.41
-2.14
-3.04
-3.94
-4.59
-4.83
-4.69
-4.37
-4.15
-4.27
-4.82
-5.72
-6.74
-7.60
-8.11
-8.16
-7.76
-6.98
-5.92
-4.64
-3.23
-1.77
-0.41
0.74
1.59
2.20
2.68
3.19
3.82
4.55
5.26
5.80
6.09
6.14
6.03
5.88
5.71
5.54
5.35
5.13
4.95
4.82
4.76
4.72
4.64
4.49
4.27
4.00
3.71
3.37
2.93
2.36
1.69
1.02
0.46
0.10
-0.09
-0.19
-0.31
-0.50
-0.73
-0.91
-0.97
-0.95
-0.96
-1.16
-1.69
-2.49
-3.41
-4.22
-4.78
-5.06
-5.14
-5.13
-5.08
-4.96
-4.70
-4.25
-3.66
-3.01
-2.38
-1.76
-1.04
-0.14
0.96
2.12
3.11
3.73
3.90
3.73
3.40
3.10
2.95
2.95
3.07
3.28
3.54
3.81
4.03
4.11
3.97
3.63
3.11
2.51
1.91
1.38
0.97
0.70
0.58
0.55
0.52
0.37
0.01
-0.55
-1.18
-1.72
-2.04
-2.15
-2.17
-2.24
-2.48
-2.85
-3.25
-3.53
-3.64
-3.66
-3.73
-3.98
-4.43
-4.94
-5.31
-5.36
-4.99
-4.27
-3.35
-2.37
-1.46
-0.62
0.18
0.99
1.77
2.42
2.80
2.80
2.48
1.99
1.59
1.49
1.75
2.30
2.93
3.44
3.68
3.67
3.50
3.32
3.19
3.11
3.02
2.85
2.58
2.22
1.80
1.34
0.85
0.36
-0.04
-0.29
-0.34
-0.24
-0.08
0.01
-0.03
-0.20
-0.43
-0.63
-0.79
-0.93
-1.09
-1.30
-1.55
-1.78
-1.97
-2.14
-2.33
-2.63
-3.07
-3.65
-4.30
-4.93
-5.43
-5.73
-5.80
-5.65
-5.33
-4.88
-4.32
-3.65
-2.84
-1.88
-0.78
0.40
1.55
2.54
3.29
3.74
3.88
3.79
3.61
3.47
3.50
3.77
4.23
4.76
5.19
5.40
5.35
5.07
4.68
4.27
3.89
3.55
3.24
2.94
2.63
2.33
2.03
1.77
1.53
1.34
1.18
1.04
0.89
0.71
0.46
0.16
-0.17
-0.44
-0.60
-0.64
-0.59
-0.55
-0.62
-0.85
-1.25
-1.73
-2.20
-2.63
-3.01
-3.42
-3.89
-4.47
-5.10
-5.69
-6.15
-6.41
-6.43
-6.20
-5.76
-5.18
-4.53
-3.85
-3.16
-2.44
-1.66
-0.79
0.11
0.97
1.68
2.16
2.40
2.46
2.44
2.44
2.50
2.62
2.76
2.87
2.95
3.00
3.07
3.17
3.25
3.27
3.14
2.84
2.41
1.92
1.49
1.20
1.07
1.05
1.03
0.89
0.54
-0.04
-0.75
-1.46
-2.04
-2.43
-2.68
-2.89
-3.13
-3.41
-3.66
-3.78
-3.78
-3.74
-3.82
-4.10
-4.58
-5.14
-5.65
-6.04
-6.36
-6.66
-6.92
-7.04
-6.84
-6.19
-5.08
-3.67
-2.18
-0.80
0.36
1.31
2.07
2.67
3.09
3.32
3.41
3.43
3.47
3.60
3.81
4.04
4.21
4.24
4.11
3.83
3.46
3.07
2.77
2.64
2.69
2.88
3.06
3.09
2.85
2.36
1.74
1.17
0.80
0.68
0.75
0.89
0.98
0.95
0.80
0.60
0.43
0.35
0.36
0.42
0.44
0.34
0.07
-0.38
-0.95
-1.59
-2.24
-2.86
-3.43
-3.97
-4.48
-5.01
-5.53
-6.03
-6.39
-6.51
-6.25
-5.56
-4.48
-3.12
-1.67
-0.30
0.87
1.76
2.40
2.85
3.18
3.44
3.67
3.90
4.14
4.38
4.60
4.74
4.76
4.65
4.46
4.25
4.09
3.99
3.90
3.75
3.49
3.12
2.72
2.37
2.13
1.96
1.79
1.55
1.20
0.76
0.31
-0.09
-0.41
-0.65
-0.86
-1.08
-1.35
-1.68
-2.03
-2.36
-2.64
-2.86
-3.04
-3.21
-3.41
-3.65
-3.97
-4.37
-4.85
-5.36
-5.81
-6.08
-6.08
-5.76
-5.14
-4.27
-3.27
-2.26
-1.32
-0.47
0.30
1.00
1.66
2.24
2.70
3.00
3.13
3.13
3.08
3.09
3.19
3.37
3.58
3.75
3.85
3.90
3.90
3.84
3.67
3.37
2.94
2.48
2.06
1.77
1.60
1.49
1.35
1.15
0.86
0.56
0.30
0.10
-0.04
-0.20
-0.43
-0.76
-1.16
-1.59
-1.99
-2.37
-2.76
-3.25
-3.87
-4.59
-5.32
-5.98
-6.52
-6.96
-7.31
-7.51
-7.45
-7.01
-6.14
-4.93
-3.59
-2.33
-1.29
-0.47
0.19
0.77
1.34
1.91
2.47
3.00
3.51
3.95
4.30
4.54
4.69
4.80
4.92
5.04
5.12
5.09
4.88
4.48
3.98
3.50
3.16
3.00
2.97
2.95
2.81
2.50
2.06
1.67
1.48
1.59
1.93
2.29
2.43
2.25
1.71
0.97
0.29
-0.13
-0.15
0.14
0.58
1.01
1.36
1.59
1.74
2.01
2.61
3.74
5.38
7.40
9.65
12.03
14.27
16.22
17.91
19.61
21.88
25.36
30.69
38.17
47.37
56.42
62.56
63.21
57.19
45.64
31.45
18.16
8.48
4.06
4.03
5.47
5.59
2.16
-4.12
-11.75
-19.41
-26.20
-29.76
-28.29
-20.94
-8.28
7.12
21.30
30.14
31.25
25.15
14.89
4.04
-5.39
-13.38
-21.50
-31.42
-43.87
-58.07
-71.98
-83.05
-89.47
-91.17
-89.06
-84.56
-78.92
-73.32
-68.95
-67.11
-68.90
-70.05
-67.10
-58.22
-44.70
-29.95
-17.29
-8.62
-4.24
-3.14
-3.68
-5.03
-6.87
-9.25
-12.24
-15.41
-17.85
-18.42
-16.20
-11.27
-5.88
-3.43
-6.76
-16.07
-27.79
-35.20
-31.09
-11.22
23.45
66.33
108.31
141.19
160.07
163.62
152.84
129.73
96.91
58.30
18.98
-15.20
-39.55
-52.60
-57.00
-58.21
-61.60
-69.56
-79.44
-85.76
-82.63
-66.99
-40.41
-8.34
22.48
46.10
60.14
64.84
61.14
49.87
32.13
10.57
-9.89
-23.23
-25.00
-14.65
3.71
23.21
37.68
44.37
44.07
39.96
35.20
31.57
29.52
28.94
29.82
32.38
36.40
40.62
43.06
41.62
34.98
23.84
10.58
-1.68
-10.37
-14.67
-15.48
-14.78
-14.52
-15.72
-18.11
-20.71
-22.52
-23.09
-22.65
-21.74
-20.94
-20.55
-20.51
-20.33
-19.23
-16.40
-11.31
-4.10
4.23
12.06
17.58
19.57
17.82
13.23
7.36
1.89
-2.00
-3.82
-3.69
-2.11
0.23
2.54
3.91
3.45
0.56
-4.75
-11.82
-19.46
-26.31
-31.27
-33.57
-32.82
-28.91
-21.96
-12.47
-1.46
9.65
19.31
26.28
29.95
30.38
28.20
24.18
19.05
13.23
7.10
1.07
-4.33
-8.59
-11.28
-12.27
-11.78
-9.92
-7.22
-4.35
-1.90
-0.31
0.24
-0.28
-1.78
-4.17
-7.39
-11.46
-16.25
-21.48
-26.66
-31.25
-34.78
-36.92
-37.59
-36.85
-34.92
-31.93
-28.01
-23.32
-18.08
-12.66
-7.48
-2.94
0.69
3.36
5.18
6.39
7.26
8.07
9.09
10.56
12.71
15.69
19.45
23.79
28.36
32.78
36.65
39.69
41.70
42.55
42.21
40.69
38.07
34.45
29.96
24.66
18.61
11.88
4.63
-2.85
-10.12
-16.65
-21.97
-25.73
-27.86
-28.47
-27.86
-26.36
-24.27
-21.83
-19.25
-16.73
-14.47
-12.62
-11.19
-10.05
-8.94
-7.59
-5.79
-3.46
-0.60
2.69
6.31
10.11
13.89
17.34
20.17
22.10
23.01
22.92
21.96
20.26
17.88
14.85
11.18
6.93
2.35
-2.23
-6.43
-9.91
-12.43
-13.95
-14.51
-14.25
-13.34
-11.95
-10.26
-8.49
-6.86
-5.57
-4.69
-4.18
-3.86
-3.51
-2.99
-2.28
-1.48
-0.75
-0.19
0.18
0.40
0.57
0.75
0.97
1.18
1.32
1.28
0.96
0.25
-0.93
-2.51
-4.27
-5.88
-6.96
-7.21
-6.49
-4.91
-2.75
-0.36
1.91
3.83
5.31
6.37
7.12
7.68
8.13
8.54
8.94
9.31
9.59
9.70
9.60
9.30
8.88
8.46
8.14
7.91
7.67
7.29
6.68
5.85
4.93
4.04
3.28
2.64
2.06
1.47
0.85
0.26
-0.23
-0.61
-0.94
-1.30
-1.77
-2.35
-2.99
-3.64
-4.22
-4.71
-5.11
-5.42
-5.68
-5.93
-6.26
-6.75
-7.43
-8.21
-8.85
-9.05
-8.54
-7.25
-5.29
-2.99
-0.72
1.22
2.71
3.80
4.62
5.32
5.94
6.47
6.83
6.95
6.85
6.59
6.30
6.10
6.08
6.23
6.49
6.73
6.84
6.73
6.43
6.00
5.56
5.14
4.69
4.06
3.13
1.89
0.47
-0.89
-1.94
-2.58
-2.81
-2.80
-2.70
-2.64
-2.66
-2.77
-2.95
-3.19
-3.45
-3.71
-3.93
-4.09
-4.22
-4.39
-4.72
-5.32
-6.25
-7.46
-8.75
-9.82
-10.33
-10.04
-8.90
-7.07
-4.88
-2.66
-0.65
1.03
2.35
3.37
4.12
4.67
5.05
5.29
5.42
5.43
5.36
5.24
5.13
5.05
5.01
4.97
4.92
4.82
4.69
4.52
4.29
3.97
3.53
3.00
2.43
1.90
1.44
1.08
0.77
0.47
0.14
-0.25
-0.68
-1.10
-1.48
-1.75
-1.92
-2.03
-2.18
-2.46
-2.90
-3.44
-3.98
-4.44
-4.82
-5.21
-5.71
-6.39
-7.21
-8.05
-8.70
-8.95
-8.66
-7.73
-6.21
-4.27
-2.17
-0.24
1.25
2.22
2.75
3.03
3.24
3.42
3.56
3.59
3.51
3.39
3.37
3.51
3.81
4.17
4.46
4.60
4.57
4.42
4.21
3.99
3.79
3.63
3.51
3.42
3.32
3.18
2.92
2.54
2.05
1.54
1.09
0.80
0.68
0.70
0.78
0.79
0.63
0.27
-0.30
-0.96
-1.63
-2.18
-2.56
-2.78
-2.93
-3.12
-3.47
-4.05
-4.84
-5.80
-6.82
-7.79
-8.56
-8.98
-8.90
-8.21
-6.95
-5.27
-3.45
-1.79
-0.46
0.48
1.14
1.67
2.21
2.78
3.32
3.76
4.06
4.23
4.34
4.44
4.54
4.64
4.75
4.91
5.19
5.61
6.10
6.55
6.80
6.77
6.49
6.07
5.65
5.32
5.09
4.94
4.79
4.62
4.45
4.31
4.27
4.36
4.62
5.03
5.51
5.97
6.31
6.47
6.51
6.58
6.83
7.42
8.39
9.70
11.21
12.78
14.28
15.71
17.19
18.92
21.15
24.01
27.49
31.34
35.12
38.31
40.50
41.56
41.82
42.05
43.34
46.72
52.80
61.52
72.13
83.37
93.93
102.66
108.76
111.70
111.20
107.17
99.83
89.75
77.76
64.72
51.30
37.85
24.47
11.20
-1.86
-14.49
-26.40
-37.31
-46.97
-55.08
-61.28
-65.30
-67.10
-67.02
-65.84
-64.49
-63.81
-64.23
-65.67
-67.68
-69.65
-71.09
-71.71
-71.59
-71.04
-70.51
-70.40
-70.90
-71.91
-73.00
-73.58
-73.11
-71.30
-68.26
-64.42
-60.34
-56.52
-53.25
-50.58
-48.38
-46.50
-44.77
-43.10
-41.35
-39.32
-36.81
-33.65
-29.77
-25.30
-20.41
-15.33
-10.24
-5.30
-0.68
3.38
6.60
8.74
9.64
9.29
7.81
5.43
2.46
-0.72
-3.66
-5.91
-7.16
-7.33
-6.60
-5.36
-4.01
-2.80
-1.76
-0.76
0.32
1.50
2.66
3.60
4.10
4.07
3.48
2.32
0.60
-1.71
-4.56
-7.79
-11.04
-13.86
-15.80
-16.58
-16.11
-14.51
-12.05
-9.08
-5.96
-3.11
-0.92
0.27
0.32
-0.71
-2.49
-4.53
-6.32
-7.56
-8.24
-8.65
-9.23
-10.35
-12.05
-13.91
-15.10
-14.68
-11.82
-6.21
1.80
11.21
20.64
28.64
34.21
37.08
37.87
37.90
38.75
41.67
47.13
54.65
62.93
70.26
74.98
76.01
73.16
67.22
59.73
52.40
46.45
42.00
38.01
32.73
24.69
13.61
0.68
-11.85
-21.76
-27.84
-30.30
-30.35
-29.31
-27.77
-25.42
-21.47
-15.44
-7.67
0.52
7.47
11.89
13.43
12.68
10.72
8.52
6.39
4.01
0.65
-4.22
-10.60
-17.84
-24.94
-30.99
-35.61
-39.09
-42.17
-45.70
-50.15
-55.45
-60.95
-65.68
-68.68
-69.36
-67.56
-63.61
-58.13
-51.76
-45.08
-38.53
-32.51
-27.42
-23.70
-21.70
-21.48
-22.66
-24.39
-25.58
-25.14
-22.33
-16.89
-9.10
0.41
10.81
21.29
31.12
39.73
46.75
51.95
55.29
56.89
56.94
55.69
53.38
50.17
46.12
41.26
35.62
29.33
22.69
16.09
9.97
4.72
0.58
-2.35
-4.08
-4.75
-4.55
-3.75
-2.67
-1.63
-0.88
-0.55
-0.59
-0.89
-1.29
-1.66
-1.99
-2.33
-2.80
-3.47
-4.41
-5.62
-7.07
-8.62
-10.10
-11.28
-11.91
-11.80
-10.91
-9.36
-7.41
-5.38
-3.50
-1.84
-0.31
1.24
2.91
4.64
6.24
7.49
8.27
8.57
8.53
8.36
8.25
8.37
8.79
9.52
10.51
11.62
12.66
13.40
13.71
13.57
13.11
12.53
12.03
11.71
11.55
11.42
11.18
10.72
10.03
9.16
8.13
6.99
5.71
4.26
2.65
0.91
-0.86
-2.54
-4.02
-5.22
-6.12
-6.78
-7.35
-7.97
-8.76
-9.72
-10.72
-11.52
-11.87
-11.55
-10.53
-8.89
-6.80
-4.42
-1.91
0.61
3.03
5.21
6.99
8.25
8.94
9.15
9.06
8.86
8.72
8.74
8.91
9.16
9.40
9.53
9.52
9.34
9.02
8.63
8.25
7.91
7.66
7.44
7.18
6.82
6.33
5.72
5.06
4.39
3.75
3.13
2.51
1.88
1.28
0.74
0.32
-0.00
-0.24
-0.47
-0.75
-1.07
-1.43
-1.80
-2.19
-2.65
-3.26
-4.02
-4.84
-5.51
-5.78
-5.49
-4.61
-3.29
-1.78
-0.35
0.85
1.81
2.59
3.31
4.02
4.67
5.15
5.37
5.32
5.09
4.85
4.77
4.95
5.35
5.88
6.40
6.80
7.06
7.19
7.21
7.11
6.87
6.49
5.97
5.40
4.86
4.41
4.05
3.73
3.36
2.91
2.41
1.92
1.50
1.13
0.76
0.30
-0.26
-0.89
-1.49
-1.95
-2.24
-2.40
-2.56
-2.87
-3.45
-4.36
-5.58
-6.99
-8.43
-9.68
-10.54
-10.86
-10.56
-9.67
-8.27
-6.54
-4.64
-2.78
-1.14
0.15
1.04
1.56
1.83
1.97
2.09
2.23
2.38
2.49
2.54
2.58
2.68
2.91
3.27
3.69
4.03
4.20
4.15
3.92
3.61
3.28
2.96
2.67
2.43
2.28
2.26
2.35
2.49
2.58
2.49
2.19
1.69
1.05
0.34
-0.39
-1.14
-1.84
-2.41
-2.76
-2.84
-2.73
-2.59
-2.63
-2.97
-3.64
-4.54
-5.51
-6.37
-6.98
-7.23
-7.05
-6.40
-5.31
-3.89
-2.30
-0.77
0.54
1.55
2.25
2.68
2.92
3.04
3.09
3.11
3.12
3.12
3.13
3.18
3.31
3.55
3.90
4.27
4.56
4.64
4.45
4.00
3.43
2.87
2.42
2.11
1.86
1.59
1.25
0.85
0.47
0.18
0.04
-0.01
-0.06
-0.23
-0.56
-0.99
-1.39
-1.63
-1.65
-1.49
-1.32
-1.33
-1.65
-2.31
-3.18
-4.12
-4.96
-5.64
-6.11
-6.40
-6.49
-6.34
-5.89
-5.12
-4.10
-2.95
-1.81
-0.80
0.02
0.65
1.13
1.54
1.92
2.27
2.58
2.83
3.02
3.21
3.49
3.91
4.48
5.11
5.67
6.04
6.18
6.12
5.93
5.64
5.26
4.77
4.19
3.55
2.95
2.47
2.13
1.90
1.70
1.50
1.26
1.02
0.80
0.65
0.57
0.52
0.43
0.24
-0.14
-0.70
-1.40
-2.15
-2.83
-3.36
-3.73
-4.01
-4.29
-4.70
-5.30
-6.07
-6.93
-7.72
-8.25
-8.37
-7.98
-7.08
-5.76
-4.21
-2.59
-1.08
0.21
1.23
1.94
2.40
2.68
2.90
3.16
3.54
4.04
4.60
5.14
5.53
5.68
5.56
5.26
4.87
4.56
4.40
4.41
4.48
4.47
4.27
3.83
3.25
2.68
2.26
2.07
2.04
2.03
1.91
1.58
1.10
0.59
0.21
0.02
-0.04
-0.11
-0.32
-0.71
-1.22
-1.70
-2.05
-2.28
-2.47
-2.75
-3.22
-3.87
-4.63
-5.38
-6.00
-6.36
-6.37
-5.95
-5.09
-3.89
-2.52
-1.20
-0.11
0.73
1.36
1.90
2.43
2.94
3.33
3.53
3.47
3.21
2.85
2.53
2.35
2.37
2.57
2.91
3.31
3.69
3.95
4.05
3.93
3.62
3.18
2.68
2.17
1.69
1.25
0.82
0.42
0.05
-0.27
-0.55
-0.80
-1.08
-1.40
-1.76
-2.10
-2.34
-2.46
-2.48
-2.50
-2.62
-2.90
-3.37
-4.00
-4.72
-5.45
-6.15
-6.72
-7.13
-7.32
-7.28
-7.02
-6.55
-5.92
-5.12
-4.17
-3.11
-2.03
-1.01
-0.11
0.64
1.30
1.91
2.51
3.08
3.59
4.01
4.37
4.69
5.00
5.25
5.34
5.22
4.88
4.43
4.03
3.81
3.76
3.79
3.74
3.55
3.24
2.89
2.60
2.38
2.19
1.96
1.68
1.37
1.09
0.88
0.71
0.49
0.17
-0.26
-0.76
-1.26
-1.73
-2.17
-2.57
-2.91
-3.13
-3.20
-3.11
-2.99
-2.98
-3.24
-3.86
-4.80
-5.89
-6.88
-7.53
-7.65
-7.18
-6.18
-4.81
-3.29
-1.79
-0.45
0.62
1.42
1.95
2.22
2.31
2.28
2.25
2.32
2.53
2.88
3.29
3.66
3.90
3.97
3.91
3.79
3.66
3.56
3.45
3.26
2.97
2.58
2.14
1.74
1.43
1.23
1.08
0.92
0.69
0.36
-0.04
-0.44
-0.76
-0.96
-1.04
-1.06
-1.07
-1.13
-1.25
-1.44
-1.72
-2.13
-2.74
-3.55
-4.48
-5.40
-6.13
-6.55
-6.64
-6.43
-6.01
-5.45
-4.78
-4.01
-3.12
-2.13
-1.05
0.09
1.24
2.34
3.29
4.05
4.54
4.77
4.75
4.51
4.12
3.65
3.15
2.69
2.31
2.02
1.78
1.57
1.35
1.14
0.99
0.95
1.01
1.10
1.12
0.96
0.54
-0.10
-0.87
-1.61
-2.17
-2.45
-2.48
-2.37
-2.23
-2.20
-2.29
-2.46
-2.63
-2.75
-2.84
-2.99
-3.32
-3.90
-4.68
-5.54
-6.28
-6.75
-6.87
-6.63
-6.05
-5.16
-4.00
-2.62
-1.13
0.32
1.54
2.38
2.83
2.99
3.06
3.22
3.55
4.03
4.52
4.90
5.08
5.08
4.96
4.80
4.66
4.53
4.38
4.20
3.99
3.80
3.66
3.57
3.46
3.27
2.93
2.44
1.83
1.20
0.63
0.19
-0.09
-0.21
-0.21
-0.19
-0.21
-0.33
-0.54
-0.82
-1.12
-1.42
-1.74
-2.12
-2.57
-3.08
-3.61
-4.09
-4.50
-4.83
-5.07
-5.22
-5.23
-5.08
-4.75
-4.26
-3.67
-3.01
-2.33
-1.63
-0.88
-0.07
0.80
1.67
2.47
3.10
3.49
3.65
3.65
3.60
3.60
3.68
3.82
3.92
3.91
3.73
3.42
3.04
2.69
2.41
2.19
1.97
1.70
1.37
1.02
0.71
0.46
0.21
-0.13
-0.62
-1.29
-2.05
-2.80
-3.40
-3.82
-4.05
-4.14
-4.16
-4.16
-4.19
-4.29
-4.53
-4.92
-5.42
-5.94
-6.33
-6.43
-6.15
-5.50
-4.52
-3.34
-2.08
-0.86
0.20
1.03
1.62
1.97
2.18
2.31
2.47
2.69
2.96
3.23
3.44
3.53
3.51
3.40
3.24
3.05
2.89
2.75
2.67
2.66
2.70
2.76
2.72
2.52
2.12
1.59
1.05
0.66
0.45
0.38
0.29
0.08
-0.28
-0.74
-1.19
-1.55
-1.88
-2.26
-2.77
-3.43
-4.16
-4.89
-5.58
-6.27
-7.04
-7.91
-8.79
-9.51
-9.84
-9.64
-8.89
-7.69
-6.18
-4.51
-2.82
-1.18
0.31
1.56
2.55
3.30
3.91
4.53
5.22
5.96
6.65
7.13
7.27
7.08
6.63
6.06
5.52
5.06
4.68
4.36
4.06
3.79
3.54
3.32
3.11
2.91
2.74
2.62
2.54
2.50
2.44
2.31
2.10
1.78
1.37
0.89
0.35
-0.23
-0.81
-1.29
-1.63
-1.81
-1.89
-1.97
-2.16
-2.55
-3.18
-4.02
-4.96
-5.85
-6.51
-6.76
-6.53
-5.86
-4.86
-3.72
-2.57
-1.49
-0.50
0.40
1.18
1.82
2.26
2.54
2.70
2.82
2.93
3.04
3.12
3.14
3.11
3.08
3.08
3.16
3.31
3.51
3.73
3.97
4.16
4.24
4.13
3.78
3.22
2.52
1.82
1.27
0.96
0.89
0.96
1.01
0.87
0.41
-0.39
-1.44
-2.54
-3.50
-4.15
-4.50
-4.62
-4.68
-4.80
-5.02
-5.33
-5.66
-5.97
-6.21
-6.33
-6.25
-5.88
-5.12
-3.97
-2.50
-0.89
0.64
1.91
2.82
3.33
3.49
3.39
3.11
2.77
2.46
2.25
2.20
2.29
2.47
2.66
2.82
2.91
2.93
2.89
2.80
2.67
2.51
2.35
2.22
2.12
2.03
1.88
1.64
1.30
0.91
0.51
0.16
-0.11
-0.31
-0.44
-0.51
-0.57
-0.68
-0.92
-1.33
-1.90
-2.52
-3.06
-3.43
-3.63
-3.77
-4.02
-4.53
-5.30
-6.21
-7.04
-7.59
-7.76
-7.58
-7.16
-6.56
-5.80
-4.85
-3.66
-2.25
-0.74
0.73
2.02
3.04
3.80
4.34
4.71
4.94
5.02
4.98
4.83
4.65
4.49
4.38
4.37
4.43
4.54
4.61
4.55
4.30
3.87
3.35
2.90
2.65
2.63
2.75
2.84
2.72
2.34
1.77
1.13
0.55
0.08
-0.28
-0.59
-0.88
-1.11
-1.26
-1.31
-1.30
-1.34
-1.54
-1.98
-2.64
-3.48
-4.38
-5.29
-6.12
-6.84
-7.39
-7.70
-7.70
-7.30
-6.50
-5.34
-3.95
-2.49
-1.10
0.13
1.14
1.94
2.53
2.95
3.23
3.40
3.51
3.60
3.74
3.97
4.30
4.69
5.04
5.24
5.24
5.03
4.71
4.34
3.98
3.61
3.20
2.71
2.15
1.58
1.01
0.47
-0.06
-0.60
-1.15
-1.66
-2.12
-2.49
-2.79
-3.01
-3.15
-3.18
-3.13
-3.09
-3.21
-3.62
-4.36
-5.34
-6.35
-7.13
-7.49
-7.34
-6.70
-5.73
-4.59
-3.46
-2.40
-1.42
-0.46
0.52
1.54
2.53
3.35
3.89
4.11
4.08
3.92
3.74
3.65
3.68
3.83
4.06
4.34
4.58
4.66
4.50
4.04
3.34
2.53
1.75
1.12
0.67
0.35
0.09
-0.15
-0.42
-0.69
-0.98
-1.26
-1.53
-1.76
-1.94
-2.12
-2.35
-2.74
-3.30
-4.01
-4.76
-5.43
-5.96
-6.36
-6.70
-6.98
-7.16
-7.08
-6.58
-5.62
-4.33
-2.95
-1.76
-0.91
-0.33
0.16
0.75
1.53
2.37
3.09
3.49
3.56
3.43
3.35
3.50
3.94
4.56
5.17
5.63
5.91
6.08
6.24
6.43
6.61
6.64
6.41
5.85
5.04
4.09
3.17
2.40
1.82
1.37
0.98
0.55
0.07
-0.45
-0.96
-1.43
-1.82
-2.14
-2.40
-2.59
-2.74
-2.86
-2.97
-3.12
-3.33
-3.62
-4.04
-4.60
-5.29
-5.99
-6.48
-6.50
-5.88
-4.65
-3.06
-1.48
-0.20
0.68
1.29
1.82
2.42
3.07
3.64
3.96
4.00
3.85
3.69
3.65
3.77
3.99
4.18
4.26
4.19
4.00
3.77
3.60
3.52
3.53
3.54
3.46
3.24
2.89
2.46
2.00
1.53
1.00
0.41
-0.19
-0.71
-1.05
-1.15
-1.10
-1.05
-1.15
-1.46
-1.95
-2.51
-3.04
-3.52
-3.95
-4.40
-4.88
-5.37
-5.77
-5.96
-5.83
-5.32
-4.44
-3.27
-1.97
-0.69
0.46
1.40
2.11
2.62
2.99
3.23
3.36
3.39
3.32
3.16
2.96
2.79
2.70
2.70
2.75
2.77
2.73
2.62
2.53
2.50
2.55
2.58
2.46
2.08
1.43
0.65
-0.06
-0.54
-0.73
-0.71
-0.63
-0.65
-0.84
-1.19
-1.67
-2.21
-2.79
-3.35
-3.85
-4.22
-4.41
-4.46
-4.50
-4.71
-5.20
-5.98
-6.91
-7.73
-8.19
-8.08
-7.37
-6.12
-4.54
-2.84
-1.26
0.06
1.03
1.68
2.12
2.48
2.90
3.43
4.04
4.62
5.09
5.38
5.52
5.59
5.65
5.75
5.83
5.79
5.54
5.06
4.41
3.74
3.22
2.92
2.80
2.73
2.52
2.07
1.38
0.61
-0.07
-0.51
-0.71
-0.77
-0.80
-0.89
-1.04
-1.15
-1.18
-1.13
-1.08
-1.18
-1.53
-2.12
-2.86
-3.60
-4.25
-4.80
-5.29
-5.78
-6.31
-6.82
-7.22
-7.41
-7.29
-6.84
-6.07
-5.03
-3.83
-2.59
-1.44
-0.45
0.33
0.96
1.54
2.18
2.92
3.71
4.44
4.99
5.24
5.19
4.92
4.58
4.33
4.27
4.39
4.62
4.84
4.97
4.97
4.84
4.58
4.15
3.58
2.88
2.16
1.50
0.98
0.59
0.25
-0.08
-0.44
-0.78
-1.08
-1.35
-1.67
-2.13
-2.74
-3.43
-4.07
-4.54
-4.80
-4.92
-5.05
-5.32
-5.79
-6.42
-7.07
-7.54
-7.68
-7.38
-6.63
-5.49
-4.10
-2.58
-1.08
0.31
1.52
2.49
3.20
3.65
3.90
4.04
4.16
4.35
4.62
4.96
5.30
5.58
5.76
5.83
5.80
5.68
5.48
5.19
4.78
4.24
3.59
2.89
2.24
1.75
1.44
1.26
1.08
0.76
0.21
-0.49
-1.19
-1.73
-2.05
-2.20
-2.33
-2.58
-2.97
-3.40
-3.74
-3.87
-3.82
-3.74
-3.76
-4.03
-4.55
-5.29
-6.16
-7.06
-7.92
-8.64
-9.11
-9.22
-8.92
-8.19
-7.09
-5.75
-4.26
-2.70
-1.13
0.40
1.82
3.02
3.96
4.61
5.02
5.28
5.47
5.63
5.75
5.81
5.82
5.83
5.88
6.01
6.14
6.17
6.00
5.64
5.14
4.64
4.19
3.81
3.43
2.99
2.48
2.01
1.65
1.47
1.40
1.32
1.11
0.74
0.26
-0.22
-0.62
-0.95
-1.31
-1.77
-2.33
-2.90
-3.36
-3.63
-3.74
-3.83
-4.07
-4.56
-5.30
-6.17
-6.98
-7.56
-7.78
-7.55
-6.83
-5.63
-4.05
-2.24
-0.42
1.18
2.42
3.26
3.75
3.96
3.96
3.80
3.59
3.45
3.52
3.91
4.59
5.41
6.12
6.53
6.52
6.17
5.59
4.96
4.38
3.86
3.38
2.89
2.37
1.79
1.14
0.44
-0.22
-0.78
-1.17
-1.39
-1.55
-1.79
-2.22
-2.82
-3.46
-3.97
-4.26
-4.36
-4.40
-4.56
-4.90
-5.41
-5.97
-6.46
-6.80
-6.93
-6.84
-6.49
-5.86
-4.97
-3.87
-2.64
-1.38
-0.14
1.03
2.12
3.10
3.93
4.54
4.87
4.90
4.66
4.27
3.89
3.69
3.73
3.99
4.31
4.51
4.46
4.16
3.71
3.27
2.94
2.77
2.69
2.59
2.41
2.10
1.68
1.20
0.71
0.27
-0.08
-0.36
-0.62
-0.93
-1.34
-1.89
-2.51
-3.11
-3.57
-3.82
-3.86
-3.77
-3.67
-3.67
-3.85
-4.23
-4.80
-5.53
-6.33
-7.10
-7.68
-7.87
-7.50
-6.52
-5.00
-3.18
-1.37
0.17
1.28
1.97
2.39
2.72
3.10
3.57
4.07
4.55
4.95
5.29
5.59
5.82
5.92
5.84
5.61
5.33
5.15
5.17
5.32
5.42
5.28
4.80
4.08
3.34
2.80
2.52
2.44
2.37
2.15
1.74
1.17
0.55
-0.04
-0.57
-1.05
-1.48
-1.86
-2.14
-2.31
-2.40
-2.50
-2.71
-3.10
-3.70
-4.47
-5.32
-6.17
-6.96
-7.63
-8.08
-8.17
-7.74
-6.71
-5.11
-3.14
-1.11
0.69
2.09
3.03
3.56
3.82
3.93
3.99
4.07
4.17
4.28
4.34
4.35
4.32
4.29
4.30
4.35
4.39
4.37
4.25
4.07
3.88
3.68
3.43
3.02
2.38
1.54
0.62
-0.20
-0.83
-1.24
-1.56
-1.87
-2.19
-2.47
-2.61
-2.58
-2.48
-2.48
-2.75
-3.36
-4.20
-5.09
-5.85
-6.39
-6.75
-6.99
-7.16
-7.16
-6.83
-6.06
-4.89
-3.48
-2.09
-0.91
0.00
0.73
1.40
2.08
2.72
3.23
3.50
3.51
3.38
3.26
3.29
3.49
3.81
4.12
4.29
4.29
4.16
3.97
3.79
3.64
3.45
3.18
2.82
2.43
2.08
1.83
1.67
1.48
1.16
0.65
-0.02
-0.72
-1.29
-1.66
-1.80
-1.82
-1.84
-1.99
-2.29
-2.68
-3.09
-3.45
-3.76
-4.10
-4.54
-5.13
-5.79
-6.41
-6.84
-7.04
-6.99
-6.75
-6.34
-5.75
-4.93
-3.85
-2.55
-1.17
0.16
1.28
2.18
2.88
3.48
4.02
4.48
4.83
5.03
5.13
5.21
5.34
5.53
5.70
5.73
5.55
5.22
4.86
4.63
4.58
4.63
4.62
4.42
4.01
3.48
2.94
2.48
2.06
1.58
0.99
0.31
-0.34
-0.84
-1.17
-1.39
-1.64
-2.02
-2.56
-3.18
-3.75
-4.20
-4.50
-4.73
-4.97
-5.26
-5.64
-6.10
-6.57
-7.00
-7.26
-7.22
-6.76
-5.81
-4.46
-2.90
-1.35
0.02
1.12
1.97
2.65
3.21
3.65
3.95
4.08
4.08
4.00
3.92
3.90
3.95
4.06
4.19
4.28
4.26
4.12
3.85
3.52
3.21
2.97
2.78
2.60
2.34
1.99
1.57
1.16
0.79
0.46
0.11
-0.37
-1.01
-1.76
-2.49
-3.04
-3.29
-3.25
-3.05
-2.86
-2.83
-3.09
-3.62
-4.37
-5.23
-6.12
-6.94
-7.58
-7.90
-7.80
-7.22
-6.20
-4.86
-3.40
-1.99
-0.74
0.32
1.23
2.07
2.84
3.52
4.07
4.43
4.63
4.69
4.70
4.73
4.83
5.01
5.23
5.44
5.58
5.60
5.45
5.11
4.57
3.89
3.16
2.46
1.86
1.37
0.99
0.72
0.57
0.57
0.69
0.86
0.96
0.89
0.59
0.10
-0.48
-1.01
-1.40
-1.64
-1.76
-1.86
-2.02
-2.28
-2.61
-2.96
-3.27
-3.53
-3.81
-4.23
-4.91
-5.89
-7.09
-8.31
-9.29
-9.76
-9.60
-8.78
-7.44
-5.80
-4.10
-2.51
-1.11
0.11
1.22
2.26
3.23
4.08
4.76
5.22
5.50
5.66
5.74
5.78
5.80
5.78
5.72
5.66
5.62
5.60
5.56
5.45
5.23
4.88
4.41
3.87
3.28
2.70
2.17
1.78
1.57
1.52
1.56
1.58
1.46
1.13
0.63
0.04
-0.56
-1.06
-1.43
-1.66
-1.78
-1.86
-1.94
-2.08
-2.32
-2.63
-2.96
-3.22
-3.37
-3.43
-3.48
-3.63
-3.99
-4.62
-5.48
-6.43
-7.27
-7.81
-7.89
-7.44
-6.50
-5.19
-3.68
-2.15
-0.73
0.52
1.56
2.40
3.06
3.53
3.82
3.93
3.94
3.90
3.93
4.04
4.25
4.50
4.73
4.88
4.94
4.91
4.80
4.58
4.26
3.82
3.30
2.77
2.31
1.99
1.80
1.66
1.49
1.23
0.88
0.49
0.16
-0.08
-0.24
-0.36
-0.51
-0.72
-0.96
-1.19
-1.39
-1.57
-1.78
-2.07
-2.48
-2.96
-3.44
-3.84
-4.13
-4.31
-4.48
-4.75
-5.22
-5.93
-6.83
-7.83
-8.76
-9.44
-9.73
-9.53
-8.84
-7.74
-6.35
-4.79
-3.23
-1.77
-0.52
0.48
1.27
1.94
2.56
3.24
3.99
4.77
5.49
6.08
6.45
6.59
6.48
6.16
5.70
5.20
4.73
4.36
4.12
3.98
3.92
3.89
3.85
3.77
3.65
3.45
3.14
2.73
2.23
1.71
1.25
0.91
0.71
0.64
0.66
0.77
0.95
1.17
1.41
1.58
1.58
1.33
0.81
0.09
-0.71
-1.46
-2.07
-2.51
-2.83
-3.09
-3.35
-3.66
-4.07
-4.56
-5.12
-5.72
-6.35
-7.00
-7.69
-8.40
-9.08
-9.61
-9.84
-9.62
-8.87
-7.61
-5.94
-4.07
-2.18
-0.44
1.04
2.20
3.05
3.60
3.95
4.17
4.36
4.61
4.90
5.21
5.48
5.69
5.81
5.86
5.87
5.83
5.76
5.67
5.55
5.41
5.22
4.95
4.57
4.06
3.48
2.91
2.44
2.10
1.86
1.66
1.41
1.07
0.67
0.29
-0.01
-0.19
-0.29
-0.39
-0.56
-0.87
-1.28
-1.76
-2.24
-2.71
-3.17
-3.64
-4.15
-4.67
-5.18
-5.64
-6.05
-6.43
-6.84
-7.30
-7.76
-8.08
-8.06
-7.58
-6.64
-5.36
-3.96
-2.62
-1.43
-0.36
0.68
1.76
2.84
3.81
4.52
4.90
4.98
4.89
4.79
4.81
4.95
5.16
5.29
5.23
4.92
4.39
3.74
3.13
2.65
2.39
2.31
2.34
2.37
2.31
2.15
1.93
1.75
1.65
1.62
1.61
1.50
1.22
0.78
0.24
-0.27
-0.66
-0.89
-1.06
-1.29
-1.71
-2.34
-3.10
-3.84
-4.45
-4.91
-5.27
-5.64
-6.11
-6.71
-7.37
-8.00
-8.53
-8.90
-9.02
-8.84
-8.27
-7.28
-5.93
-4.31
-2.61
-0.98
0.44
1.62
2.55
3.30
3.93
4.47
4.95
5.35
5.67
5.90
6.03
6.03
5.92
5.70
5.42
5.15
4.97
4.93
5.02
5.17
5.29
5.31
5.20
4.98
4.69
4.34
3.93
3.44
2.89
2.37
1.94
1.67
1.53
1.43
1.26
0.97
0.55
0.09
-0.30
-0.56
-0.70
-0.82
-0.97
-1.23
-1.58
-2.00
-2.44
-2.92
-3.42
-3.94
-4.44
-4.88
-5.24
-5.56
-5.94
-6.45
-7.13
-7.88
-8.54
-8.91
-8.85
-8.32
-7.37
-6.08
-4.55
-2.85
-1.08
0.65
2.19
3.45
4.37
4.97
5.34
5.54
5.63
5.62
5.56
5.50
5.49
5.57
5.72
5.87
5.92
5.83
5.61
5.30
4.95
4.58
4.19
3.78
3.35
2.95
2.58
2.22
1.80
1.24
0.53
-0.22
-0.87
-1.28
-1.41
-1.35
-1.29
-1.40
-1.77
-2.33
-2.96
-3.53
-3.94
-4.23
-4.46
-4.73
-5.11
-5.64
-6.30
-7.00
-7.58
-7.86
-7.70
-7.06
-5.99
-4.61
-3.08
-1.54
-0.08
1.20
2.25
3.03
3.54
3.85
4.03
4.15
4.27
4.40
4.53
4.68
4.85
5.07
5.32
5.54
5.65
5.58
5.33
4.91
4.38
3.82
3.27
2.76
2.30
1.90
1.57
1.28
1.05
0.87
0.76
0.72
0.75
0.78
0.78
0.65
0.33
-0.19
-0.91
-1.74
-2.62
-3.43
-4.09
-4.54
-4.78
-4.91
-5.06
-5.37
-5.91
-6.65
-7.48
-8.25
-8.83
-9.14
-9.13
-8.78
-8.07
-7.00
-5.64
-4.13
-2.63
-1.26
-0.04
1.09
2.22
3.40
4.55
5.51
6.14
6.40
6.37
6.25
6.23
6.37
6.59
6.72
6.63
6.28
5.76
5.20
4.74
4.40
4.14
3.87
3.52
3.09
2.61
2.16
1.80
1.54
1.35
1.19
0.99
0.76
0.53
0.38
0.32
0.35
0.37
0.24
-0.14
-0.75
-1.50
-2.21
-2.72
-2.97
-3.02
-3.02
-3.12
-3.44
-4.03
-4.86
-5.88
-6.99
-8.07
-8.95
-9.42
-9.30
-8.50
-7.08
-5.26
-3.37
-1.67
-0.32
0.73
1.59
2.43
3.30
4.14
4.83
5.27
5.45
5.41
5.27
5.13
5.03
5.01
5.09
5.25
5.48
5.70
5.86
5.88
5.71
5.34
4.78
4.03
3.17
2.30
1.52
0.91
0.50
0.25
0.08
-0.10
-0.37
-0.76
-1.26
-1.82
-2.36
-2.81
-3.07
-3.18
-3.22
-3.36
-3.76
-4.43
-5.22
-5.93
-6.40
-6.61
-6.64
-6.61
-6.56
-6.39
-5.95
-5.12
-3.93
-2.55
-1.16
0.09
1.17
2.14
3.06
3.96
4.80
5.49
5.94
6.11
6.01
5.69
5.25
4.84
4.57
4.50
4.57
4.68
4.67
4.44
3.98
3.39
2.80
2.32
1.97
1.73
1.51
1.24
0.92
0.58
0.25
-0.05
-0.30
-0.53
-0.75
-0.92
-1.00
-0.97
-0.89
-0.88
-1.06
-1.51
-2.22
-3.07
-3.92
-4.65
-5.23
-5.72
-6.24
-6.87
-7.62
-8.40
-9.03
-9.37
-9.28
-8.73
-7.78
-6.51
-5.04
-3.49
-1.95
-0.46
0.91
2.14
3.22
4.13
4.88
5.46
5.89
6.20
6.41
6.56
6.64
6.66
6.64
6.59
6.53
6.43
6.25
5.94
5.48
4.94
4.39
3.95
3.63
3.39
3.13
2.77
2.33
1.89
1.55
1.34
1.19
0.99
0.66
0.23
-0.19
-0.47
-0.53
-0.43
-0.30
-0.31
-0.54
-1.02
-1.68
-2.42
-3.15
-3.79
-4.31
-4.72
-5.05
-5.34
-5.65
-6.05
-6.57
-7.19
-7.83
-8.35
-8.60
-8.41
-7.73
-6.62
-5.22
-3.75
-2.37
-1.12
0.02
1.14
2.30
3.45
4.50
5.32
5.81
5.96
5.85
5.65
5.54
5.60
5.81
6.05
6.14
5.92
5.38
4.64
3.91
3.39
3.14
3.08
3.04
2.84
2.44
1.88
1.33
0.88
0.55
0.26
-0.11
-0.64
-1.28
-1.93
-2.42
-2.62
-2.54
-2.27
-1.97
-1.84
-1.98
-2.39
-3.00
-3.68
-4.35
-4.99
-5.64
-6.36
-7.15
-7.91
-8.47
-8.64
-8.28
-7.33
-5.87
-4.11
-2.34
-0.83
0.28
1.03
1.60
2.21
2.97
3.86
4.71
5.34
5.62
5.61
5.43
5.26
5.18
5.22
5.31
5.37
5.34
5.20
4.92
4.52
4.04
3.50
2.97
2.47
2.02
1.60
1.20
0.85
0.59
0.46
0.48
0.61
0.75
0.79
0.66
0.32
-0.17
-0.75
-1.33
-1.90
-2.45
-3.00
-3.55
-4.09
-4.57
-4.96
-5.26
-5.51
-5.81
-6.23
-6.83
-7.58
-8.38
-9.05
-9.41
-9.32
-8.73
-7.69
-6.33
-4.78
-3.18
-1.68
-0.35
0.75
1.60
2.24
2.75
3.21
3.70
4.24
4.80
5.33
5.75
6.01
6.10
6.02
5.82
5.58
5.36
5.19
5.06
4.92
4.71
4.41
4.03
3.64
3.28
2.97
2.72
2.45
2.12
1.70
1.22
0.78
0.46
0.33
0.38
0.51
0.59
0.53
0.29
-0.13
-0.63
-1.15
-1.61
-1.99
-2.28
-2.53
-2.81
-3.18
-3.68
-4.30
-5.04
-5.83
-6.60
-7.25
-7.64
-7.64
-7.14
-6.12
-4.67
-2.98
-1.29
0.18
1.32
2.16
2.79
3.33
3.84
4.30
4.63
4.75
4.62
4.30
3.89
3.55
3.37
3.38
3.53
3.74
3.91
3.98
3.92
3.72
3.39
2.94
2.38
1.73
1.05
0.45
-0.01
-0.29
-0.45
-0.60
-0.86
-1.27
-1.84
-2.46
-3.05
-3.52
-3.83
-3.98
-3.99
-3.92
-3.87
-4.00
-4.44
-5.25
-6.36
-7.56
-8.54
-9.02
-8.85
-8.02
-6.65
-4.98
-3.20
-1.51
-0.03
1.13
1.94
2.43
2.70
2.86
3.05
3.33
3.69
4.11
4.54
4.93
5.27
5.54
5.71
5.79
5.80
5.76
5.66
5.45
5.06
4.43
3.62
2.80
2.20
1.98
2.13
2.46
2.69
2.55
1.98
1.09
0.14
-0.59
-0.97
-1.02
-0.95
-1.01
-1.37
-2.04
-2.88
-3.72
-4.37
-4.78
-4.98
-5.05
-5.09
-5.19
-5.40
-5.73
-6.20
-6.76
-7.33
-7.77
-7.92
-7.64
-6.91
-5.80
-4.46
-3.07
-1.75
-0.56
0.53
1.58
2.61
3.62
4.53
5.26
5.75
5.99
6.05
6.03
6.04
6.10
6.17
6.20
6.08
5.81
5.40
4.95
4.53
4.14
3.74
3.28
2.74
2.14
1.61
1.23
1.04
1.02
1.04
0.95
0.67
0.17
-0.51
-1.25
-1.93
-2.47
-2.80
-2.91
-2.83
-2.62
-2.40
-2.28
-2.38
-2.77
-3.46
-4.36
-5.31
-6.12
-6.60
-6.61
-6.12
-5.17
-3.89
-2.42
-0.91
0.50
1.73
2.71
3.41
3.84
4.04
4.08
4.04
4.02
4.06
4.19
4.36
4.50
4.57
4.57
4.51
4.44
4.37
4.28
4.09
3.78
3.34
2.79
2.20
1.58
0.95
0.34
-0.20
-0.60
-0.86
-1.01
-1.18
-1.46
-1.87
-2.37
-2.86
-3.25
-3.51
-3.67
-3.77
-3.85
-4.00
-4.30
-4.87
-5.75
-6.85
-7.93
-8.68
-8.87
-8.45
-7.51
-6.23
-4.83
-3.44
-2.16
-1.04
-0.13
0.57
1.07
1.49
1.90
2.39
2.91
3.39
3.71
3.82
3.77
3.68
3.68
3.84
4.17
4.56
4.90
5.08
5.04
4.75
4.23
3.52
2.70
1.92
1.32
1.00
0.94
1.02
1.09
1.03
0.81
0.50
0.16
-0.15
-0.46
-0.80
-1.19
-1.60
-1.98
-2.31
-2.62
-3.00
-3.51
-4.14
-4.80
-5.37
-5.76
-6.02
-6.31
-6.77
-7.47
-8.33
-9.07
-9.37
-9.00
-7.89
-6.18
-4.11
-1.99
-0.03
1.61
2.88
3.80
4.43
4.83
5.07
5.23
5.35
5.49
5.70
5.98
6.30
6.61
6.81
6.84
6.67
6.35
5.93
5.51
5.11
4.74
4.40
4.07
3.75
3.42
3.02
2.52
1.90
1.23
0.64
0.26
0.13
0.20
0.31
0.33
0.18
-0.12
-0.51
-0.94
-1.39
-1.86
-2.35
-2.85
-3.32
-3.76
-4.20
-4.66
-5.15
-5.61
-5.96
-6.07
-5.91
-5.44
-4.70
-3.75
-2.67
-1.57
-0.55
0.34
1.10
1.78
2.42
3.03
3.53
3.87
3.97
3.86
3.61
3.36
3.22
3.23
3.38
3.59
3.82
3.98
4.02
3.88
3.50
2.91
2.17
1.41
0.77
0.30
0.00
-0.21
-0.42
-0.70
-1.02
-1.31
-1.50
-1.60
-1.65
-1.77
-2.02
-2.43
-2.93
-3.47
-3.99
-4.52
-5.10
-5.76
-6.49
-7.20
-7.79
-8.19
-8.35
-8.23
-7.81
-7.06
-5.99
-4.70
-3.32
-2.04
-0.95
-0.03
0.83
1.74
2.75
3.78
4.68
5.29
5.57
5.60
5.55
5.59
5.75
5.96
6.04
5.88
5.44
4.82
4.17
3.63
3.24
2.96
2.71
2.43
2.12
1.82
1.56
1.32
1.07
0.75
0.39
0.05
-0.22
-0.38
-0.45
-0.51
-0.63
-0.83
-1.08
-1.33
-1.59
-1.87
-2.25
-2.75
-3.35
-3.98
-4.62
-5.24
-5.90
-6.62
-7.38
-8.07
-8.55
-8.69
-8.45
-7.82
-6.86
-5.64
-4.23
-2.70
-1.18
0.20
1.34
2.22
2.87
3.36
3.73
4.00
4.17
4.24
4.25
4.28
4.36
4.53
4.74
4.93
5.06
5.09
5.01
4.81
4.48
4.06
3.58
3.11
2.72
2.46
2.38
2.46
2.65
2.85
2.96
2.89
2.62
2.17
1.62
1.06
0.52
0.00
-0.54
-1.15
-1.86
-2.62
-3.41
-4.18
-4.92
-5.65
-6.34
-6.94
-7.28
-7.21
-6.59
-5.41
-3.82
-2.11
-0.57
0.62
1.44
1.99
2.40
2.76
3.04
3.19
3.22
3.23
3.38
3.77
4.34
4.91
5.21
5.08
4.52
3.75
3.02
2.56
2.39
2.38
2.36
2.21
1.91
1.54
1.18
0.86
0.55
0.19
-0.22
-0.63
-0.95
-1.14
-1.27
-1.47
-1.86
-2.47
-3.20
-3.87
-4.33
-4.55
-4.61
-4.70
-4.97
-5.52
-6.32
-7.28
-8.19
-8.90
-9.22
-9.07
-8.41
-7.28
-5.82
-4.15
-2.44
-0.79
0.69
1.93
2.83
3.36
3.53
3.42
3.17
2.94
2.90
3.10
3.53
4.07
4.54
4.80
4.78
4.50
4.11
3.76
3.58
3.61
3.81
4.14
4.51
4.86
5.13
5.25
5.14
4.78
4.18
3.42
2.62
1.81
1.01
0.19
-0.68
-1.57
-2.39
-3.05
-3.51
-3.79
-3.97
-4.11
-4.28
-4.50
-4.81
-5.24
-5.78
-6.37
-6.87
-7.08
-6.85
-6.12
-4.95
-3.51
-1.96
-0.45
0.92
2.13
3.15
3.98
4.61
5.05
5.30
5.39
5.30
5.05
4.65
4.17
3.70
3.33
3.15
3.19
3.43
3.77
4.09
4.26
4.20
3.90
3.47
3.02
2.70
2.55
2.55
2.60
2.57
2.39
2.00
1.43
0.71
-0.08
-0.86
-1.54
-2.02
-2.29
-2.39
-2.39
-2.42
-2.57
-2.88
-3.34
-3.93
-4.61
-5.32
-5.98
-6.49
-6.74
-6.64
-6.13
-5.26
-4.12
-2.87
-1.64
-0.55
0.36
1.09
1.68
2.17
2.58
2.92
3.21
3.45
3.63
3.76
3.84
3.86
3.84
3.82
3.82
3.86
3.93
4.01
4.08
4.11
4.07
3.93
3.65
3.21
2.66
2.12
1.68
1.39
1.20
0.96
0.53
-0.15
-1.01
-1.84
-2.46
-2.75
-2.73
-2.59
-2.55
-2.79
-3.35
-4.17
-5.11
-6.05
-6.90
-7.68
-8.37
-8.92
-9.21
-9.06
-8.36
-7.13
-5.56
-3.91
-2.45
-1.33
-0.50
0.18
0.93
1.83
2.85
3.82
4.56
4.96
5.05
4.97
4.92
5.00
5.22
5.44
5.52
5.37
5.05
4.68
4.41
4.29
4.26
4.16
3.86
3.35
2.75
2.25
1.97
1.93
2.01
2.01
1.76
1.23
0.50
-0.24
-0.85
-1.25
-1.50
-1.68
-1.87
-2.09
-2.28
-2.42
-2.53
-2.66
-2.93
-3.39
-4.03
-4.80
-5.62
-6.38
-7.01
-7.45
-7.61
-7.47
-7.02
-6.30
-5.40
-4.39
-3.34
-2.29
-1.25
-0.24
0.71
1.61
2.48
3.35
4.20
4.94
5.46
5.67
5.59
5.34
5.08
4.96
4.98
5.04
5.02
4.84
4.54
4.23
4.01
3.89
3.79
3.58
3.19
2.62
1.97
1.32
0.74
0.26
-0.13
-0.44
-0.70
-0.92
-1.13
-1.36
-1.57
-1.75
-1.86
-1.91
-1.98
-2.16
-2.55
-3.14
-3.84
-4.50
-4.97
-5.14
-5.03
-4.66
-4.11
-3.37
-2.46
-1.37
-0.16
1.06
2.17
3.09
3.80
4.32
4.68
4.88
4.86
4.58
4.06
3.40
2.74
2.21
1.82
1.48
1.05
0.46
-0.30
-1.12
-1.82
-2.30
-2.50
-2.45
-2.27
-2.06
-1.92
-1.90
-2.03
-2.24
-2.46
-2.58
-2.55
-2.40
-2.20
-2.01
-1.89
-1.85
-1.88
-1.98
-2.16
-2.43
-2.76
-3.09
-3.35
-3.55
-3.78
-4.21
-5.00
-6.19
-7.61
-8.94
-9.80
-9.90
-9.16
-7.72
-5.87
-3.99
-2.34
-1.08
-0.20
0.42
0.93
1.45
2.07
2.81
3.64
4.49
5.29
5.95
6.43
6.70
6.82
6.86
6.89
6.97
7.10
7.22
7.27
7.18
6.92
6.50
5.97
5.40
4.83
4.29
3.80
3.35
2.93
2.50
2.05
1.56
1.01
0.40
-0.20
-0.73
-1.11
-1.30
-1.32
-1.23
-1.17
-1.24
-1.48
-1.90
-2.41
-2.95
-3.46
-3.96
-4.47
-5.05
-5.71
-6.40
-7.07
-7.62
-7.92
-7.85
-7.34
-6.37
-5.02
-3.45
-1.84
-0.38
0.84
1.78
2.48
2.96
3.26
3.43
3.54
3.68
3.91
4.24
4.56
4.74
4.71
4.47
4.17
3.96
3.96
4.13
4.34
4.44
4.36
4.11
3.73
3.27
2.74
2.10
1.37
0.62
-0.04
-0.50
-0.76
-0.90
-1.08
-1.38
-1.82
-2.32
-2.78
-3.12
-3.35
-3.51
-3.71
-4.04
-4.55
-5.26
-6.11
-6.98
-7.70
-8.08
-7.95
-7.27
-6.12
-4.67
-3.18
-1.81
-0.66
0.31
1.17
1.98
2.79
3.56
4.26
4.83
5.24
5.45
5.49
5.40
5.25
5.13
5.08
5.08
5.06
4.94
4.64
4.17
3.56
2.90
2.24
1.64
1.17
0.87
0.78
0.88
1.06
1.18
1.07
0.67
0.02
-0.74
-1.45
-1.97
-2.28
-2.42
-2.48
-2.58
-2.75
-3.02
-3.38
-3.74
-4.08
-4.39
-4.69
-5.07
-5.59
-6.26
-7.04
-7.82
-8.46
-8.80
-8.73
-8.17
-7.11
-5.61
-3.82
-1.94
-0.18
1.31
2.49
3.42
4.18
4.82
5.34
5.71
5.93
6.09
6.27
6.49
6.71
6.80
6.66
6.29
5.83
5.48
5.36
5.43
5.51
5.36
4.86
4.06
3.17
2.43
1.97
1.77
1.69
1.57
1.33
1.00
0.63
0.28
-0.06
-0.41
-0.78
-1.18
-1.58
-1.95
-2.28
-2.56
-2.80
-2.99
-3.15
-3.31
-3.52
-3.85
-4.32
-4.93
-5.58
-6.19
-6.62
-6.74
-6.49
-5.85
-4.87
-3.66
-2.36
-1.10
0.03
0.96
1.69
2.24
2.67
3.06
3.43
3.77
4.02
4.13
4.12
4.05
4.03
4.11
4.25
4.36
4.29
4.03
3.63
3.21
2.88
2.64
2.39
2.02
1.50
0.91
0.39
0.07
-0.03
-0.02
-0.09
-0.38
-0.96
-1.71
-2.49
-3.11
-3.49
-3.63
-3.64
-3.68
-3.89
-4.34
-5.03
-5.85
-6.66
-7.32
-7.75
-7.89
-7.76
-7.35
-6.67
-5.72
-4.53
-3.20
-1.88
-0.69
0.30
1.11
1.84
2.57
3.31
4.01
4.57
4.92
5.03
4.96
4.80
4.63
4.49
4.39
4.34
4.32
4.33
4.31
4.20
3.94
3.49
2.90
2.26
1.69
1.30
1.13
1.14
1.22
1.21
1.01
0.58
-0.03
-0.72
-1.38
-1.94
-2.41
-2.81
-3.17
-3.51
-3.80
-4.07
-4.33
-4.64
-5.05
-5.60
-6.27
-7.00
-7.68
-8.15
-8.24
-7.81
-6.82
-5.38
-3.67
-1.96
-0.47
0.70
1.57
2.26
2.90
3.55
4.20
4.82
5.37
5.84
6.25
6.59
6.79
6.79
6.53
6.09
5.64
5.38
5.41
5.65
5.90
5.90
5.51
4.79
3.92
3.10
2.47
2.00
1.59
1.14
0.65
0.18
-0.17
-0.34
-0.37
-0.37
-0.45
-0.67
-1.01
-1.41
-1.78
-2.09
-2.36
-2.65
-3.02
-3.52
-4.17
-4.93
-5.74
-6.53
-7.20
-7.66
-7.81
-7.56
-6.89
-5.84
-4.52
-3.08
-1.64
-0.28
0.98
2.13
3.13
3.89
4.37
4.60
4.71
4.85
5.13
5.51
5.86
5.99
5.83
5.39
4.79
4.20
3.71
3.35
3.08
2.82
2.56
2.27
1.98
1.69
1.35
0.93
0.43
-0.12
-0.61
-0.96
-1.14
-1.20
-1.27
-1.46
-1.84
-2.38
-2.98
-3.53
-3.96
-4.27
-4.53
-4.83
-5.23
-5.80
-6.53
-7.36
-8.18
-8.84
-9.15
-8.97
-8.25
-7.05
-5.53
-3.88
-2.28
-0.85
0.31
1.22
1.91
2.47
2.98
3.46
3.93
4.35
4.71
5.01
5.27
5.48
5.63
5.69
5.65
5.57
5.53
5.53
5.54
5.42
5.06
4.45
3.71
3.02
2.54
2.32
2.28
2.29
2.21
2.01
1.71
1.41
1.14
0.89
0.62
0.28
-0.15
-0.65
-1.16
-1.62
-2.00
-2.35
-2.71
-3.12
-3.59
-4.09
-4.62
-5.18
-5.81
-6.49
-7.12
-7.56
-7.65
-7.27
-6.41
-5.16
-3.67
-2.10
-0.62
0.69
1.74
2.54
3.09
3.45
3.70
3.91
4.11
4.33
4.57
4.82
5.05
5.25
5.38
5.41
5.28
4.99
4.53
3.96
3.38
2.90
2.58
2.44
2.37
2.26
1.99
1.54
0.99
0.47
0.07
-0.19
-0.37
-0.56
-0.82
-1.13
-1.43
-1.68
-1.87
-2.08
-2.38
-2.79
-3.26
-3.75
-4.20
-4.66
-5.20
-5.87
-6.61
-7.26
-7.58
-7.37
-6.59
-5.35
-3.89
-2.45
-1.20
-0.15
0.77
1.68
2.55
3.27
3.67
3.61
3.14
2.46
1.90
1.69
1.93
2.46
3.01
3.33
3.28
2.94
2.49
2.15
2.04
2.14
2.32
2.44
2.40
2.22
1.98
1.73
1.46
1.12
0.66
0.11
-0.46
-0.92
-1.21
-1.37
-1.53
-1.84
-2.32
-2.90
-3.40
-3.72
-3.87
-4.01
-4.32
-4.91
-5.74
-6.65
-7.45
-7.97
-8.14
-7.98
-7.52
-6.76
-5.71
-4.38
-2.84
-1.23
0.30
1.61
2.62
3.37
3.90
4.31
4.67
5.05
5.49
5.98
6.50
6.98
7.35
7.54
7.51
7.27
6.86
6.37
5.87
5.44
5.10
4.84
4.58
4.25
3.83
3.31
2.76
2.25
1.85
1.57
1.38
1.23
1.06
0.80
0.41
-0.09
-0.65
-1.17
-1.57
-1.85
-2.04
-2.23
-2.46
-2.75
-3.07
-3.38
-3.73
-4.19
-4.84
-5.68
-6.59
-7.40
-7.94
-8.12
-7.94
-7.44
-6.63
-5.55
-4.21
-2.73
-1.29
-0.03
0.98
1.78
2.51
3.25
3.98
4.56
4.86
4.83
4.59
4.36
4.35
4.63
5.07
5.43
5.50
5.18
4.59
3.93
3.40
3.08
2.91
2.72
2.35
1.77
1.06
0.38
-0.15
-0.51
-0.78
-1.05
-1.35
-1.66
-1.90
-2.04
-2.13
-2.25
-2.44
-2.69
-2.92
-3.11
-3.29
-3.59
-4.15
-5.00
-6.06
-7.14
-8.01
-8.50
-8.53
-8.09
-7.22
-6.00
-4.54
-3.01
-1.60
-0.42
0.50
1.23
1.88
2.51
3.14
3.70
4.13
4.43
4.63
4.79
4.95
5.05
5.04
4.87
4.56
4.19
3.84
3.57
3.36
3.13
2.83
2.44
2.00
1.56
1.18
0.89
0.71
0.67
0.74
0.90
1.02
1.03
0.84
0.50
0.11
-0.21
-0.41
-0.58
-0.90
-1.50
-2.41
-3.52
-4.62
-5.52
-6.14
-6.52
-6.76
-6.96
-7.21
-7.51
-7.83
-8.05
-8.05
-7.69
-6.87
-5.59
-3.92
-2.06
-0.19
1.47
2.82
3.80
4.45
4.81
4.95
4.94
4.82
4.62
4.41
4.25
4.20
4.29
4.50
4.75
4.96
5.08
5.06
4.92
4.70
4.44
4.21
4.07
4.05
4.17
4.37
4.55
4.61
4.48
4.17
3.68
3.06
2.34
1.56
0.74
-0.07
-0.84
-1.55
-2.17
-2.67
-3.03
-3.25
-3.38
-3.49
-3.67
-3.97
-4.34
-4.71
-4.99
-5.17
-5.34
-5.59
-5.96
-6.39
-6.75
-6.87
-6.63
-6.00
-5.01
-3.75
-2.33
-0.91
0.33
1.25
1.80
2.02
2.07
2.11
2.25
2.56
2.97
3.42
3.79
4.06
4.21
4.26
4.29
4.37
4.56
4.82
5.07
5.14
4.88
4.25
3.32
2.29
1.33
0.59
0.11
-0.19
-0.42
-0.69
-1.06
-1.51
-1.99
-2.42
-2.76
-2.96
-3.02
-2.98
-2.92
-2.92
-3.07
-3.43
-4.01
-4.74
-5.53
-6.28
-6.93
-7.45
-7.85
-8.10
-8.15
-7.92
-7.40
-6.58
-5.54
-4.37
-3.13
-1.88
-0.62
0.63
1.83
2.93
3.86
4.57
5.03
5.22
5.20
5.02
4.78
4.57
4.48
4.53
4.66
4.81
4.91
4.90
4.80
4.63
4.43
4.22
3.99
3.72
3.43
3.11
2.78
2.43
2.05
1.62
1.14
0.67
0.25
-0.09
-0.35
-0.55
-0.75
-0.98
-1.26
-1.58
-1.94
-2.35
-2.83
-3.35
-3.86
-4.30
-4.64
-4.91
-5.21
-5.64
-6.24
-6.93
-7.57
-7.93
-7.87
-7.34
-6.40
-5.20
-3.86
-2.48
-1.12
0.21
1.45
2.56
3.53
4.31
4.92
5.37
5.66
5.81
5.88
5.93
6.06
6.28
6.57
6.86
7.04
7.07
6.93
6.68
6.37
6.04
5.68
5.22
4.66
4.00
3.34
2.76
2.33
2.05
1.86
1.62
1.26
0.78
0.27
-0.14
-0.34
-0.37
-0.35
-0.42
-0.68
-1.15
-1.73
-2.34
-2.87
-3.32
-3.68
-3.98
-4.22
-4.46
-4.77
-5.26
-6.00
-6.97
-8.02
-8.91
-9.37
-9.22
-8.44
-7.16
-5.60
-3.97
-2.40
-0.91
0.51
1.89
3.18
4.28
5.11
5.65
5.95
6.06
6.07
5.98
5.82
5.59
5.32
5.04
4.80
4.61
4.48
4.38
4.31
4.27
4.20
4.04
3.71
3.18
2.48
1.75
1.14
0.75
0.59
0.56
0.51
0.31
-0.11
-0.69
-1.30
-1.81
-2.16
-2.37
-2.55
-2.79
-3.13
-3.55
-3.93
-4.17
-4.25
-4.29
-4.46
-4.95
-5.85
-7.10
-8.49
-9.73
-10.54
-10.74
-10.29
-9.23
-7.71
-5.91
-4.01
-2.17
-0.49
0.95
2.12
3.01
3.65
4.10
4.45
4.77
5.08
5.37
5.62
5.79
5.89
5.95
6.00
6.02
6.00
5.89
5.70
5.42
5.09
4.73
4.34
3.90
3.44
2.97
2.52
2.13
1.78
1.45
1.12
0.80
0.51
0.31
0.20
0.17
0.16
0.11
-0.00
-0.18
-0.39
-0.60
-0.80
-0.99
-1.17
-1.33
-1.46
-1.55
-1.65
-1.83
-2.17
-2.74
-3.57
-4.65
-5.90
-7.22
-8.44
-9.36
-9.80
-9.65
-8.86
-7.50
-5.74
-3.75
-1.72
0.20
1.87
3.20
4.13
4.66
4.84
4.80
4.66
4.51
4.37
4.27
4.20
4.18
4.20
4.27
4.35
4.42
4.48
4.52
4.53
4.44
4.17
3.63
2.85
1.94
1.09
0.45
0.14
0.11
0.29
0.53
0.71
0.73
0.54
0.17
-0.36
-0.95
-1.55
-2.10
-2.61
-3.11
-3.63
-4.20
-4.82
-5.49
-6.21
-6.93
-7.58
-8.00
-8.03
-7.56
-6.60
-5.24
-3.68
-2.11
-0.72
0.39
1.19
1.73
2.13
2.51
2.90
3.30
3.68
3.97
4.18
4.33
4.49
4.69
4.90
5.06
5.12
5.08
4.96
4.79
4.57
4.27
3.85
3.29
2.60
1.84
1.09
0.42
-0.12
-0.50
-0.75
-0.93
-1.15
-1.50
-2.02
-2.68
-3.37
-3.96
-4.37
-4.59
-4.66
-4.66
-4.65
-4.64
-4.66
-4.73
-4.95
-5.42
-6.18
-7.19
-8.28
-9.20
-9.72
-9.68
-9.02
-7.84
-6.27
-4.52
-2.74
-1.08
0.37
1.60
2.64
3.58
4.49
5.39
6.20
6.81
7.10
7.07
6.84
6.64
6.69
7.07
7.72
8.40
8.84
8.85
8.34
7.35
6.00
4.42
2.79
1.30
0.13
-0.56
-0.73
-0.47
0.02
0.52
0.87
1.06
1.12
1.16
1.23
1.32
1.35
1.21
0.81
0.14
-0.78
-1.82
-2.84
-3.70
-4.25
-4.44
-4.27
-3.86
-3.37
-2.99
-2.89
-3.22
-3.97
-5.07
-6.32
-7.45
-8.24
-8.57
-8.41
-7.83
-6.98
-5.96
-4.81
-3.54
-2.13
-0.62
0.95
2.49
3.92
5.18
6.26
7.13
7.72
7.95
7.72
7.02
5.94
4.71
3.58
2.76
2.33
2.27
2.47
2.82
3.21
3.58
3.88
4.01
3.85
3.33
2.45
1.30
0.06
-1.12
-2.13
-2.96
-3.64
-4.21
-4.64
-4.86
-4.79
-4.45
-3.92
-3.42
-3.16
-3.26
-3.71
-4.39
-5.13
-5.78
-6.27
-6.56
-6.58
-6.20
-5.29
-3.78
-1.79
0.38
2.37
3.85
4.67
4.91
4.76
4.47
4.21
4.02
3.90
3.83
3.86
4.03
4.37
4.87
5.46
6.05
6.53
6.82
6.90
6.78
6.52
6.24
6.03
5.96
6.04
6.23
6.45
6.60
6.61
6.42
6.08
5.73
5.59
5.89
6.74
8.03
9.43
10.55
11.13
11.20
11.15
11.52
12.72
14.84
17.55
20.25
22.38
23.74
24.56
25.41
27.00
29.93
34.67
41.58
50.86
62.22
74.62
86.08
94.04
96.20
91.40
80.12
64.32
46.59
29.11
13.16
-0.76
-12.35
-20.97
-25.74
-26.13
-22.63
-17.05
-12.01
-9.92
-11.97
-17.69
-25.30
-32.55
-37.66
-39.87
-39.49
-37.52
-35.16
-33.36
-32.54
-32.61
-33.09
-33.44
-33.32
-32.79
-32.26
-32.25
-33.05
-34.63
-36.64
-38.71
-40.70
-42.69
-44.85
-47.09
-48.98
-49.89
-49.42
-47.69
-45.36
-43.30
-42.09
-41.61
-41.03
-39.24
-35.35
-29.07
-20.70
-10.85
-0.19
10.71
21.36
31.15
39.38
45.42
49.03
50.53
50.69
50.49
50.74
51.82
53.70
56.02
58.28
59.95
60.48
59.40
56.39
51.47
45.04
37.80
30.55
23.85
17.84
12.21
6.38
-0.23
-8.02
-17.07
-27.19
-37.93
-48.67
-58.70
-67.35
-74.14
-78.86
-81.49
-82.10
-80.61
-76.80
-70.42
-61.52
-50.65
-38.85
-27.41
-17.34
-9.01
-2.07
4.34
11.16
19.04
28.15
38.24
48.64
58.37
66.20
70.79
71.01
66.44
57.61
46.08
33.91
23.07
14.78
9.30
6.11
4.35
3.30
2.49
1.76
1.05
0.30
-0.56
-1.60
-2.92
-4.61
-6.72
-9.25
-12.12
-15.08
-17.81
-20.05
-21.64
-22.66
-23.31
-23.92
-24.67
-25.59
-26.53
-27.27
-27.65
-27.58
-27.07
-26.22
-25.22
-24.24
-23.37
-22.62
-21.93
-21.25
-20.61
-20.14
-20.13
-20.96
-22.83
-25.54
-28.50
-30.99
-32.45
-32.70
-31.92
-30.53
-29.38
-29.03
-29.48
-30.30
-31.00
-31.34
-31.40
-31.43
-31.81
-33.62
-37.42
-42.87
-48.77
-53.77
-57.00
-58.30
-57.99
-56.89
-57.14
-60.09
-65.72
-72.60
-79.03
-83.91
-87.05
-88.66
-89.45
-91.60
-96.31
-103.14
-110.29
-115.86
-118.89
-119.44
-117.85
-104.16
-74.14
-31.51
13.09
49.45
73.40
86.98
93.69
99.71
108.40
118.58
127.63
133.49
135.97
135.34
132.12
126.90
120.44
113.07
103.80
92.35
79.68
67.89
59.07
54.29
53.34
55.17
58.09
59.94
59.53
57.05
53.71
50.82
49.09
48.35
48.06
47.40
45.41
41.72
36.53
30.44
24.09
17.94
12.29
7.36
3.20
-0.39
-3.74
-7.16
-10.82
-14.74
-18.67
-22.24
-25.06
-26.89
-27.75
-27.89
-27.70
-27.61
-27.90
-28.58
-29.34
-29.64
-28.83
-26.39
-22.09
-16.12
-9.08
-1.78
4.94
10.45
14.44
16.95
18.23
18.63
18.52
18.15
17.72
17.32
16.96
16.59
16.16
15.61
14.95
14.26
13.68
13.37
13.42
13.83
14.45
15.07
15.48
15.55
15.26
14.66
13.81
12.75
11.49
10.06
8.55
7.03
5.59
4.22
2.88
1.50
0.05
-1.44
-2.92
-4.32
-5.63
-6.81
-7.84
-8.68
-9.27
-9.60
-9.77
-9.91
-10.21
-10.86
-11.98
-13.65
-15.76
-18.03
-20.01
-21.12
-20.89
-19.03
-15.61
-11.00
-5.76
-0.51
4.27
8.25
11.29
13.39
14.67
15.30
15.46
15.30
14.98
14.59
14.20
13.83
13.49
13.17
12.88
12.62
12.42
12.28
12.14
11.91
11.46
10.74
9.77
8.63
7.48
6.41
5.44
4.58
3.80
3.10
2.44
1.75
0.93
-0.12
-1.42
-2.89
-4.34
-5.62
-6.61
-7.34
-7.98
-8.74
-9.79
-11.19
-12.80
-14.36
-15.47
-15.79
-15.08
-13.30
-10.59
-7.21
-3.53
0.08
3.28
5.80
7.50
8.40
8.69
8.62
8.39
8.12
7.77
7.27
6.60
5.84
5.16
4.70
4.51
4.48
4.49
4.39
4.16
3.86
3.55
3.27
2.96
2.50
1.81
0.84
-0.36
-1.65
-2.84
-3.76
-4.30
-4.45
-4.37
-4.29
-4.44
-4.98
-5.93
-7.20
-8.61
-10.00
-11.25
-12.19
-12.63
-12.35
-11.17
-9.03
-6.14
-2.85
0.40
3.26
5.54
7.22
8.35
9.01
9.23
9.07
8.59
7.90
7.16
6.48
5.90
5.38
4.87
4.31
3.73
3.19
2.73
2.40
2.15
1.94
1.74
1.57
1.42
1.31
1.18
0.98
0.64
0.14
-0.49
-1.22
-2.03
-2.91
-3.86
-4.85
-5.87
-6.87
-7.85
-8.81
-9.72
-10.51
-11.04
-11.14
-10.65
-9.51
-7.75
-5.49
-2.91
-0.23
2.30
4.48
6.13
7.18
7.64
7.59
7.18
6.54
5.80
5.06
4.40
3.82
3.31
2.83
2.33
1.79
1.24
0.72
0.30
-0.02
-0.22
-0.33
-0.33
-0.26
-0.17
-0.17
-0.38
-0.90
-1.74
-2.80
-3.89
-4.83
-5.49
-5.85
-6.03
-6.20
-6.48
-7.00
-7.79
-8.84
-10.08
-11.31
-12.26
-12.60
-12.09
-10.66
-8.46
-5.80
-3.02
-0.36
2.04
4.10
5.75
6.88
7.36
7.20
6.53
5.57
4.55
3.61
2.79
2.08
1.50
1.10
0.94
0.99
1.13
1.19
1.06
0.76
0.43
0.23
0.29
0.55
0.79
0.79
0.38
-0.40
-1.36
-2.26
-2.93
-3.36
-3.63
-3.88
-4.20
-4.63
-5.18
-5.87
-6.72
-7.68
-8.63
-9.34
-9.62
-9.30
-8.39
-6.96
-5.14
-3.05
-0.78
1.61
3.98
6.12
7.84
8.94
9.35
9.15
8.51
7.63
6.69
5.77
4.90
4.06
3.28
2.63
2.17
1.91
1.81
1.76
1.63
1.38
1.06
0.76
0.57
0.50
0.44
0.23
-0.27
-1.08
-2.10
-3.11
-3.90
-4.38
-4.56
-4.63
-4.76
-5.13
-5.78
-6.66
-7.61
-8.43
-8.88
-8.75
-7.87
-6.19
-3.81
-0.97
2.02
4.80
7.09
8.73
9.69
10.03
9.88
9.41
8.73
7.93
7.04
6.08
5.12
4.26
3.65
3.38
3.46
3.74
4.06
4.22
4.12
3.79
3.31
2.77
2.23
1.67
1.10
0.53
0.00
-0.42
-0.74
-1.03
-1.40
-1.97
-2.78
-3.78
-4.86
-5.85
-6.66
-7.26
-7.66
-7.83
-7.74
-7.27
-6.32
-4.87
-3.01
-0.94
1.11
2.95
4.48
5.71
6.66
7.33
7.67
7.59
7.04
6.08
4.88
3.69
2.75
2.20
2.05
2.14
2.29
2.32
2.16
1.84
1.49
1.18
0.94
0.72
0.43
0.05
-0.38
-0.78
-1.08
-1.28
-1.48
-1.82
-2.39
-3.21
-4.25
-5.38
-6.50
-7.48
-8.16
-8.38
-8.01
-6.98
-5.38
-3.38
-1.19
0.98
3.01
4.81
6.28
7.32
7.81
7.77
7.26
6.46
5.52
4.53
3.50
2.47
1.55
0.89
0.64
0.82
1.30
1.85
2.25
2.44
2.47
2.48
2.53
2.59
2.53
2.27
1.82
1.27
0.74
0.28
-0.13
-0.61
-1.26
-2.12
-3.13
-4.19
-5.17
-5.95
-6.40
-6.43
-5.91
-4.80
-3.14
-1.09
1.08
3.05
4.56
5.45
5.71
5.45
4.80
3.95
3.06
2.26
1.68
1.41
1.44
1.68
1.97
2.15
2.14
1.98
1.80
1.73
1.83
2.05
2.26
2.34
2.23
1.92
1.48
0.95
0.43
-0.02
-0.34
-0.55
-0.75
-1.08
-1.69
-2.59
-3.63
-4.56
-5.14
-5.20
-4.75
-3.86
-2.65
-1.23
0.33
1.92
3.34
4.44
5.05
5.14
4.79
4.16
3.40
2.61
1.84
1.08
0.36
-0.27
-0.72
-0.93
-0.91
-0.73
-0.48
-0.27
-0.11
0.02
0.18
0.40
0.63
0.77
0.70
0.37
-0.15
-0.73
-1.23
-1.58
-1.85
-2.15
-2.64
-3.35
-4.24
-5.16
-5.88
-6.22
-6.03
-5.24
-3.88
-2.10
-0.11
1.79
3.36
4.40
4.85
4.81
4.42
3.89
3.36
2.90
2.51
2.15
1.81
1.49
1.22
1.02
0.86
0.71
0.54
0.36
0.23
0.22
0.33
0.52
0.67
0.65
0.39
-0.11
-0.75
-1.36
-1.78
-1.93
-1.82
-1.60
-1.46
-1.60
-2.11
-2.92
-3.82
-4.49
-4.67
-4.18
-3.06
-1.47
0.30
1.94
3.24
4.11
4.58
4.80
4.86
4.79
4.55
4.04
3.23
2.22
1.18
0.29
-0.30
-0.55
-0.49
-0.20
0.21
0.66
1.06
1.31
1.36
1.16
0.75
0.19
-0.40
-0.91
-1.25
-1.43
-1.51
-1.62
-1.92
-2.50
-3.33
-4.25
-5.07
-5.56
-5.63
-5.25
-4.50
-3.43
-2.12
-0.65
0.86
2.24
3.33
4.01
4.27
4.18
3.87
3.47
3.03
2.58
2.13
1.69
1.32
1.04
0.87
0.74
0.60
0.41
0.21
0.10
0.16
0.39
0.70
0.91
0.89
0.63
0.23
-0.17
-0.47
-0.65
-0.84
-1.20
-1.80
-2.62
-3.55
-4.42
-5.08
-5.43
-5.43
-5.07
-4.34
-3.28
-1.96
-0.49
0.99
2.31
3.32
3.89
4.01
3.72
3.15
2.46
1.79
1.23
0.83
0.56
0.42
0.38
0.45
0.61
0.84
1.12
1.38
1.58
1.69
1.65
1.45
1.05
0.47
-0.22
-0.92
-1.50
-1.87
-2.02
-2.01
-1.99
-2.07
-2.35
-2.81
-3.36
-3.84
-4.09
-4.00
-3.51
-2.66
-1.52
-0.23
1.10
2.34
3.42
4.24
4.74
4.84
4.52
3.81
2.87
1.90
1.11
0.64
0.51
0.62
0.82
0.97
1.04
1.04
1.05
1.07
1.05
0.91
0.62
0.20
-0.24
-0.59
-0.78
-0.83
-0.85
-0.96
-1.24
-1.71
-2.34
-3.02
-3.66
-4.16
-4.41
-4.33
-3.85
-2.96
-1.77
-0.45
0.83
1.90
2.67
3.15
3.38
3.41
3.26
2.95
2.51
1.99
1.44
0.94
0.59
0.46
0.57
0.90
1.34
1.77
2.04
2.05
1.77
1.26
0.63
0.01
-0.49
-0.80
-0.90
-0.84
-0.74
-0.71
-0.84
-1.20
-1.79
-2.57
-3.44
-4.29
-4.98
-5.37
-5.35
-4.87
-4.00
-2.88
-1.67
-0.49
0.61
1.66
2.66
3.56
4.23
4.52
4.34
3.73
2.84
1.88
1.02
0.39
0.04
-0.03
0.12
0.44
0.83
1.16
1.33
1.29
1.07
0.78
0.54
0.43
0.41
0.39
0.25
-0.08
-0.61
-1.24
-1.86
-2.36
-2.71
-2.93
-3.08
-3.23
-3.39
-3.52
-3.54
-3.37
-2.94
-2.24
-1.29
-0.14
1.12
2.40
3.55
4.40
4.82
4.73
4.18
3.35
2.43
1.59
0.92
0.45
0.14
-0.04
-0.08
-0.00
0.16
0.36
0.56
0.73
0.89
1.03
1.12
1.10
0.87
0.41
-0.24
-0.94
-1.54
-1.91
-2.00
-1.90
-1.71
-1.61
-1.71
-2.07
-2.66
-3.34
-3.95
-4.29
-4.23
-3.73
-2.86
-1.73
-0.53
0.61
1.59
2.35
2.85
3.07
3.03
2.76
2.34
1.84
1.33
0.86
0.47
0.20
0.08
0.12
0.29
0.51
0.70
0.83
0.90
0.95
0.97
0.92
0.72
0.31
-0.24
-0.80
-1.19
-1.32
-1.21
-0.99
-0.81
-0.76
-0.82
-0.96
-1.14
-1.41
-1.81
-2.32
-2.84
-3.14
-3.05
-2.42
-1.31
0.10
1.53
2.75
3.58
3.98
3.99
3.70
3.20
2.59
1.90
1.21
0.60
0.17
0.01
0.14
0.51
0.98
1.38
1.61
1.62
1.46
1.20
0.90
0.60
0.28
-0.05
-0.37
-0.60
-0.70
-0.65
-0.51
-0.38
-0.34
-0.47
-0.74
-1.09
-1.44
-1.71
-1.87
-1.90
-1.79
-1.49
-0.97
-0.20
0.81
2.01
3.36
4.79
6.25
7.57
8.50
8.67
7.73
5.51
2.22
-1.53
-4.87
-6.98
-7.42
-6.29
-4.16
-1.80
0.16
1.45
2.12
2.38
2.41
2.19
1.58
0.50
-1.02
-2.71
-4.24
-5.29
-5.74
-5.66
-5.28
-4.84
-4.43
-3.99
-3.37
-2.44
-1.24
-0.01
0.93
1.32
1.19
0.83
0.68
1.09
2.15
3.64
5.13
6.20
6.59
6.27
5.39
4.11
2.60
1.00
-0.57
-1.94
-2.93
-3.38
-3.26
-2.67
-1.79
-0.87
-0.09
0.45
0.71
0.73
0.58
0.32
-0.01
-0.39
-0.83
-1.35
-1.95
-2.58
-3.16
-3.57
-3.73
-3.62
-3.31
-2.94
-2.67
-2.60
-2.70
-2.85
-2.88
-2.65
-2.14
-1.43
-0.70
-0.07
0.43
0.85
1.27
1.68
1.98
2.01
1.67
0.98
0.15
-0.53
-0.86
-0.80
-0.49
-0.14
0.08
0.14
0.15
0.24
0.46
0.74
0.96
0.98
0.76
0.40
0.02
-0.26
-0.45
-0.64
-0.94
-1.38
-1.91
-2.40
-2.71
-2.74
-2.52
-2.15
-1.74
-1.36
-0.97
-0.47
0.25
1.18
2.20
3.09
3.60
3.59
3.08
2.24
1.27
0.37
-0.39
-0.98
-1.42
-1.68
-1.73
-1.51
-1.06
-0.47
0.11
0.51
0.64
0.52
0.23
-0.11
-0.38
-0.52
-0.51
-0.35
-0.12
0.08
0.11
-0.14
-0.72
-1.53
-2.34
-2.88
-2.95
-2.50
-1.68
-0.72
0.18
0.91
1.48
1.96
2.37
2.65
2.76
2.63
2.32
1.94
1.59
1.35
1.18
1.06
0.93
0.77
0.57
0.33
0.08
-0.18
-0.40
-0.53
-0.55
-0.47
-0.35
-0.25
-0.29
-0.51
-0.92
-1.47
-2.04
-2.46
-2.63
-2.50
-2.08
-1.45
-0.69
0.15
1.08
2.08
3.16
4.29
5.41
6.47
7.34
7.87
7.88
7.22
5.86
3.93
1.64
-0.71
-2.88
-4.68
-6.03
-6.87
-7.22
-7.12
-6.68
-6.05
-5.41
-4.89
-4.55
-4.36
-4.21
-3.97
-3.52
-2.86
-2.05
-1.31
-0.85
-0.85
-1.32
-2.12
-2.97
-3.56
-3.66
-3.17
-2.13
-0.77
0.68
1.96
2.93
3.52
3.79
3.83
3.77
3.66
3.53
3.35
3.12
2.88
2.71
2.68
2.84
3.14
3.43
3.55
3.38
2.91
2.25
1.60
1.12
0.88
0.79
0.71
0.45
-0.04
-0.70
-1.36
-1.81
-1.99
-1.93
-1.81
-1.83
-2.09
-2.54
-3.03
-3.36
-3.44
-3.27
-2.92
-2.46
-1.88
-1.12
-0.14
0.99
2.13
3.07
3.67
3.88
3.79
3.52
3.18
2.83
2.48
2.14
1.84
1.65
1.60
1.69
1.84
1.97
1.99
1.87
1.65
1.40
1.18
0.99
0.80
0.57
0.27
-0.04
-0.32
-0.47
-0.49
-0.42
-0.35
-0.40
-0.61
-1.00
-1.51
-2.09
-2.66
-3.18
-3.59
-3.82
-3.79
-3.47
-2.83
-1.95
-0.97
-0.02
0.76
1.34
1.70
1.86
1.85
1.66
1.35
0.99
0.73
0.67
0.86
1.21
1.57
1.79
1.82
1.69
1.50
1.32
1.15
0.92
0.58
0.11
-0.38
-0.77
-0.97
-0.96
-0.85
-0.80
-0.92
-1.21
-1.60
-1.95
-2.18
-2.28
-2.34
-2.51
-2.84
-3.26
-3.59
-3.60
-3.17
-2.30
-1.19
-0.06
0.90
1.64
2.21
2.67
3.04
3.29
3.33
3.16
2.85
2.56
2.39
2.40
2.47
2.48
2.30
1.93
1.45
0.96
0.52
0.11
-0.32
-0.86
-1.48
-2.11
-2.61
-2.88
-2.89
-2.69
-2.41
-2.12
-1.90
-1.77
-1.73
-1.79
-1.98
-2.25
-2.49
-2.56
-2.32
-1.75
-0.91
0.01
0.82
1.39
1.70
1.83
1.89
1.92
1.95
1.94
1.83
1.64
1.38
1.13
0.95
0.88
0.91
1.02
1.15
1.26
1.33
1.34
1.27
1.11
0.87
0.58
0.31
0.14
0.12
0.25
0.45
0.61
0.64
0.47
0.12
-0.38
-0.99
-1.67
-2.39
-3.08
-3.66
-4.02
-4.04
-3.68
-2.97
-2.04
-1.02
-0.03
0.82
1.48
1.88
2.02
1.91
1.63
1.34
1.17
1.24
1.55
2.02
2.47
2.79
2.90
2.86
2.74
2.60
2.43
2.19
1.81
1.30
0.74
0.24
-0.12
-0.32
-0.44
-0.59
-0.85
-1.23
-1.62
-1.93
-2.10
-2.16
-2.19
-2.35
-2.70
-3.25
-3.87
-4.46
-4.88
-5.11
-5.12
-4.91
-4.49
-3.87
-3.10
-2.35
-1.82
-1.64
-1.82
-2.20
-2.43
-2.16
-1.15
0.65
3.00
5.45
7.46
8.51
8.31
6.87
4.58
2.07
-0.01
-1.23
-1.50
-1.01
-0.13
0.77
1.47
1.87
1.97
1.83
1.56
1.29
1.15
1.25
1.58
2.08
2.63
3.14
3.52
3.72
3.62
3.16
2.32
1.21
0.04
-0.91
-1.39
-1.32
-0.76
0.07
0.91
1.56
1.94
2.09
2.17
2.35
2.70
3.20
3.66
3.90
3.79
3.39
2.96
2.83
3.31
4.52
6.32
8.33
10.07
11.10
11.14
10.20
8.51
6.45
4.42
2.70
1.43
0.50
-0.32
-1.36
-2.92
-5.18
-8.04
-11.12
-13.81
-15.40
-15.28
-13.24
-9.63
-5.30
-1.45
0.80
0.77
-1.51
-5.32
-9.44
-12.54
-13.63
-12.33
-9.02
-4.61
-0.27
3.03
4.77
5.00
4.18
2.95
1.86
1.27
1.31
1.96
3.08
4.42
5.65
6.43
6.50
5.87
4.79
3.71
3.04
2.97
3.41
4.03
4.50
4.63
4.49
4.34
4.43
4.87
5.55
6.16
6.31
5.72
4.27
2.05
-0.73
-3.75
-6.67
-9.09
-10.67
-11.20
-10.69
-9.46
-8.05
-7.08
-7.02
-8.05
-10.01
-12.48
-14.92
-16.76
-17.54
-16.96
-14.91
-11.62
-7.58
-3.51
-0.18
1.91
2.66
2.42
1.81
1.46
1.73
2.61
3.74
4.64
4.92
4.42
3.27
1.77
0.30
-0.82
-1.42
-1.49
-1.14
-0.60
-0.10
0.14
-0.00
-0.50
-1.18
-1.82
-2.16
-2.05
-1.47
-0.55
0.52
1.51
2.28
2.77
2.97
2.89
2.55
2.01
1.35
0.70
0.16
-0.19
-0.36
-0.40
-0.35
-0.28
-0.17
-0.02
0.18
0.40
0.61
0.76
0.83
0.79
0.65
0.38
0.04
-0.31
-0.59
-0.72
-0.71
-0.61
-0.48
-0.39
-0.34
-0.34
-0.39
-0.51
-0.76
-1.17
-1.66
-2.09
-2.25
-2.01
-1.36
-0.42
0.64
1.64
2.51
3.21
3.75
4.11
4.23
4.05
3.59
2.95
2.34
1.95
1.89
2.10
2.41
2.59
2.48
2.05
1.44
0.89
0.65
0.84
1.43
2.25
3.04
3.53
3.55
3.00
1.90
0.37
-1.42
-3.21
-4.70
-5.66
-5.96
-5.63
-4.90
-4.06
-3.39
-3.00
-2.88
-2.91
-2.94
-2.91
-2.78
-2.57
-2.28
-1.88
-1.37
-0.78
-0.17
0.34
0.70
0.90
1.02
1.14
1.35
1.67
2.04
2.37
2.59
2.64
2.57
2.46
2.41
2.45
2.56
2.64
2.63
2.51
2.32
2.12
1.92
1.71
1.50
1.33
1.30
1.48
1.87
2.32
2.62
2.57
2.07
1.17
0.04
-1.12
-2.11
-2.80
-3.10
-3.00
-2.55
-1.90
-1.26
-0.82
-0.63
-0.65
-0.77
-0.87
-0.96
-1.13
-1.43
-1.80
-2.03
-1.86
-1.17
-0.08
1.10
1.99
2.38
2.29
1.97
1.70
1.64
1.74
1.81
1.65
1.20
0.55
-0.15
-0.73
-1.13
-1.34
-1.37
-1.26
-0.96
-0.49
0.12
0.76
1.27
1.43
1.16
0.48
-0.42
-1.27
-1.83
-1.99
-1.85
-1.67
-1.68
-2.04
-2.65
-3.28
-3.61
-3.42
-2.67
-1.51
-0.19
1.05
2.05
2.76
3.19
3.39
3.38
3.17
2.82
2.38
1.94
1.60
1.40
1.32
1.33
1.39
1.47
1.56
1.64
1.69
1.70
1.67
1.58
1.43
1.18
0.81
0.33
-0.18
-0.65
-0.99
-1.16
-1.17
-1.05
-0.88
-0.69
-0.52
-0.44
-0.47
-0.67
-0.99
-1.39
-1.74
-1.94
-1.92
-1.70
-1.37
-1.02
-0.75
-0.59
-0.53
-0.52
-0.48
-0.36
-0.15
0.12
0.40
0.64
0.79
0.83
0.76
0.59
0.37
0.16
0.05
0.08
0.25
0.48
0.67
0.76
0.71
0.57
0.38
0.18
-0.03
-0.23
-0.38
-0.45
-0.45
-0.42
-0.46
-0.65
-1.02
-1.51
-2.00
-2.40
-2.62
-2.70
-2.69
-2.64
-2.62
-2.68
-2.88
-3.26
-3.77
-4.31
-4.70
-4.76
-4.43
-3.77
-2.96
-2.21
-1.69
-1.46
-1.53
-1.82
-2.25
-2.72
-3.14
-3.37
-3.32
-2.92
-2.19
-1.21
-0.12
0.96
1.94
2.77
3.41
3.87
4.18
4.41
4.64
4.94
5.30
5.63
5.80
5.68
5.23
4.51
3.63
2.78
2.06
1.52
1.15
0.91
0.79
0.74
0.72
0.68
0.54
0.26
-0.15
-0.65
-1.14
-1.53
-1.79
-1.87
-1.79
-1.54
-1.14
-0.60
0.01
0.62
1.15
1.54
1.75
1.80
1.74
1.61
1.46
1.35
1.33
1.38
1.49
1.55
1.49
1.28
0.97
0.68
0.49
0.46
0.50
0.51
0.40
0.18
-0.06
-0.23
-0.30
-0.31
-0.32
-0.36
-0.40
-0.37
-0.23
-0.03
0.09
0.01
-0.27
-0.67
-1.02
-1.23
-1.28
-1.31
-1.43
-1.71
-2.06
-2.33
-2.35
-2.05
-1.47
-0.76
-0.06
0.51
0.91
1.18
1.38
1.55
1.74
1.92
2.06
2.10
2.01
1.76
1.41
1.02
0.69
0.50
0.47
0.57
0.75
0.95
1.13
1.25
1.30
1.23
1.02
0.67
0.25
-0.07
-0.19
-0.09
0.11
0.23
0.12
-0.21
-0.61
-0.87
-0.90
-0.77
-0.66
-0.78
-1.14
-1.60
-1.94
-1.98
-1.74
-1.35
-1.00
-0.76
-0.59
-0.38
-0.04
0.43
0.94
1.32
1.49
1.40
1.12
0.74
0.39
0.16
0.06
0.09
0.18
0.26
0.29
0.27
0.23
0.20
0.19
0.15
0.03
-0.18
-0.45
-0.68
-0.82
-0.85
-0.82
-0.82
-0.89
-0.99
-1.07
-1.07
-1.05
-1.13
-1.44
-2.01
-2.66
-3.15
-3.24
-2.85
-2.11
-1.24
-0.46
0.17
0.69
1.17
1.62
1.94
2.05
1.93
1.67
1.39
1.16
0.94
0.66
0.31
-0.03
-0.21
-0.13
0.17
0.54
0.80
0.89
0.85
0.78
0.75
0.75
0.70
0.56
0.36
0.19
0.07
-0.03
-0.22
-0.55
-0.97
-1.34
-1.51
-1.44
-1.22
-1.04
-1.04
-1.24
-1.55
-1.84
-2.01
-2.06
-2.04
-1.94
-1.69
-1.21
-0.46
0.48
1.39
2.06
2.33
2.22
1.83
1.34
0.88
0.51
0.28
0.24
0.41
0.79
1.26
1.63
1.76
1.60
1.27
0.96
0.84
0.92
1.10
1.22
1.18
1.01
0.77
0.54
0.34
0.08
-0.27
-0.72
-1.16
-1.51
-1.72
-1.81
-1.87
-1.97
-2.10
-2.21
-2.25
-2.15
-1.93
-1.57
-1.08
-0.47
0.20
0.86
1.42
1.80
2.00
2.05
2.03
1.98
1.88
1.69
1.42
1.14
0.95
0.92
1.02
1.16
1.18
1.02
0.72
0.40
0.22
0.21
0.32
0.40
0.32
0.07
-0.28
-0.60
-0.85
-1.01
-1.17
-1.37
-1.63
-1.91
-2.18
-2.42
-2.66
-2.93
-3.21
-3.47
-3.63
-3.71
-3.72
-3.74
-3.79
-3.83
-3.82
-3.69
-3.46
-3.18
-2.97
-2.93
-3.08
-3.40
-3.77
-4.05
-4.12
-3.86
-3.23
-2.26
-1.04
0.30
1.64
2.90
3.98
4.82
5.34
5.51
5.35
4.97
4.49
4.01
3.57
3.17
2.79
2.44
2.21
2.14
2.22
2.35
2.37
2.15
1.70
1.14
0.64
0.31
0.17
0.16
0.22
0.34
0.54
0.86
1.24
1.57
1.71
1.63
1.42
1.25
1.23
1.35
1.46
1.40
1.09
0.64
0.24
0.04
0.07
0.23
0.37
0.42
0.39
0.34
0.32
0.27
0.13
-0.13
-0.45
-0.70
-0.80
-0.77
-0.71
-0.70
-0.77
-0.85
-0.84
-0.73
-0.57
-0.50
-0.61
-0.85
-1.11
-1.23
-1.16
-0.97
-0.78
-0.69
-0.68
-0.67
-0.56
-0.32
0.00
0.31
0.55
0.75
0.96
1.18
1.36
1.40
1.23
0.87
0.46
0.17
0.10
0.25
0.49
0.72
0.84
0.83
0.72
0.53
0.29
0.01
-0.26
-0.42
-0.42
-0.26
-0.02
0.19
0.29
0.26
0.12
-0.05
-0.22
-0.36
-0.50
-0.63
-0.79
-0.97
-1.18
-1.37
-1.51
-1.52
-1.39
-1.17
-0.97
-0.89
-0.93
-0.99
-0.89
-0.46
0.27
1.15
1.91
2.36
2.45
2.28
2.02
1.77
1.56
1.35
1.13
0.95
0.92
1.09
1.42
1.77
1.99
2.04
1.97
1.94
2.07
2.31
2.49
2.35
1.75
0.68
-0.65
-1.95
-2.96
-3.51
-3.58
-3.28
-2.75
-2.13
-1.53
-1.01
-0.58
-0.29
-0.14
-0.17
-0.32
-0.53
-0.68
-0.68
-0.49
-0.18
0.14
0.34
0.38
0.35
0.36
0.54
0.89
1.26
1.46
1.36
0.97
0.46
0.06
-0.08
0.03
0.25
0.41
0.37
0.17
-0.06
-0.21
-0.21
-0.13
-0.10
-0.20
-0.46
-0.81
-1.15
-1.38
-1.46
-1.41
-1.28
-1.13
-1.01
-0.98
-1.03
-1.15
-1.30
-1.43
-1.55
-1.66
-1.74
-1.77
-1.70
-1.48
-1.16
-0.81
-0.55
-0.45
-0.46
-0.46
-0.29
0.11
0.68
1.25
1.66
1.83
1.82
1.73
1.68
1.69
1.74
1.73
1.62
1.40
1.09
0.76
0.45
0.15
-0.12
-0.34
-0.51
-0.64
-0.79
-1.08
-1.52
-2.08
-2.61
-2.96
-3.07
-3.00
-2.93
-3.04
-3.37
-3.84
-4.30
-4.59
-4.67
-4.58
-4.39
-4.18
-3.98
-3.84
-3.80
-3.90
-4.09
-4.21
-4.07
-3.50
-2.50
-1.20
0.18
1.45
2.57
3.60
4.61
5.63
6.59
7.37
7.89
8.11
8.07
7.84
7.52
7.25
7.16
7.29
7.58
7.74
7.38
6.12
3.80
0.58
-3.05
-6.44
-8.94
-10.12
-9.86
-8.35
-6.00
-3.35
-0.90
0.99
2.18
2.75
2.86
2.72
2.41
1.94
1.31
0.54
-0.23
-0.85
-1.18
-1.22
-1.13
-1.08
-1.23
-1.59
-2.04
-2.33
-2.29
-1.82
-1.02
-0.05
0.88
1.63
2.14
2.42
2.52
2.49
2.39
2.26
2.14
2.03
1.93
1.81
1.64
1.45
1.32
1.28
1.30
1.30
1.20
0.97
0.71
0.55
0.57
0.69
0.76
0.63
0.25
-0.30
-0.85
-1.29
-1.54
-1.65
-1.62
-1.48
-1.22
-0.85
-0.46
-0.12
0.16
0.45
0.84
1.35
1.87
2.22
2.21
1.84
1.25
0.65
0.23
0.04
0.05
0.15
0.29
0.43
0.59
0.79
1.00
1.18
1.25
1.15
0.87
0.42
-0.11
-0.59
-0.92
-1.01
-0.88
-0.58
-0.23
0.06
0.23
0.26
0.18
0.03
-0.17
-0.44
-0.82
-1.32
-1.89
-2.41
-2.76
-2.85
-2.67
-2.30
-1.85
-1.36
-0.86
-0.38
0.02
0.21
0.07
-0.46
-1.27
-2.15
-2.85
-3.18
-3.05
-2.48
-1.59
-0.53
0.49
1.32
1.85
2.04
1.97
1.76
1.50
1.18
0.77
0.25
-0.33
-0.79
-0.98
-0.87
-0.54
-0.20
-0.04
-0.10
-0.26
-0.34
-0.18
0.20
0.66
1.01
1.10
0.90
0.50
-0.02
-0.59
-1.21
-1.88
-2.58
-3.22
-3.68
-3.84
-3.62
-3.03
-2.15
-1.10
-0.08
0.71
1.11
1.09
0.70
0.13
-0.39
-0.73
-0.82
-0.74
-0.58
-0.41
-0.23
-0.03
0.23
0.54
0.88
1.22
1.55
1.90
2.22
2.43
2.38
2.05
1.49
0.91
0.53
0.51
0.82
1.30
1.73
1.96
1.91
1.56
0.92
0.03
-1.00
-1.99
-2.63
-2.71
-2.14
-1.11
0.00
0.79
1.01
0.65
-0.12
-1.02
-1.85
-2.53
-3.06
-3.46
-3.71
-3.77
-3.57
-3.13
-2.49
-1.75
-1.00
-0.32
0.28
0.81
1.30
1.78
2.25
2.71
3.11
3.38
3.49
3.40
3.15
2.80
2.45
2.16
1.95
1.80
1.65
1.42
1.04
0.44
-0.37
-1.33
-2.29
-3.06
-3.44
-3.28
-2.61
-1.56
-0.39
0.66
1.40
1.75
1.74
1.42
0.84
0.04
-0.92
-1.94
-2.89
-3.58
-3.91
-3.83
-3.45
-2.93
-2.43
-2.08
-1.89
-1.82
-1.75
-1.60
-1.33
-0.96
-0.54
-0.11
0.32
0.83
1.47
2.24
3.06
3.79
4.27
4.41
4.23
3.83
3.37
3.00
2.79
2.76
2.82
2.89
2.88
2.69
2.29
1.66
0.86
-0.01
-0.77
-1.27
-1.40
-1.19
-0.80
-0.45
-0.34
-0.55
-1.00
-1.52
-1.93
-2.15
-2.20
-2.14
-2.03
-1.92
-1.81
-1.73
-1.71
-1.78
-1.89
-1.96
-1.89
-1.67
-1.37
-1.12
-1.01
-1.01
-1.00
-0.84
-0.41
0.24
1.01
1.77
2.40
2.84
3.08
3.10
2.93
2.65
2.34
2.09
1.96
1.92
1.95
1.98
2.00
1.99
1.91
1.72
1.38
0.89
0.31
-0.23
-0.60
-0.73
-0.64
-0.41
-0.20
-0.15
-0.37
-0.86
-1.57
-2.37
-3.10
-3.65
-3.95
-4.04
-4.00
-3.93
-3.88
-3.82
-3.75
-3.66
-3.60
-3.71
-4.05
-4.62
-5.31
-5.93
-6.32
-6.42
-6.24
-5.83
-5.18
-4.23
-2.92
-1.29
0.50
2.21
3.62
4.63
5.26
5.64
5.87
5.99
6.05
6.06
6.10
6.22
6.43
6.65
6.74
6.57
6.09
5.38
4.61
3.94
3.49
3.24
3.13
3.06
2.97
2.83
2.64
2.41
2.12
1.76
1.33
0.86
0.40
-0.01
-0.36
-0.63
-0.80
-0.85
-0.74
-0.47
-0.12
0.22
0.42
0.42
0.20
-0.21
-0.73
-1.31
-1.86
-2.35
-2.69
-2.83
-2.71
-2.33
-1.74
-1.05
-0.37
0.20
0.61
0.85
0.92
0.85
0.68
0.44
0.21
0.06
0.06
0.20
0.45
0.70
0.87
0.93
0.93
0.94
1.03
1.16
1.29
1.31
1.18
0.87
0.43
-0.08
-0.59
-1.02
-1.33
-1.48
-1.47
-1.36
-1.23
-1.12
-1.07
-1.07
-1.11
-1.18
-1.26
-1.39
-1.55
-1.73
-1.94
-2.17
-2.41
-2.62
-2.74
-2.66
-2.37
-1.91
-1.41
-1.01
-0.77
-0.68
-0.60
-0.42
-0.10
0.34
0.82
1.27
1.63
1.90
2.05
2.08
2.00
1.85
1.71
1.63
1.61
1.58
1.46
1.24
0.98
0.79
0.73
0.79
0.85
0.76
0.45
-0.02
-0.49
-0.78
-0.80
-0.54
-0.15
0.20
0.37
0.32
0.08
-0.25
-0.53
-0.71
-0.78
-0.77
-0.74
-0.76
-0.84
-0.99
-1.21
-1.48
-1.78
-2.08
-2.33
-2.50
-2.53
-2.42
-2.20
-1.90
-1.58
-1.26
-0.95
-0.62
-0.24
0.14
0.48
0.69
0.75
0.76
0.86
1.16
1.68
2.25
2.62
2.58
2.13
1.45
0.83
0.50
0.48
0.66
0.86
0.98
1.04
1.09
1.17
1.23
1.17
0.96
0.65
0.35
0.18
0.17
0.26
0.37
0.47
0.56
0.65
0.70
0.62
0.37
-0.03
-0.45
-0.73
-0.82
-0.77
-0.75
-0.89
-1.22
-1.65
-2.02
-2.22
-2.22
-2.10
-1.92
-1.76
-1.57
-1.34
-1.05
-0.69
-0.32
0.04
0.38
0.72
1.04
1.27
1.31
1.10
0.64
0.01
-0.59
-0.98
-1.03
-0.72
-0.11
0.64
1.36
1.88
2.08
1.91
1.41
0.72
0.02
-0.52
-0.82
-0.89
-0.84
-0.76
-0.71
-0.67
-0.61
-0.55
-0.52
-0.57
-0.72
-0.95
-1.21
-1.49
-1.77
-2.07
-2.36
-2.56
-2.58
-2.36
-1.96
-1.51
-1.12
-0.88
-0.72
-0.57
-0.36
-0.10
0.14
0.32
0.44
0.61
0.87
1.21
1.55
1.74
1.72
1.53
1.31
1.19
1.20
1.28
1.31
1.23
1.09
0.97
0.93
0.96
1.00
0.96
0.84
0.71
0.65
0.70
0.77
0.76
0.56
0.16
-0.32
-0.77
-1.06
-1.17
-1.15
-1.06
-0.99
-1.02
-1.22
-1.61
-2.17
-2.75
-3.14
-3.17
-2.78
-2.06
-1.23
-0.51
-0.05
0.19
0.33
0.50
0.77
1.14
1.52
1.86
2.11
2.25
2.27
2.14
1.85
1.43
0.96
0.56
0.34
0.36
0.60
0.97
1.35
1.64
1.76
1.66
1.35
0.88
0.33
-0.18
-0.54
-0.70
-0.68
-0.57
-0.45
-0.39
-0.41
-0.49
-0.63
-0.79
-0.98
-1.17
-1.34
-1.49
-1.64
-1.86
-2.22
-2.70
-3.20
-3.55
-3.60
-3.30
-2.70
-1.95
-1.21
-0.61
-0.23
-0.10
-0.19
-0.46
-0.83
-1.24
-1.65
-2.05
-2.44
-2.77
-2.96
-2.92
-2.61
-2.04
-1.36
-0.67
-0.05
0.52
1.11
1.79
2.57
3.37
4.09
4.63
4.91
4.91
4.62
4.10
3.43
2.74
2.16
1.80
1.67
1.73
1.87
1.95
1.85
1.52
0.96
0.22
-0.59
-1.33
-1.86
-2.08
-1.93
-1.43
-0.71
0.07
0.74
1.20
1.45
1.58
1.69
1.82
1.91
1.88
1.68
1.34
0.94
0.58
0.27
0.02
-0.20
-0.35
-0.33
-0.05
0.48
1.14
1.70
1.97
1.88
1.51
1.02
0.59
0.25
-0.01
-0.22
-0.38
-0.44
-0.39
-0.25
-0.15
-0.21
-0.47
-0.88
-1.33
-1.68
-1.91
-2.06
-2.18
-2.29
-2.31
-2.19
-1.94
-1.63
-1.37
-1.21
-1.12
-0.98
-0.65
-0.09
0.63
1.40
2.05
2.48
2.63
2.51
2.16
1.68
1.18
0.78
0.57
0.53
0.59
0.63
0.59
0.47
0.33
0.26
0.27
0.35
0.43
0.49
0.52
0.54
0.57
0.57
0.50
0.30
-0.01
-0.34
-0.58
-0.64
-0.54
-0.37
-0.25
-0.28
-0.50
-0.87
-1.29
-1.68
-1.94
-2.04
-1.94
-1.70
-1.39
-1.09
-0.85
-0.65
-0.43
-0.13
0.30
0.83
1.37
1.79
2.01
2.05
1.95
1.79
1.60
1.36
1.08
0.78
0.55
0.48
0.59
0.84
1.08
1.16
1.05
0.79
0.54
0.44
0.49
0.60
0.61
0.42
0.04
-0.42
-0.81
-1.06
-1.14
-1.12
-1.02
-0.90
-0.77
-0.67
-0.67
-0.86
-1.21
-1.65
-2.02
-2.19
-2.11
-1.83
-1.53
-1.32
-1.24
-1.21
-1.11
-0.79
-0.22
0.52
1.28
1.89
2.23
2.28
2.10
1.81
1.49
1.19
0.92
0.64
0.38
0.16
0.06
0.10
0.25
0.42
0.52
0.48
0.32
0.11
-0.08
-0.25
-0.46
-0.76
-1.12
-1.45
-1.63
-1.60
-1.43
-1.26
-1.25
-1.43
-1.68
-1.87
-1.89
-1.80
-1.71
-1.74
-1.87
-1.98
-1.92
-1.59
-1.04
-0.38
0.26
0.83
1.32
1.73
2.03
2.16
2.13
1.97
1.78
1.66
1.63
1.63
1.59
1.44
1.21
0.94
0.68
0.45
0.22
-0.00
-0.18
-0.29
-0.35
-0.44
-0.69
-1.19
-1.85
-2.49
-2.84
-2.77
-2.32
-1.73
-1.34
-1.38
-1.89
-2.71
-3.59
-4.32
-4.80
-5.06
-5.18
-5.25
-5.28
-5.30
-5.27
-5.19
-5.05
-4.83
-4.50
-4.02
-3.34
-2.44
-1.34
-0.10
1.22
2.52
3.71
4.67
5.36
5.74
5.88
5.84
5.74
5.64
5.56
5.49
5.39
5.22
4.93
4.55
4.09
3.61
3.14
2.72
2.37
2.08
1.84
1.63
1.43
1.24
1.05
0.84
0.61
0.33
0.00
-0.34
-0.66
-0.87
-0.95
-0.92
-0.83
-0.80
-0.86
-1.01
-1.15
-1.18
-1.01
-0.60
0.00
0.71
1.40
1.97
2.30
2.35
2.11
1.67
1.19
0.79
0.59
0.56
0.61
0.64
0.57
0.38
0.10
-0.22
-0.51
-0.72
-0.78
-0.65
-0.38
-0.05
0.22
0.31
0.19
-0.07
-0.34
-0.52
-0.62
-0.68
-0.79
-0.98
-1.21
-1.44
-1.64
-1.85
-2.15
-2.52
-2.90
-3.14
-3.10
-2.74
-2.14
-1.44
-0.78
-0.25
0.18
0.55
0.89
1.20
1.49
1.76
2.01
2.22
2.34
2.28
1.98
1.46
0.85
0.29
-0.07
-0.21
-0.18
-0.05
0.14
0.37
0.63
0.83
0.88
0.72
0.37
-0.05
-0.38
-0.57
-0.66
-0.78
-1.04
-1.42
-1.83
-2.17
-2.43
-2.67
-3.02
-3.47
-3.96
-4.37
-4.64
-4.84
-5.09
-5.42
-5.72
-5.73
-5.16
-3.89
-2.01
0.15
2.21
3.87
5.02
5.70
6.06
6.23
6.29
6.27
6.15
5.97
5.86
6.02
6.71
8.10
10.16
12.66
15.17
17.21
18.42
18.66
18.04
16.79
15.15
13.21
10.99
8.41
5.48
2.33
-0.82
-3.73
-6.25
-8.36
-10.17
-11.84
-13.54
-15.29
-16.99
-18.42
-19.34
-19.56
-19.07
-18.05
-16.80
-15.60
-14.52
-13.45
-12.09
-10.20
-7.70
-4.75
-1.69
1.21
3.80
6.14
8.38
10.61
12.74
14.58
15.89
16.52
16.45
15.74
14.47
12.69
10.51
8.16
5.98
4.35
3.54
3.55
4.10
4.72
4.99
4.68
3.75
2.30
0.51
-1.52
-3.69
-5.84
-7.81
-9.40
-10.48
-11.04
-11.19
-11.13
-11.01
-10.95
-10.95
-10.98
-10.98
-10.90
-10.71
-10.39
-9.93
-9.31
-8.55
-7.62
-6.54
-5.35
-4.16
-3.12
-2.40
-2.08
-2.08
-2.23
-2.28
-2.06
-1.56
-0.91
-0.32
0.08
0.24
0.27
0.32
0.46
0.72
1.00
1.23
1.37
1.45
1.48
1.47
1.41
1.26
1.01
0.64
0.18
-0.33
-0.84
-1.27
-1.55
-1.63
-1.55
-1.43
-1.40
-1.61
-2.05
-2.64
-3.23
-3.70
-4.07
-4.42
-4.85
-5.33
-5.73
-5.80
-5.36
-4.38
-3.03
-1.57
-0.20
0.97
2.00
3.00
4.05
5.11
6.07
6.80
7.23
7.41
7.43
7.37
7.26
7.07
6.77
6.37
5.93
5.52
5.23
5.07
5.03
5.01
4.92
4.69
4.31
3.84
3.36
2.97
2.71
2.54
2.36
2.07
1.63
1.11
0.62
0.30
0.17
0.13
0.06
-0.14
-0.45
-0.76
-0.96
-1.02
-1.00
-1.02
-1.09
-1.19
-1.16
-0.91
-0.44
0.18
0.82
1.39
1.88
2.31
2.66
2.91
3.02
2.98
2.84
2.66
2.46
2.20
1.85
1.41
0.99
0.71
0.67
0.84
1.10
1.29
1.28
1.06
0.71
0.33
0.01
-0.24
-0.41
-0.51
-0.56
-0.56
-0.54
-0.54
-0.59
-0.70
-0.84
-0.99
-1.15
-1.34
-1.59
-1.86
-2.08
-2.14
-1.98
-1.66
-1.31
-1.06
-0.98
-0.98
-0.93
-0.71
-0.31
0.16
0.54
0.78
0.89
0.96
1.03
1.07
1.00
0.80
0.55
0.39
0.44
0.69
1.03
1.27
1.29
1.07
0.74
0.42
0.21
0.17
0.25
0.41
0.58
0.68
0.60
0.29
-0.24
-0.91
-1.57
-2.12
-2.47
-2.62
-2.60
-2.47
-2.28
-2.04
-1.83
-1.70
-1.69
-1.80
-1.91
-1.87
-1.54
-0.88
-0.02
0.82
1.43
1.71
1.71
1.58
1.47
1.45
1.46
1.42
1.25
1.00
0.72
0.51
0.40
0.37
0.38
0.42
0.52
0.70
0.96
1.24
1.42
1.42
1.20
0.82
0.39
-0.01
-0.32
-0.54
-0.68
-0.75
-0.76
-0.70
-0.60
-0.52
-0.52
-0.63
-0.83
-1.09
-1.37
-1.64
-1.87
-2.07
-2.19
-2.22
-2.13
-1.90
-1.52
-0.98
-0.34
0.34
0.93
1.37
1.61
1.73
1.81
1.97
2.18
2.37
2.40
2.21
1.84
1.45
1.19
1.12
1.16
1.16
1.04
0.80
0.55
0.39
0.37
0.44
0.49
0.48
0.42
0.40
0.46
0.57
0.61
0.51
0.24
-0.13
-0.46
-0.71
-0.89
-1.08
-1.34
-1.63
-1.86
-1.96
-1.91
-1.75
-1.58
-1.42
-1.28
-1.09
-0.81
-0.46
-0.09
0.21
0.39
0.45
0.44
0.42
0.41
0.44
0.48
0.51
0.51
0.47
0.39
0.29
0.17
0.01
-0.20
-0.47
-0.80
-1.13
-1.35
-1.40
-1.26
-1.01
-0.83
-0.84
-1.08
-1.46
-1.80
-1.98
-1.99
-1.90
-1.83
-1.89
-2.10
-2.41
-2.79
-3.22
-3.73
-4.26
-4.71
-4.97
-4.94
-4.64
-4.19
-3.73
-3.35
-3.07
-2.87
-2.70
-2.59
-2.56
-2.63
-2.74
-2.78
-2.66
-2.35
-1.92
-1.46
-1.05
-0.65
-0.15
0.57
1.56
2.72
3.85
4.73
5.22
5.29
5.10
4.79
4.48
4.17
3.81
3.35
2.83
2.32
1.95
1.75
1.70
1.70
1.61
1.36
0.91
0.32
-0.31
-0.87
-1.25
-1.40
-1.32
-1.07
-0.69
-0.24
0.24
0.74
1.20
1.56
1.76
1.77
1.65
1.47
1.32
1.23
1.18
1.14
1.10
1.10
1.15
1.22
1.23
1.11
0.83
0.48
0.24
0.28
0.62
1.14
1.59
1.73
1.46
0.88
0.23
-0.23
-0.36
-0.19
0.14
0.43
0.58
0.55
0.38
0.14
-0.16
-0.53
-0.95
-1.39
-1.73
-1.88
-1.78
-1.48
-1.08
-0.73
-0.53
-0.48
-0.48
-0.41
-0.17
0.26
0.81
1.35
1.76
1.96
1.94
1.73
1.42
1.09
0.83
0.69
0.70
0.84
1.05
1.25
1.37
1.36
1.24
1.03
0.78
0.50
0.27
0.09
0.01
0.02
0.07
0.09
0.02
-0.20
-0.54
-0.93
-1.26
-1.43
-1.41
-1.22
-1.01
-0.92
-1.06
-1.44
-1.96
-2.44
-2.73
-2.77
-2.60
-2.34
-2.04
-1.68
-1.19
-0.54
0.27
1.08
1.74
2.13
2.25
2.18
2.06
1.95
1.87
1.77
1.64
1.45
1.23
0.99
0.78
0.60
0.52
0.57
0.73
0.93
1.05
0.97
0.64
0.15
-0.37
-0.78
-1.02
-1.12
-1.16
-1.20
-1.25
-1.28
-1.25
-1.19
-1.14
-1.19
-1.37
-1.65
-1.99
-2.31
-2.59
-2.78
-2.83
-2.72
-2.39
-1.83
-1.09
-0.25
0.62
1.44
2.15
2.70
3.05
3.19
3.13
2.96
2.75
2.53
2.25
1.84
1.25
0.59
0.03
-0.23
-0.11
0.26
0.64
0.75
0.51
0.03
-0.45
-0.69
-0.60
-0.25
0.15
0.44
0.55
0.53
0.44
0.34
0.17
-0.12
-0.55
-1.06
-1.47
-1.63
-1.49
-1.13
-0.73
-0.48
-0.45
-0.62
-0.83
-0.93
-0.79
-0.39
0.26
1.06
1.91
2.66
3.18
3.38
3.26
2.88
2.33
1.70
1.04
0.44
0.01
-0.11
0.16
0.75
1.41
1.84
1.80
1.31
0.61
-0.02
-0.37
-0.49
-0.52
-0.64
-0.85
-1.04
-1.05
-0.85
-0.58
-0.44
-0.58
-0.97
-1.45
-1.81
-1.93
-1.83
-1.66
-1.55
-1.59
-1.78
-2.01
-2.18
-2.20
-2.02
-1.63
-1.08
-0.46
0.17
0.73
1.20
1.57
1.82
1.89
1.69
1.18
0.42
-0.39
-0.98
-1.18
-0.98
-0.54
-0.10
0.12
0.08
-0.13
-0.39
-0.61
-0.82
-1.08
-1.45
-1.89
-2.30
-2.60
-2.76
-2.80
-2.83
-2.94
-3.19
-3.58
-4.05
-4.55
-5.01
-5.37
-5.64
-5.85
-6.06
-6.25
-6.38
-6.30
-5.84
-4.86
-3.40
-1.63
0.17
1.74
2.94
3.78
4.39
4.91
5.39
5.83
6.15
6.31
6.29
6.12
5.83
5.46
5.04
4.62
4.25
3.94
3.66
3.36
2.99
2.61
2.29
2.11
2.03
1.94
1.71
1.27
0.70
0.15
-0.22
-0.37
-0.37
-0.37
-0.49
-0.72
-1.01
-1.26
-1.45
-1.59
-1.70
-1.78
-1.75
-1.52
-1.04
-0.36
0.39
1.09
1.64
2.05
2.33
2.53
2.62
2.54
2.26
1.79
1.23
0.73
0.42
0.34
0.45
0.65
0.82
0.91
0.90
0.85
0.79
0.76
0.76
0.73
0.66
0.52
0.34
0.17
0.06
0.04
0.10
0.18
0.18
-0.00
-0.40
-0.97
-1.59
-2.06
-2.28
-2.20
-1.88
-1.46
-1.05
-0.73
-0.50
-0.31
-0.11
0.13
0.43
0.78
1.13
1.43
1.62
1.64
1.50
1.25
0.98
0.75
0.56
0.44
0.37
0.36
0.44
0.57
0.72
0.83
0.85
0.75
0.60
0.41
0.21
-0.03
-0.39
-0.87
-1.44
-1.97
-2.33
-2.41
-2.25
-1.96
-1.73
-1.68
-1.85
-2.15
-2.45
-2.62
-2.63
-2.48
-2.25
-1.95
-1.57
-1.09
-0.52
0.11
0.70
1.18
1.51
1.73
1.87
1.97
2.06
2.13
2.13
2.04
1.86
1.63
1.42
1.30
1.30
1.36
1.37
1.23
0.91
0.49
0.08
-0.22
-0.41
-0.58
-0.81
-1.12
-1.43
-1.62
-1.65
-1.55
-1.46
-1.50
-1.70
-1.99
-2.24
-2.35
-2.33
-2.25
-2.19
-2.17
-2.10
-1.92
-1.58
-1.13
-0.66
-0.24
0.11
0.44
0.83
1.31
1.86
2.42
2.87
3.14
3.16
2.92
2.46
1.84
1.23
0.76
0.56
0.63
0.88
1.16
1.35
1.40
1.36
1.30
1.22
1.09
0.85
0.47
-0.00
-0.43
-0.70
-0.77
-0.72
-0.69
-0.81
-1.12
-1.56
-2.04
-2.45
-2.75
-2.93
-3.01
-2.98
-2.79
-2.45
-1.96
-1.39
-0.80
-0.26
0.22
0.65
1.05
1.42
1.71
1.89
1.94
1.91
1.85
1.80
1.75
1.65
1.44
1.11
0.73
0.40
0.22
0.21
0.28
0.32
0.21
-0.10
-0.57
-1.11
-1.63
-2.07
-2.44
-2.79
-3.17
-3.60
-4.04
-4.41
-4.66
-4.76
-4.81
-4.93
-5.21
-5.67
-6.19
-6.58
-6.69
-6.46
-5.94
-5.26
-4.49
-3.61
-2.52
-1.19
0.36
2.01
3.55
4.84
5.78
6.38
6.66
6.67
6.44
6.03
5.50
4.97
4.54
4.26
4.11
4.02
3.91
3.70
3.36
2.93
2.47
2.06
1.76
1.62
1.61
1.65
1.62
1.42
1.03
0.46
-0.17
-0.73
-1.12
-1.28
-1.27
-1.15
-1.02
-0.92
-0.89
-0.96
-1.16
-1.51
-1.95
-2.35
-2.52
-2.32
-1.73
-0.88
0.02
0.77
1.28
1.60
1.82
1.99
2.12
2.15
2.03
1.78
1.49
1.26
1.15
1.15
1.18
1.18
1.11
0.99
0.84
0.69
0.55
0.40
0.26
0.13
0.04
0.01
0.01
0.01
-0.05
-0.21
-0.46
-0.78
-1.12
-1.40
-1.58
-1.64
-1.62
-1.59
-1.64
-1.81
-2.04
-2.26
-2.35
-2.30
-2.13
-1.90
-1.63
-1.27
-0.71
0.08
1.03
1.97
2.68
3.05
3.09
2.91
2.63
2.32
2.00
1.68
1.39
1.20
1.18
1.34
1.63
1.93
2.10
2.08
1.87
1.54
1.18
0.86
0.60
0.39
0.21
0.07
-0.01
-0.04
-0.06
-0.15
-0.38
-0.75
-1.19
-1.56
-1.76
-1.78
-1.71
-1.70
-1.84
-2.13
-2.45
-2.67
-2.72
-2.56
-2.25
-1.79
-1.22
-0.53
0.22
0.96
1.53
1.84
1.84
1.59
1.20
0.84
0.62
0.60
0.73
0.91
1.03
1.03
0.92
0.76
0.65
0.60
0.59
0.58
0.52
0.43
0.38
0.41
0.49
0.55
0.48
0.20
-0.29
-0.89
-1.48
-1.90
-2.08
-2.01
-1.78
-1.53
-1.42
-1.55
-1.91
-2.42
-2.92
-3.26
-3.33
-3.13
-2.71
-2.16
-1.56
-0.93
-0.27
0.44
1.17
1.82
2.30
2.49
2.41
2.11
1.75
1.50
1.46
1.63
1.89
2.11
2.19
2.11
1.92
1.65
1.35
1.01
0.61
0.17
-0.26
-0.62
-0.83
-0.91
-0.91
-0.90
-0.97
-1.14
-1.36
-1.60
-1.79
-1.93
-2.02
-2.11
-2.19
-2.25
-2.30
-2.34
-2.44
-2.64
-2.99
-3.42
-3.83
-4.07
-4.03
-3.71
-3.16
-2.47
-1.73
-1.04
-0.47
-0.12
-0.05
-0.28
-0.75
-1.34
-1.87
-2.25
-2.40
-2.35
-2.15
-1.85
-1.47
-1.01
-0.44
0.24
1.00
1.82
2.61
3.33
3.94
4.44
4.85
5.17
5.38
5.45
5.34
5.04
4.57
3.98
3.34
2.73
2.18
1.75
1.47
1.32
1.27
1.22
1.07
0.77
0.31
-0.22
-0.70
-1.02
-1.12
-1.03
-0.81
-0.48
-0.02
0.57
1.26
1.94
2.42
2.57
2.34
1.83
1.24
0.78
0.53
0.50
0.57
0.65
0.66
0.60
0.52
0.43
0.35
0.27
0.19
0.08
-0.08
-0.28
-0.52
-0.78
-1.04
-1.27
-1.46
-1.62
-1.72
-1.74
-1.64
-1.40
-1.08
-0.78
-0.62
-0.69
-1.01
-1.48
-1.98
-2.39
-2.64
-2.71
-2.59
-2.29
-1.80
-1.15
-0.42
0.29
0.89
1.34
1.69
1.99
2.29
2.60
2.85
2.96
2.87
2.55
2.07
1.50
0.94
0.49
0.23
0.19
0.35
0.61
0.86
0.95
0.80
0.44
-0.03
-0.47
-0.77
-0.88
-0.82
-0.65
-0.43
-0.23
-0.08
-0.02
-0.06
-0.19
-0.35
-0.47
-0.52
-0.50
-0.51
-0.62
-0.88
-1.26
-1.67
-2.02
-2.28
-2.44
-2.54
-2.56
-2.45
-2.13
-1.56
-0.78
0.10
0.93
1.60
2.04
2.25
2.23
2.03
1.71
1.35
1.07
0.99
1.14
1.48
1.87
2.13
2.13
1.84
1.37
0.91
0.62
0.57
0.72
0.92
1.01
0.89
0.58
0.14
-0.28
-0.57
-0.67
-0.57
-0.37
-0.16
-0.03
-0.03
-0.16
-0.35
-0.53
-0.64
-0.65
-0.62
-0.61
-0.74
-1.08
-1.61
-2.24
-2.81
-3.16
-3.17
-2.84
-2.27
-1.59
-0.87
-0.14
0.62
1.38
2.04
2.46
2.56
2.35
1.98
1.63
1.41
1.32
1.24
1.04
0.69
0.26
-0.10
-0.29
-0.31
-0.23
-0.14
-0.09
-0.06
-0.01
0.08
0.17
0.19
0.09
-0.10
-0.34
-0.56
-0.72
-0.84
-0.94
-1.04
-1.13
-1.19
-1.21
-1.24
-1.35
-1.57
-1.87
-2.20
-2.45
-2.58
-2.60
-2.59
-2.59
-2.63
-2.63
-2.46
-2.02
-1.30
-0.40
0.50
1.24
1.74
2.04
2.23
2.40
2.55
2.64
2.57
2.29
1.85
1.36
0.99
0.85
0.95
1.19
1.46
1.65
1.70
1.63
1.48
1.29
1.07
0.79
0.43
-0.00
-0.46
-0.86
-1.16
-1.40
-1.65
-1.99
-2.47
-3.04
-3.58
-3.95
-4.09
-4.03
-3.89
-3.82
-3.93
-4.21
-4.59
-4.96
-5.25
-5.40
-5.42
-5.31
-5.04
-4.63
-4.13
-3.62
-3.19
-2.87
-2.62
-2.32
-1.85
-1.14
-0.21
0.83
1.88
2.87
3.75
4.52
5.15
5.56
5.74
5.70
5.51
5.31
5.17
5.13
5.12
5.09
4.96
4.71
4.34
3.88
3.36
2.85
2.39
2.01
1.72
1.47
1.20
0.88
0.52
0.19
-0.05
-0.17
-0.22
-0.27
-0.38
-0.59
-0.89
-1.28
-1.74
-2.25
-2.70
-2.93
-2.74
-2.04
-0.89
0.46
1.69
2.54
2.94
2.97
2.83
2.65
2.50
2.33
2.10
1.82
1.56
1.42
1.40
1.47
1.56
1.57
1.49
1.33
1.10
0.83
0.55
0.30
0.14
0.08
0.10
0.13
0.10
-0.05
-0.33
-0.70
-1.12
-1.53
-1.92
-2.27
-2.58
-2.85
-3.06
-3.21
-3.33
-3.42
-3.48
-3.50
-3.44
-3.26
-2.91
-2.33
-1.51
-0.51
0.57
1.58
2.38
2.90
3.10
3.02
2.70
2.22
1.64
1.06
0.63
0.45
0.57
0.94
1.38
1.66
1.62
1.27
0.76
0.32
0.10
0.10
0.18
0.19
0.04
-0.22
-0.46
-0.56
-0.52
-0.43
-0.42
-0.58
-0.89
-1.29
-1.72
-2.14
-2.58
-3.03
-3.44
-3.74
-3.82
-3.64
-3.20
-2.55
-1.76
-0.88
0.02
0.88
1.64
2.25
2.69
2.96
3.10
3.16
3.17
3.12
2.99
2.76
2.41
1.97
1.48
1.00
0.59
0.31
0.21
0.32
0.61
0.95
1.20
1.21
0.95
0.51
0.09
-0.16
-0.21
-0.16
-0.18
-0.35
-0.61
-0.82
-0.86
-0.74
-0.60
-0.64
-0.96
-1.53
-2.19
-2.80
-3.26
-3.54
-3.65
-3.58
-3.26
-2.64
-1.74
-0.68
0.35
1.17
1.68
1.89
1.89
1.84
1.87
2.05
2.37
2.76
3.07
3.17
3.00
2.59
2.11
1.72
1.57
1.69
1.98
2.27
2.43
2.35
2.03
1.55
1.00
0.51
0.14
-0.04
-0.06
0.03
0.14
0.18
0.07
-0.17
-0.52
-0.91
-1.26
-1.59
-1.93
-2.35
-2.84
-3.35
-3.74
-3.87
-3.67
-3.18
-2.52
-1.81
-1.15
-0.52
0.12
0.80
1.49
2.06
2.38
2.32
1.90
1.21
0.46
-0.13
-0.42
-0.37
-0.03
0.46
0.93
1.22
1.26
1.04
0.67
0.27
-0.02
-0.14
-0.11
-0.03
0.04
0.03
-0.05
-0.20
-0.42
-0.74
-1.15
-1.59
-1.96
-2.16
-2.19
-2.11
-2.05
-2.13
-2.36
-2.67
-2.92
-3.01
-2.87
-2.48
-1.88
-1.11
-0.24
0.61
1.34
1.89
2.23
2.42
2.53
2.59
2.57
2.40
2.02
1.47
0.92
0.55
0.49
0.75
1.17
1.55
1.72
1.65
1.38
1.00
0.58
0.17
-0.25
-0.64
-0.97
-1.17
-1.23
-1.16
-1.03
-0.90
-0.82
-0.82
-0.91
-1.02
-1.13
-1.21
-1.27
-1.42
-1.72
-2.16
-2.61
-2.88
-2.79
-2.28
-1.47
-0.53
0.34
1.06
1.64
2.12
2.47
2.64
2.58
2.29
1.87
1.48
1.22
1.12
1.09
1.06
0.99
0.92
0.94
1.10
1.36
1.63
1.76
1.68
1.42
1.07
0.79
0.68
0.74
0.86
0.91
0.78
0.46
0.02
-0.45
-0.87
-1.24
-1.56
-1.87
-2.18
-2.45
-2.69
-2.89
-3.06
-3.13
-3.00
-2.55
-1.71
-0.55
0.72
1.83
2.56
2.81
2.67
2.29
1.81
1.33
0.88
0.46
0.07
-0.26
-0.45
-0.47
-0.32
-0.05
0.20
0.33
0.29
0.07
-0.23
-0.51
-0.69
-0.75
-0.73
-0.68
-0.69
-0.78
-0.94
-1.14
-1.33
-1.48
-1.57
-1.59
-1.53
-1.42
-1.32
-1.31
-1.47
-1.81
-2.23
-2.55
-2.57
-2.15
-1.31
-0.23
0.84
1.66
2.13
2.29
2.29
2.28
2.31
2.33
2.26
2.03
1.64
1.21
0.86
0.67
0.64
0.69
0.69
0.59
0.39
0.17
0.03
0.05
0.21
0.41
0.56
0.54
0.34
0.02
-0.33
-0.62
-0.82
-0.96
-1.08
-1.24
-1.42
-1.64
-1.89
-2.18
-2.49
-2.78
-2.93
-2.87
-2.54
-2.00
-1.30
-0.52
0.30
1.12
1.89
2.49
2.80
2.75
2.40
1.88
1.40
1.06
0.91
0.89
0.93
0.98
1.07
1.20
1.36
1.50
1.54
1.47
1.28
1.03
0.76
0.50
0.26
0.08
-0.02
-0.02
0.05
0.13
0.14
0.02
-0.21
-0.50
-0.77
-0.97
-1.13
-1.29
-1.52
-1.83
-2.15
-2.35
-2.29
-1.87
-1.11
-0.09
0.99
1.96
2.65
2.98
2.97
2.69
2.29
1.89
1.58
1.42
1.39
1.44
1.47
1.41
1.21
0.89
0.53
0.25
0.12
0.14
0.24
0.31
0.30
0.26
0.24
0.29
0.31
0.16
-0.30
-1.02
-1.81
-2.36
-2.50
-2.21
-1.73
-1.35
-1.31
-1.67
-2.31
-2.97
-3.40
-3.46
-3.13
-2.49
-1.69
-0.88
-0.16
0.41
0.87
1.23
1.50
1.64
1.64
1.51
1.35
1.22
1.19
1.22
1.24
1.15
0.91
0.53
0.10
-0.32
-0.67
-0.95
-1.17
-1.36
-1.51
-1.62
-1.70
-1.80
-1.99
-2.27
-2.63
-2.99
-3.28
-3.48
-3.63
-3.82
-4.10
-4.47
-4.86
-5.20
-5.47
-5.70
-5.89
-6.01
-5.98
-5.65
-4.91
-3.76
-2.30
-0.68
0.93
2.44
3.81
5.01
5.97
6.64
6.94
6.86
6.50
6.01
5.60
5.37
5.32
5.31
5.16
4.75
4.11
3.41
2.86
2.60
2.61
2.74
2.75
2.49
1.94
1.23
0.56
0.10
-0.07
-0.04
0.05
0.06
-0.09
-0.36
-0.66
-0.92
-1.11
-1.27
-1.51
-1.89
-2.39
-2.89
-3.21
-3.21
-2.87
-2.27
-1.56
-0.88
-0.31
0.15
0.55
0.95
1.37
1.77
2.08
2.25
2.23
2.07
1.87
1.71
1.70
1.83
2.07
2.31
2.47
2.46
2.26
1.88
1.36
0.79
0.29
-0.04
-0.15
-0.06
0.15
0.38
0.59
0.76
0.92
1.08
1.19
1.14
0.83
0.25
-0.51
-1.30
-1.95
-2.36
-2.50
-2.45
-2.30
-2.14
-1.99
-1.85
-1.65
-1.37
-1.01
-0.60
-0.17
0.25
0.65
1.04
1.41
1.73
1.93
1.97
1.83
1.58
1.32
1.16
1.13
1.18
1.18
1.06
0.77
0.39
0.03
-0.20
-0.26
-0.23
-0.24
-0.40
-0.73
-1.17
-1.58
-1.83
-1.88
-1.82
-1.78
-1.86
-2.07
-2.33
-2.51
-2.52
-2.37
-2.17
-2.07
-2.16
-2.41
-2.70
-2.86
-2.75
-2.32
-1.62
-0.75
0.17
0.98
1.59
1.92
1.96
1.76
1.45
1.17
1.04
1.12
1.34
1.60
1.76
1.76
1.63
1.46
1.36
1.41
1.55
1.69
1.67
1.41
0.91
0.27
-0.37
-0.88
-1.18
-1.27
-1.20
-1.02
-0.80
-0.62
-0.54
-0.65
-0.97
-1.50
-2.13
-2.75
-3.22
-3.48
-3.52
-3.38
-3.14
-2.86
-2.52
-2.10
-1.54
-0.83
-0.03
0.75
1.38
1.78
1.95
2.00
2.03
2.14
2.29
2.40
2.36
2.16
1.86
1.58
1.43
1.41
1.45
1.47
1.42
1.35
1.33
1.39
1.46
1.45
1.25
0.85
0.35
-0.11
-0.35
-0.33
-0.12
0.14
0.28
0.18
-0.15
-0.62
-1.07
-1.40
-1.57
-1.64
-1.69
-1.80
-1.97
-2.11
-2.14
-2.00
-1.69
-1.27
-0.80
-0.26
0.37
1.10
1.86
2.50
2.86
2.85
2.49
1.92
1.33
0.88
0.65
0.63
0.74
0.91
1.03
1.06
0.95
0.72
0.40
0.08
-0.13
-0.16
-0.00
0.28
0.55
0.68
0.56
0.23
-0.20
-0.60
-0.88
-1.02
-1.10
-1.22
-1.44
-1.78
-2.14
-2.42
-2.54
-2.48
-2.26
-1.91
-1.44
-0.85
-0.18
0.51
1.10
1.49
1.67
1.68
1.60
1.54
1.52
1.51
1.45
1.29
1.05
0.81
0.64
0.59
0.62
0.64
0.57
0.41
0.19
-0.00
-0.08
-0.01
0.18
0.37
0.41
0.20
-0.29
-0.95
-1.57
-1.96
-1.99
-1.68
-1.20
-0.80
-0.70
-1.01
-1.69
-2.54
-3.33
-3.86
-4.00
-3.72
-3.10
-2.27
-1.36
-0.48
0.29
0.89
1.33
1.64
1.89
2.13
2.37
2.58
2.67
2.57
2.28
1.88
1.48
1.18
1.00
0.90
0.82
0.72
0.60
0.50
0.44
0.42
0.42
0.40
0.34
0.23
0.03
-0.25
-0.58
-0.91
-1.18
-1.33
-1.37
-1.32
-1.24
-1.19
-1.19
-1.26
-1.42
-1.64
-1.86
-2.03
-2.10
-2.04
-1.83
-1.48
-0.97
-0.31
0.48
1.28
1.99
2.47
2.67
2.61
2.40
2.15
1.93
1.77
1.64
1.52
1.39
1.26
1.12
0.97
0.82
0.70
0.67
0.75
0.94
1.17
1.29
1.22
0.93
0.50
0.05
-0.29
-0.42
-0.35
-0.14
0.12
0.35
0.46
0.39
0.08
-0.44
-1.14
-1.88
-2.49
-2.86
-2.90
-2.63
-2.09
-1.37
-0.53
0.33
1.13
1.79
2.24
2.46
2.48
2.33
2.03
1.60
1.06
0.49
-0.01
-0.32
-0.35
-0.15
0.16
0.41
0.47
0.31
0.02
-0.29
-0.51
-0.60
-0.61
-0.64
-0.73
-0.91
-1.15
-1.38
-1.60
-1.82
-2.08
-2.39
-2.71
-2.99
-3.16
-3.18
-3.07
-2.81
-2.45
-1.98
-1.42
-0.78
-0.11
0.54
1.13
1.64
2.00
2.16
2.06
1.71
1.20
0.68
0.31
0.17
0.24
0.42
0.57
0.66
0.69
0.71
0.78
0.86
0.88
0.76
0.48
0.12
-0.19
-0.34
-0.26
-0.03
0.24
0.33
0.12
-0.45
-1.26
-2.11
-2.79
-3.13
-3.10
-2.77
-2.28
-1.71
-1.11
-0.46
0.24
0.95
1.57
2.00
2.20
2.18
2.02
1.78
1.47
1.13
0.77
0.47
0.32
0.36
0.59
0.89
1.15
1.26
1.20
1.00
0.74
0.45
0.16
-0.15
-0.45
-0.68
-0.75
-0.60
-0.25
0.19
0.56
0.71
0.55
0.11
-0.52
-1.19
-1.76
-2.12
-2.23
-2.10
-1.78
-1.35
-0.85
-0.29
0.33
0.97
1.59
2.09
2.38
2.43
2.26
1.98
1.66
1.38
1.12
0.88
0.66
0.54
0.59
0.84
1.22
1.61
1.84
1.80
1.48
0.97
0.39
-0.13
-0.51
-0.74
-0.81
-0.77
-0.67
-0.57
-0.54
-0.62
-0.79
-1.00
-1.18
-1.28
-1.29
-1.23
-1.13
-0.98
-0.79
-0.52
-0.18
0.22
0.62
0.96
1.22
1.36
1.39
1.30
1.11
0.86
0.60
0.39
0.29
0.30
0.38
0.47
0.50
0.46
0.35
0.22
0.07
-0.11
-0.32
-0.53
-0.67
-0.74
-0.73
-0.76
-0.93
-1.29
-1.79
-2.33
-2.78
-3.09
-3.25
-3.32
-3.35
-3.31
-3.20
-2.97
-2.59
-2.02
-1.25
-0.30
0.72
1.64
2.27
2.52
2.40
2.09
1.77
1.56
1.49
1.48
1.43
1.32
1.16
1.01
0.91
0.85
0.80
0.72
0.62
0.54
0.51
0.50
0.49
0.40
0.23
-0.02
-0.26
-0.43
-0.51
-0.52
-0.55
-0.65
-0.86
-1.14
-1.39
-1.53
-1.54
-1.46
-1.38
-1.36
-1.41
-1.47
-1.43
-1.21
-0.81
-0.28
0.27
0.72
1.04
1.27
1.49
1.76
2.06
2.29
2.29
1.96
1.34
0.65
0.20
0.17
0.57
1.18
1.69
1.87
1.69
1.29
0.86
0.53
0.28
0.02
-0.33
-0.74
-1.11
-1.32
-1.32
-1.17
-1.00
-0.92
-0.94
-1.04
-1.14
-1.20
-1.22
-1.23
-1.27
-1.32
-1.30
-1.15
-0.80
-0.29
0.29
0.83
1.26
1.52
1.65
1.67
1.60
1.45
1.22
0.95
0.68
0.51
0.52
0.75
1.18
1.70
2.15
2.39
2.34
2.02
1.52
1.01
0.59
0.32
0.12
-0.10
-0.39
-0.75
-1.08
-1.28
-1.28
-1.13
-0.97
-0.96
-1.21
-1.68
-2.26
-2.76
-3.06
-3.16
-3.10
-2.97
-2.77
-2.48
-2.00
-1.33
-0.51
0.32
0.98
1.39
1.52
1.46
1.33
1.24
1.21
1.21
1.16
1.00
0.71
0.36
0.06
-0.11
-0.13
-0.08
-0.02
-0.01
-0.06
-0.11
-0.11
-0.06
0.01
0.00
-0.08
-0.22
-0.35
-0.42
-0.44
-0.47
-0.57
-0.75
-0.95
-1.09
-1.14
-1.12
-1.13
-1.25
-1.51
-1.87
-2.27
-2.59
-2.77
-2.74
-2.49
-2.03
-1.41
-0.72
-0.02
0.63
1.25
1.83
2.34
2.71
2.84
2.68
2.31
1.88
1.51
1.30
1.20
1.14
1.07
0.98
0.92
0.90
0.95
1.01
1.08
1.15
1.25
1.33
1.31
1.07
0.56
-0.15
-0.84
-1.30
-1.40
-1.17
-0.81
-0.50
-0.38
-0.43
-0.56
-0.64
-0.64
-0.61
-0.66
-0.88
-1.24
-1.66
-2.05
-2.33
-2.46
-2.47
-2.31
-1.93
-1.26
-0.28
0.91
2.08
2.96
3.34
3.16
2.57
1.82
1.16
0.75
0.62
0.67
0.82
0.99
1.17
1.37
1.59
1.79
1.90
1.88
1.70
1.40
1.01
0.60
0.22
-0.06
-0.25
-0.34
-0.38
-0.41
-0.45
-0.49
-0.51
-0.49
-0.50
-0.57
-0.75
-1.01
-1.32
-1.60
-1.83
-1.99
-2.10
-2.16
-2.13
-1.97
-1.65
-1.24
-0.82
-0.50
-0.29
-0.13
0.10
0.50
1.04
1.57
1.91
1.89
1.52
0.92
0.33
-0.06
-0.14
0.03
0.34
0.64
0.84
0.90
0.79
0.50
0.02
-0.58
-1.17
-1.57
-1.66
-1.42
-0.96
-0.47
-0.13
-0.03
-0.14
-0.39
-0.69
-0.98
-1.28
-1.59
-1.89
-2.14
-2.27
-2.28
-2.21
-2.11
-2.05
-2.07
-2.08
-1.99
-1.69
-1.10
-0.29
0.60
1.40
1.96
2.26
2.40
2.50
2.68
2.93
3.12
3.11
2.85
2.37
1.82
1.34
1.00
0.80
0.70
0.67
0.67
0.70
0.72
0.66
0.47
0.12
-0.35
-0.89
-1.38
-1.74
-1.89
-1.81
-1.52
-1.10
-0.71
-0.50
-0.58
-0.92
-1.38
-1.77
-1.96
-1.95
-1.84
-1.79
-1.86
-2.02
-2.11
-1.96
-1.49
-0.75
0.07
0.81
1.40
1.87
2.31
2.76
3.13
3.27
3.08
2.57
1.93
1.41
1.21
1.37
1.78
2.21
2.47
2.45
2.16
1.73
1.29
0.99
0.89
0.97
1.14
1.26
1.21
0.97
0.59
0.18
-0.15
-0.34
-0.40
-0.40
-0.42
-0.51
-0.66
-0.85
-1.05
-1.25
-1.51
-1.87
-2.29
-2.71
-2.96
-2.94
-2.59
-2.01
-1.34
-0.73
-0.22
0.20
0.64
1.17
1.79
2.40
2.87
3.05
2.87
2.33
1.55
0.69
-0.02
-0.42
-0.43
-0.13
0.32
0.73
0.97
1.01
0.90
0.70
0.44
0.13
-0.23
-0.61
-0.94
-1.16
-1.24
-1.21
-1.15
-1.10
-1.12
-1.21
-1.34
-1.52
-1.72
-1.93
-2.09
-2.19
-2.22
-2.21
-2.19
-2.14
-2.01
-1.68
-1.10
-0.28
0.62
1.42
1.96
2.23
2.34
2.41
2.51
2.60
2.56
2.29
1.81
1.23
0.74
0.49
0.51
0.73
0.98
1.14
1.16
1.09
1.00
0.94
0.91
0.86
0.68
0.35
-0.10
-0.56
-0.89
-1.06
-1.10
-1.13
-1.29
-1.59
-1.95
-2.25
-2.39
-2.38
-2.30
-2.25
-2.24
-2.24
-2.18
-2.00
-1.70
-1.29
-0.77
-0.09
0.76
1.70
2.57
3.22
3.51
3.42
3.07
2.58
2.09
1.66
1.30
1.02
0.86
0.87
1.05
1.33
1.60
1.72
1.59
1.22
0.73
0.29
0.04
-0.00
0.13
0.32
0.46
0.47
0.33
0.07
-0.27
-0.63
-0.93
-1.15
-1.27
-1.33
-1.39
-1.46
-1.57
-1.69
-1.79
-1.82
-1.78
-1.66
-1.45
-1.16
-0.82
-0.42
0.02
0.52
1.07
1.62
2.06
2.29
2.24
1.96
1.59
1.28
1.13
1.13
1.21
1.27
1.26
1.17
1.01
0.77
0.41
-0.05
-0.60
-1.14
-1.57
-1.78
-1.74
-1.50
-1.17
-0.92
-0.88
-1.13
-1.65
-2.27
-2.81
-3.11
-3.15
-3.01
-2.86
-2.78
-2.78
-2.73
-2.49
-2.00
-1.31
-0.56
0.06
0.48
0.72
0.87
1.05
1.28
1.52
1.64
1.57
1.29
0.90
0.52
0.27
0.17
0.14
0.10
-0.01
-0.18
-0.33
-0.40
-0.36
-0.27
-0.22
-0.32
-0.63
-1.12
-1.74
-2.38
-2.94
-3.36
-3.61
-3.75
-3.86
-4.02
-4.29
-4.66
-5.04
-5.38
-5.63
-5.76
-5.79
-5.68
-5.36
-4.75
-3.79
-2.49
-0.96
0.60
2.00
3.13
3.95
4.56
5.04
5.48
5.85
6.08
6.09
5.85
5.40
4.89
4.44
4.14
3.98
3.90
3.82
3.70
3.55
3.38
3.20
2.96
2.61
2.15
1.62
1.13
0.81
0.73
0.83
1.02
1.15
1.13
0.90
0.48
-0.07
-0.64
-1.12
-1.40
-1.44
-1.24
-0.87
-0.44
-0.05
0.23
0.44
0.63
0.87
1.18
1.53
1.88
2.15
2.30
2.32
2.25
2.13
2.01
1.87
1.69
1.42
1.06
0.65
0.27
-0.00
-0.13
-0.12
-0.05
0.02
0.06
0.05
0.03
-0.00
-0.04
-0.10
-0.21
-0.41
-0.67
-0.96
-1.22
-1.43
-1.60
-1.76
-1.95
-2.17
-2.39
-2.55
-2.59
-2.48
-2.25
-1.93
-1.52
-1.01
-0.39
0.34
1.05
1.63
1.96
2.02
1.89
1.69
1.53
1.42
1.33
1.22
1.06
0.86
0.64
0.44
0.24
0.03
-0.22
-0.48
-0.72
-0.90
-1.02
-1.07
-1.07
-1.03
-0.96
-0.87
-0.79
-0.76
-0.85
-1.09
-1.43
-1.83
-2.19
-2.48
-2.68
-2.78
-2.78
-2.64
-2.29
-1.70
-0.89
0.03
0.90
1.59
2.04
2.26
2.31
2.29
2.25
2.24
2.27
2.29
2.26
2.14
1.93
1.70
1.52
1.43
1.41
1.39
1.25
0.95
0.53
0.10
-0.24
-0.42
-0.48
-0.50
-0.55
-0.66
-0.81
-0.97
-1.15
-1.35
-1.58
-1.79
-1.92
-1.90
-1.72
-1.47
-1.25
-1.16
-1.22
-1.38
-1.58
-1.75
-1.87
-1.90
-1.81
-1.52
-1.01
-0.28
0.54
1.32
1.89
2.21
2.27
2.14
1.90
1.60
1.29
1.06
0.97
1.09
1.38
1.75
2.02
2.06
1.83
1.39
0.86
0.42
0.18
0.19
0.42
0.75
1.07
1.23
1.15
0.83
0.33
-0.22
-0.70
-1.05
-1.28
-1.44
-1.59
-1.74
-1.88
-1.97
-1.99
-1.94
-1.84
-1.69
-1.46
-1.09
-0.56
0.09
0.78
1.37
1.78
1.97
1.98
1.87
1.71
1.51
1.27
1.01
0.79
0.67
0.71
0.90
1.15
1.34
1.36
1.16
0.81
0.40
0.03
-0.24
-0.42
-0.55
-0.65
-0.70
-0.68
-0.56
-0.39
-0.26
-0.25
-0.42
-0.73
-1.13
-1.56
-1.97
-2.36
-2.70
-2.93
-2.99
-2.85
-2.54
-2.14
-1.75
-1.41
-1.11
-0.79
-0.36
0.18
0.78
1.33
1.73
1.87
1.74
1.39
0.93
0.51
0.25
0.19
0.26
0.34
0.32
0.18
-0.00
-0.12
-0.11
0.00
0.11
0.11
-0.01
-0.17
-0.28
-0.28
-0.23
-0.28
-0.50
-0.89
-1.33
-1.66
-1.77
-1.65
-1.41
-1.18
-1.05
-1.10
-1.31
-1.63
-1.99
-2.27
-2.40
-2.35
-2.17
-1.93
-1.67
-1.37
-0.96
-0.33
0.54
1.56
2.55
3.28
3.61
3.50
3.04
2.39
1.72
1.17
0.80
0.61
0.54
0.54
0.57
0.63
0.72
0.82
0.90
0.90
0.79
0.61
0.40
0.26
0.20
0.20
0.17
0.06
-0.15
-0.39
-0.56
-0.59
-0.48
-0.30
-0.18
-0.23
-0.47
-0.84
-1.25
-1.59
-1.83
-1.99
-2.17
-2.43
-2.78
-3.11
-3.23
-2.99
-2.36
-1.41
-0.36
0.60
1.36
1.91
2.29
2.57
2.77
2.87
2.87
2.78
2.61
2.40
2.18
1.96
1.76
1.63
1.62
1.72
1.88
1.98
1.95
1.77
1.45
1.09
0.75
0.47
0.24
0.09
0.01
0.02
0.11
0.24
0.36
0.41
0.36
0.20
-0.04
-0.34
-0.67
-0.97
-1.23
-1.42
-1.56
-1.71
-1.92
-2.21
-2.48
-2.60
-2.45
-1.97
-1.20
-0.30
0.55
1.22
1.68
1.94
2.09
2.15
2.14
2.00
1.71
1.27
0.76
0.26
-0.14
-0.42
-0.57
-0.67
-0.75
-0.80
-0.77
-0.64
-0.40
-0.12
0.05
0.05
-0.17
-0.52
-0.86
-1.04
-1.01
-0.80
-0.51
-0.28
-0.21
-0.33
-0.60
-0.94
-1.25
-1.45
-1.48
-1.38
-1.23
-1.16
-1.28
-1.63
-2.14
-2.62
-2.89
-2.81
-2.36
-1.64
-0.80
0.03
0.79
1.45
2.01
2.47
2.79
2.93
2.85
2.61
2.27
1.92
1.64
1.45
1.36
1.34
1.38
1.44
1.49
1.51
1.47
1.37
1.22
1.05
0.91
0.79
0.65
0.45
0.17
-0.14
-0.42
-0.58
-0.59
-0.48
-0.36
-0.32
-0.44
-0.68
-1.01
-1.39
-1.80
-2.25
-2.70
-3.06
-3.21
-3.07
-2.65
-2.08
-1.56
-1.28
-1.26
-1.41
-1.50
-1.32
-0.77
0.08
1.05
1.92
2.55
2.89
2.99
2.92
2.74
2.47
2.12
1.70
1.25
0.90
0.72
0.76
0.97
1.29
1.63
1.94
2.17
2.27
2.16
1.79
1.21
0.52
-0.09
-0.44
-0.43
-0.12
0.34
0.76
0.99
0.96
0.72
0.37
-0.02
-0.40
-0.77
-1.16
-1.59
-2.03
-2.41
-2.66
-2.75
-2.72
-2.65
-2.62
-2.63
-2.60
-2.40
-1.93
-1.18
-0.28
0.60
1.29
1.69
1.78
1.60
1.23
0.79
0.41
0.18
0.15
0.31
0.55
0.77
0.88
0.88
0.78
0.66
0.54
0.40
0.24
0.05
-0.11
-0.20
-0.20
-0.16
-0.18
-0.33
-0.56
-0.78
-0.88
-0.79
-0.60
-0.44
-0.45
-0.67
-1.00
-1.29
-1.44
-1.46
-1.46
-1.57
-1.85
-2.24
-2.61
-2.84
-2.84
-2.62
-2.22
-1.69
-1.03
-0.23
0.68
1.63
2.49
3.12
3.42
3.35
2.96
2.39
1.84
1.46
1.32
1.37
1.46
1.46
1.28
0.96
0.64
0.43
0.39
0.45
0.53
0.53
0.43
0.27
0.12
0.01
-0.05
-0.11
-0.21
-0.39
-0.63
-0.92
-1.21
-1.49
-1.73
-1.90
-2.02
-2.10
-2.13
-2.14
-2.12
-2.08
-2.01
-1.92
-1.77
-1.57
-1.29
-0.94
-0.53
-0.09
0.37
0.82
1.29
1.77
2.22
2.57
2.75
2.69
2.40
2.00
1.61
1.31
1.15
1.09
1.06
1.04
1.03
1.08
1.20
1.34
1.44
1.42
1.28
1.05
0.82
0.65
0.57
0.52
0.45
0.31
0.11
-0.13
-0.35
-0.51
-0.64
-0.76
-0.92
-1.15
-1.43
-1.72
-1.95
-2.08
-2.13
-2.14
-2.17
-2.25
-2.29
-2.20
-1.86
-1.23
-0.37
0.54
1.34
1.87
2.11
2.09
1.93
1.69
1.39
1.00
0.52
-0.01
-0.48
-0.78
-0.84
-0.71
-0.48
-0.28
-0.20
-0.28
-0.48
-0.78
-1.13
-1.49
-1.83
-2.13
-2.37
-2.60
-2.84
-3.14
-3.46
-3.73
-3.90
-3.97
-4.02
-4.17
-4.48
-4.94
-5.42
-5.80
-6.00
-6.03
-5.91
-5.65
-5.21
-4.49
-3.43
-2.06
-0.52
1.01
2.37
3.46
4.28
4.89
5.36
5.75
6.04
6.23
6.27
6.18
5.97
5.68
5.33
4.91
4.41
3.84
3.27
2.81
2.57
2.63
2.92
3.28
3.49
3.39
2.95
2.27
1.54
0.91
0.46
0.16
-0.05
-0.23
-0.42
-0.63
-0.82
-0.98
-1.08
-1.11
-1.09
-1.07
-1.11
-1.26
-1.54
-1.92
-2.32
-2.59
-2.60
-2.26
-1.57
-0.60
0.51
1.56
2.39
2.88
3.03
2.92
2.68
2.38
2.04
1.67
1.26
0.90
0.67
0.67
0.85
1.12
1.30
1.27
1.02
0.64
0.28
0.06
0.02
0.09
0.21
0.30
0.32
0.28
0.18
0.07
-0.01
-0.03
0.03
0.12
0.18
0.13
-0.02
-0.23
-0.47
-0.72
-1.01
-1.37
-1.75
-2.07
-2.19
-2.05
-1.70
-1.23
-0.79
-0.41
-0.07
0.29
0.72
1.21
1.70
2.11
2.41
2.56
2.52
2.27
1.80
1.19
0.56
0.08
-0.15
-0.09
0.16
0.45
0.64
0.67
0.55
0.31
0.01
-0.34
-0.70
-1.04
-1.29
-1.38
-1.29
-1.05
-0.77
-0.59
-0.62
-0.85
-1.20
-1.53
-1.74
-1.81
-1.79
-1.76
-1.79
-1.92
-2.19
-2.60
-3.09
-3.53
-3.72
-3.48
-2.73
-1.57
-0.26
0.92
1.76
2.20
2.36
2.36
2.33
2.26
2.14
1.93
1.68
1.46
1.37
1.42
1.55
1.66
1.68
1.56
1.35
1.10
0.85
0.58
0.29
-0.04
-0.35
-0.58
-0.64
-0.51
-0.25
0.04
0.22
0.19
-0.09
-0.60
-1.24
-1.86
-2.30
-2.46
-2.28
-1.88
-1.42
-1.10
-1.06
-1.29
-1.72
-2.19
-2.57
-2.72
-2.60
-2.19
-1.53
-0.68
0.25
1.15
1.92
2.49
2.84
2.95
2.85
2.57
2.18
1.76
1.44
1.27
1.26
1.38
1.55
1.67
1.70
1.64
1.49
1.30
1.12
0.98
0.91
0.90
0.91
0.89
0.76
0.50
0.12
-0.33
-0.76
-1.10
-1.31
-1.38
-1.33
-1.21
-1.06
-0.91
-0.76
-0.65
-0.59
-0.64
-0.83
-1.17
-1.61
-2.05
-2.33
-2.33
-1.99
-1.35
-0.55
0.24
0.88
1.31
1.58
1.75
1.91
2.07
2.19
2.21
2.10
1.85
1.51
1.12
0.74
0.40
0.14
0.01
0.01
0.14
0.34
0.53
0.62
0.59
0.45
0.29
0.18
0.12
0.08
-0.04
-0.26
-0.55
-0.79
-0.88
-0.81
-0.72
-0.79
-1.16
-1.77
-2.45
-2.94
-3.11
-2.99
-2.74
-2.54
-2.50
-2.53
-2.52
-2.36
-2.01
-1.54
-1.03
-0.48
0.12
0.82
1.58
2.28
2.77
2.91
2.69
2.20
1.60
1.08
0.72
0.56
0.54
0.60
0.70
0.81
0.93
1.07
1.19
1.27
1.26
1.13
0.88
0.57
0.24
-0.06
-0.32
-0.52
-0.68
-0.76
-0.75
-0.65
-0.51
-0.42
-0.49
-0.75
-1.18
-1.68
-2.14
-2.51
-2.77
-2.92
-2.98
-2.95
-2.80
-2.51
-2.07
-1.48
-0.75
0.09
1.00
1.86
2.56
2.98
3.08
2.90
2.57
2.20
1.85
1.52
1.19
0.89
0.68
0.67
0.88
1.25
1.60
1.77
1.64
1.23
0.66
0.09
-0.36
-0.62
-0.70
-0.64
-0.50
-0.36
-0.28
-0.28
-0.36
-0.48
-0.59
-0.65
-0.69
-0.75
-0.88
-1.08
-1.30
-1.45
-1.48
-1.39
-1.25
-1.16
-1.21
-1.42
-1.69
-1.85
-1.73
-1.24
-0.45
0.50
1.41
2.15
2.66
2.98
3.16
3.21
3.10
2.81
2.38
1.90
1.49
1.22
1.07
0.96
0.78
0.52
0.21
-0.04
-0.13
-0.07
0.11
0.27
0.33
0.23
0.01
-0.21
-0.32
-0.25
-0.02
0.23
0.34
0.17
-0.29
-0.88
-1.38
-1.61
-1.54
-1.32
-1.20
-1.36
-1.81
-2.35
-2.72
-2.70
-2.32
-1.76
-1.27
-0.97
-0.82
-0.62
-0.19
0.49
1.27
1.88
2.11
1.93
1.45
0.91
0.48
0.25
0.19
0.19
0.17
0.08
-0.05
-0.17
-0.24
-0.22
-0.11
0.02
0.15
0.24
0.30
0.35
0.44
0.54
0.63
0.62
0.42
0.01
-0.58
-1.24
-1.81
-2.15
-2.20
-2.02
-1.75
-1.55
-1.54
-1.74
-2.06
-2.35
-2.52
-2.54
-2.44
-2.27
-2.04
-1.73
-1.29
-0.69
0.02
0.73
1.34
1.77
2.03
2.22
2.44
2.72
3.04
3.30
3.33
3.03
2.43
1.67
1.01
0.62
0.59
0.78
1.01
1.09
0.99
0.77
0.55
0.38
0.23
0.05
-0.19
-0.41
-0.49
-0.35
0.00
0.39
0.64
0.61
0.33
-0.08
-0.48
-0.82
-1.10
-1.39
-1.70
-2.00
-2.19
-2.22
-2.09
-1.87
-1.66
-1.53
-1.45
-1.39
-1.23
-0.93
-0.43
0.22
0.97
1.74
2.41
2.90
3.12
3.05
2.73
2.30
1.87
1.58
1.45
1.49
1.62
1.80
1.98
2.10
2.14
2.03
1.71
1.19
0.54
-0.11
-0.60
-0.85
-0.81
-0.56
-0.20
0.13
0.30
0.21
-0.17
-0.78
-1.49
-2.10
-2.48
-2.58
-2.48
-2.35
-2.33
-2.50
-2.81
-3.14
-3.35
-3.36
-3.14
-2.73
-2.17
-1.50
-0.76
-0.01
0.67
1.19
1.49
1.54
1.40
1.13
0.84
0.65
0.63
0.78
1.06
1.34
1.47
1.37
1.05
0.61
0.20
-0.08
-0.19
-0.18
-0.12
-0.08
-0.08
-0.16
-0.32
-0.57
-0.93
-1.36
-1.79
-2.10
-2.23
-2.16
-1.99
-1.89
-2.04
-2.54
-3.33
-4.21
-4.97
-5.45
-5.63
-5.68
-5.77
-5.98
-6.24
-6.36
-6.11
-5.36
-4.12
-2.55
-0.90
0.60
1.78
2.57
3.02
3.25
3.42
3.67
4.08
4.60
5.13
5.54
5.75
5.73
5.56
5.31
5.06
4.80
4.51
4.16
3.77
3.35
2.98
2.70
2.51
2.38
2.23
2.00
1.67
1.25
0.79
0.38
0.08
-0.06
-0.08
-0.04
-0.03
-0.07
-0.16
-0.23
-0.25
-0.25
-0.30
-0.44
-0.67
-0.85
-0.82
-0.49
0.13
0.87
1.57
2.08
2.42
2.62
2.72
2.72
2.54
2.13
1.52
0.84
0.27
-0.03
-0.02
0.29
0.76
1.21
1.50
1.51
1.23
0.73
0.16
-0.33
-0.65
-0.83
-0.96
-1.11
-1.32
-1.53
-1.68
-1.71
-1.64
-1.50
-1.41
-1.41
-1.54
-1.78
-2.06
-2.33
-2.51
-2.57
-2.47
-2.22
-1.83
-1.35
-0.78
-0.13
0.60
1.36
2.05
2.54
2.74
2.65
2.33
1.91
1.50
1.15
0.82
0.48
0.12
-0.20
-0.36
-0.30
-0.06
0.24
0.47
0.54
0.47
0.31
0.11
-0.13
-0.41
-0.71
-0.98
-1.12
-1.09
-0.89
-0.62
-0.38
-0.24
-0.25
-0.37
-0.57
-0.78
-0.98
-1.14
-1.25
-1.33
-1.38
-1.41
-1.38
-1.25
-0.94
-0.45
0.18
0.87
1.48
1.93
2.19
2.26
2.22
2.13
2.04
1.98
1.98
2.01
2.05
2.06
1.98
1.78
1.45
1.04
0.62
0.28
0.07
-0.03
-0.07
-0.15
-0.32
-0.58
-0.86
-1.11
-1.28
-1.39
-1.44
-1.45
-1.41
-1.33
-1.23
-1.21
-1.35
-1.65
-2.06
-2.47
-2.76
-2.86
-2.79
-2.61
-2.38
-2.12
-1.80
-1.40
-0.88
-0.25
0.44
1.11
1.68
2.06
2.18
2.06
1.77
1.47
1.31
1.39
1.70
2.14
2.52
2.69
2.59
2.25
1.77
1.27
0.82
0.47
0.21
0.06
0.06
0.21
0.49
0.79
0.98
0.98
0.75
0.38
-0.04
-0.41
-0.70
-0.94
-1.19
-1.47
-1.75
-1.96
-2.02
-1.90
-1.63
-1.29
-0.97
-0.76
-0.67
-0.67
-0.69
-0.63
-0.46
-0.15
0.23
0.63
0.97
1.23
1.42
1.55
1.62
1.58
1.40
1.08
0.68
0.29
0.01
-0.09
-0.02
0.19
0.43
0.63
0.71
0.61
0.34
-0.08
-0.59
-1.09
-1.54
-1.91
-2.22
-2.51
-2.79
-3.06
-3.26
-3.33
-3.24
-2.98
-2.57
-2.07
-1.56
-1.07
-0.63
-0.19
0.27
0.74
1.17
1.46
1.52
1.32
0.97
0.63
0.45
0.50
0.75
1.05
1.27
1.36
1.36
1.35
1.37
1.39
1.32
1.06
0.62
0.05
-0.50
-0.91
-1.11
-1.16
-1.14
-1.12
-1.16
-1.23
-1.34
-1.52
-1.79
-2.16
-2.52
-2.74
-2.64
-2.18
-1.46
-0.66
0.01
0.44
0.67
0.80
0.95
1.13
1.29
1.38
1.38
1.34
1.33
1.38
1.46
1.47
1.39
1.23
1.05
0.92
0.87
0.90
0.97
1.05
1.11
1.10
0.98
0.73
0.36
-0.03
-0.35
-0.52
-0.55
-0.48
-0.39
-0.30
-0.19
-0.06
0.06
0.10
-0.03
-0.35
-0.80
-1.24
-1.57
-1.73
-1.73
-1.62
-1.43
-1.17
-0.84
-0.43
0.01
0.45
0.85
1.22
1.56
1.83
1.99
1.98
1.75
1.35
0.88
0.49
0.29
0.30
0.48
0.73
0.93
1.02
0.97
0.79
0.53
0.26
0.02
-0.16
-0.28
-0.38
-0.50
-0.68
-0.92
-1.17
-1.40
-1.59
-1.74
-1.86
-1.95
-1.98
-1.97
-1.95
-1.99
-2.14
-2.36
-2.53
-2.48
-2.10
-1.41
-0.54
0.33
1.06
1.59
1.94
2.13
2.18
2.07
1.77
1.34
0.86
0.43
0.14
0.02
0.06
0.21
0.39
0.51
0.51
0.37
0.18
0.02
0.00
0.13
0.35
0.54
0.57
0.41
0.05
-0.42
-0.91
-1.32
-1.57
-1.60
-1.43
-1.13
-0.83
-0.66
-0.71
-0.97
-1.39
-1.83
-2.21
-2.47
-2.60
-2.60
-2.48
-2.21
-1.79
-1.22
-0.56
0.11
0.68
1.09
1.38
1.60
1.84
2.11
2.32
2.36
2.17
1.80
1.36
1.03
0.91
1.00
1.21
1.45
1.63
1.73
1.75
1.69
1.52
1.25
0.91
0.60
0.41
0.35
0.35
0.26
0.01
-0.40
-0.83
-1.10
-1.11
-0.90
-0.64
-0.53
-0.72
-1.16
-1.70
-2.17
-2.47
-2.59
-2.62
-2.57
-2.41
-2.03
-1.35
-0.38
0.73
1.78
2.57
2.98
3.01
2.75
2.29
1.74
1.22
0.84
0.67
0.73
0.97
1.25
1.46
1.53
1.47
1.33
1.14
0.93
0.67
0.38
0.11
-0.01
0.09
0.40
0.82
1.18
1.34
1.28
1.06
0.79
0.54
0.30
0.02
-0.34
-0.79
-1.26
-1.69
-2.03
-2.25
-2.36
-2.32
-2.10
-1.70
-1.16
-0.57
-0.06
0.30
0.46
0.52
0.58
0.71
0.96
1.27
1.52
1.60
1.44
1.04
0.51
-0.04
-0.44
-0.61
-0.52
-0.21
0.18
0.54
0.76
0.77
0.60
0.33
0.04
-0.19
-0.33
-0.41
-0.43
-0.43
-0.42
-0.42
-0.47
-0.56
-0.74
-0.99
-1.28
-1.58
-1.89
-2.19
-2.47
-2.68
-2.78
-2.72
-2.47
-2.03
-1.44
-0.75
-0.02
0.65
1.16
1.47
1.56
1.49
1.37
1.24
1.15
1.09
1.03
0.98
0.93
0.85
0.73
0.52
0.28
0.11
0.10
0.31
0.63
0.87
0.86
0.55
0.04
-0.42
-0.64
-0.58
-0.34
-0.10
-0.01
-0.08
-0.26
-0.45
-0.62
-0.80
-1.05
-1.41
-1.85
-2.30
-2.67
-2.87
-2.88
-2.69
-2.29
-1.70
-0.94
-0.12
0.65
1.26
1.61
1.73
1.74
1.76
1.85
2.00
2.08
1.97
1.62
1.11
0.59
0.23
0.12
0.22
0.42
0.62
0.74
0.79
0.81
0.85
0.93
1.02
1.05
0.94
0.68
0.28
-0.17
-0.54
-0.75
-0.76
-0.60
-0.36
-0.15
-0.05
-0.13
-0.38
-0.79
-1.28
-1.78
-2.16
-2.33
-2.19
-1.74
-1.03
-0.19
0.64
1.33
1.83
2.11
2.16
2.00
1.66
1.21
0.79
0.55
0.60
0.95
1.44
1.86
2.01
1.80
1.35
0.91
0.70
0.80
1.11
1.45
1.59
1.43
1.02
0.51
0.09
-0.13
-0.15
-0.04
0.07
0.04
-0.16
-0.53
-0.98
-1.42
-1.75
-1.96
-2.06
-2.14
-2.26
-2.47
-2.72
-2.90
-2.90
-2.62
-2.02
-1.21
-0.34
